序号,时间(s),电压,阻抗
1,0.022,-1.3674068453038086,7339.408203
2,0.148,-1.360670757385886,7336.621094
3,0.274,-1.3543868885898116,7340.77832
4,0.4,-1.348895466071319,7340.632813
5,0.526,-1.3444025260052606,7342.96875
6,0.653,-1.3409911752229333,7342.324707
7,0.778,-1.3386630943575846,7339.226563
8,0.904,-1.3373858176741906,7342.450195
9,1.03,-1.3371271069129498,7341.223145
10,1.156,-1.3378690909501347,7341.574707
11,1.282,-1.3396031715547645,7342.615723
12,1.408,-1.342308003786903,7342.315918
13,1.534,-1.3459134700190605,7341.244629
14,1.66,-1.3502603641398114,7338.604492
15,1.786,-1.3550726499829036,7339.933594
16,1.912,-1.3599571209529628,7336.651855
17,2.039,-1.3644352161972066,7341.140625
18,2.164,-1.368001034688031,7339.157715
19,2.29,-1.3701930227373733,7344.897949
20,2.417,-1.3706662428612975,7341.627441
21,2.542,-1.369254940875546,7341.407715
22,2.669,-1.3660155380948622,7336.962402
23,2.794,-1.3612386414627873,7339.026367
24,2.92,-1.3554212057055197,7341.912598
25,3.046,-1.3491978275176053,7340.833496
26,3.172,-1.3432407938089792,7341.116211
27,3.298,-1.3381500841203522,7339.518066
28,3.424,-1.334360888854989,7342.128418
29,3.55,-1.3320902535068355,7340.571289
30,3.679,-1.3313302027300333,7344.406738
31,3.802,-1.3318825419387808,7340.320313
32,3.928,-1.3334235439273767,7339.341797
33,4.054,-1.3355824864634842,7339.543457
34,4.18,-1.3380158314411568,7342.408691
35,4.306,-1.3404588484736975,7339.91748
36,4.432,-1.3427405098331577,7339.059082
37,4.558,-1.344759864988134,7342.27002
38,4.684,-1.3464404566550068,7342.860352
39,4.81,-1.347690940004601,7341.756348
40,4.936,-1.3483957061106984,7348.279297
41,5.062,-1.3484423936542327,7339.962402
42,5.188,-1.3477729384556951,7338.523438
43,5.314,-1.34643159603643,7340.725098
44,5.44,-1.3445857673742085,7337.666992
45,5.566,-1.342510324514647,7340.799316
46,5.692,-1.340540343853449,7343.922852
47,5.818,-1.3390047782718975,7337.993652
48,5.944,-1.3381580894060183,7340.944336
49,6.07,-1.338128556999951,7339.333496
50,6.196,-1.3388984163564293,7342.923828
51,6.322,-1.3403229837031274,7338.422363
52,6.448,-1.3421842344849233,7339.866699
53,6.574,-1.3442604586792666,7342.044434
54,6.7,-1.3463857557733137,7341.236816
55,6.826,-1.3484780403778778,7342.512695
56,6.952,-1.3505281928798158,7336.882324
57,7.078,-1.3525588542365632,7340.092773
58,7.204,-1.3545735365116447,7340.839844
59,7.33,-1.356518345226899,7339.851074
60,7.456,-1.3582692792155413,7341.421387
61,7.582,-1.359648273477833,7342.165527
62,7.708,-1.360466197767454,7340.340332
63,7.834,-1.3605841982517572,7344.861328
64,7.96,-1.3599745047391054,7341.091797
65,8.086,-1.35875724630874,7339.062012
66,8.212,-1.3571957567573971,7340.409668
67,8.338,-1.355645778137011,7341.547852
68,8.464,-1.3544692412869046,7343.571289
69,8.59,-1.3539362442274288,7341.410156
70,8.716,-1.3541455936201892,7340.834473
71,8.842,-1.3549926630543998,7340.674805
72,8.968,-1.3562003989628162,7339.155273
73,9.094,-1.3574065274530254,7343.57959
74,9.22,-1.3582781971359914,7337.729492
75,9.346,-1.3586146785386382,7340.940918
76,9.472,-1.3584017931639307,7339.302246
77,9.598,-1.3577988263549687,7342.124023
78,9.724,-1.3570665417474743,7335.448242
79,9.85,-1.3564691567134728,7338.337402
80,9.976,-1.3561888639555917,7338.563477
81,10.102,-1.3562806926569044,7339.422363
82,10.228,-1.356679321779265,7338.488281
83,10.354,-1.3572511262568518,7339.14209
84,10.48,-1.3578660320931275,7338.519043
85,10.606,-1.3584551752238947,7339.287109
86,10.732,-1.3590293989340005,7338.525391
87,10.858,-1.3596539791349536,7337.339844
88,10.984,-1.3603942283780077,7338.544434
89,11.11,-1.361256480737363,7339.674316
90,11.236,-1.3621485135994638,7339.762695
91,11.361,-1.362876669939193,7338.556152
92,11.488,-1.3631858534834627,7339.140137
93,11.614,-1.3628336437688058,7339.227539
94,11.739,-1.3616763840723165,7340.06543
95,11.866,-1.3597392706486713,7336.036621
96,11.991,-1.3572433557432078,7340.75
97,12.118,-1.354569495318508,7337.787598
98,12.243,-1.3521581261824651,7341.413086
99,12.37,-1.3503730728796524,7335.864258
100,12.496,-1.3493816142249535,7337.197754
101,12.621,-1.3491040461224824,7340.81543
102,12.748,-1.349258484080709,7337.043945
103,12.873,-1.349482896850618,7340.629395
104,12.999,-1.3494813820576235,7340.554688
105,13.126,-1.3491337673783421,7339.280273
106,13.251,-1.3485248488221895,7333.526855
107,13.377,-1.347881941412682,7338.373047
108,13.504,-1.3474489903844773,7340.577637
109,13.63,-1.3473565217307044,7339.178711
110,13.756,-1.3475483961481711,7339.114746
111,13.881,-1.3477966781630932,7337.139648
112,14.007,-1.3477951436985316,7337.275391
113,14.133,-1.3472898084782754,7338.599609
114,14.26,-1.3461909181198954,7341.344238
115,14.385,-1.3446199199743392,7336.101563
116,14.511,-1.342873773434417,7343.222656
117,14.638,-1.3413232418151693,7339.601074
118,14.763,-1.3402866475292443,7340.842773
119,14.889,-1.3399280107697003,7341.116699
120,15.015,-1.3402170281483288,7339.708984
121,15.141,-1.3409633775378187,7342.211914
122,15.267,-1.3419079492069195,7343.827637
123,15.393,-1.342827637373753,7338.248535
124,15.52,-1.3436030076464243,7340.026855
125,15.646,-1.3442213390073694,7340.334961
126,15.771,-1.3447270815517278,7338.096191
127,15.897,-1.3451567230766026,7336.266602
128,16.023,-1.345494064491426,7344.30957
129,16.149,-1.3456660181813638,7339.072266
130,16.275,-1.3455771285900024,7340.213867
131,16.401,-1.3451601439919023,7341.712891
132,16.527,-1.3444140454589373,7342.039551
133,16.653,-1.343413800202779,7335.439453
134,16.779,-1.3422930559914514,7339.731445
135,16.905,-1.3412097861666528,7339.835449
136,17.031,-1.3403068234748843,7341.090332
137,17.158,-1.339678372715871,7339.986328
138,17.283,-1.3393521571638833,7339.98291
139,17.409,-1.3392956689992914,7339.485352
140,17.535,-1.3394491885767672,7339.654785
141,17.661,-1.3397736663489979,7341.147949
142,17.787,-1.3402873143666443,7337.813477
143,17.913,-1.341065042849858,7342.31543
144,18.039,-1.3421926460027434,7344.023926
145,18.165,-1.3436950853443035,7337.361328
146,18.291,-1.3454810338007006,7339.452148
147,18.417,-1.3473452995785706,7338.32666
148,18.543,-1.3490398158875312,7338.975098
149,18.669,-1.3503808211993114,7337.628418
150,18.795,-1.3513343009397814,7340.251465
151,18.921,-1.3520313392566694,7342.609375
152,19.047,-1.3527047430362082,7339.502441
153,19.173,-1.3535820052542993,7335.772461
154,19.299,-1.3547879292742084,7339.561523
155,19.425,-1.35629608858896,7340.320801
156,19.551,-1.3579385117678093,7340.558594
157,19.677,-1.359456894799842,7340.413574
158,19.803,-1.360567900188772,7337.424316
159,19.929,-1.3610228324120077,7337.857422
160,20.055,-1.3606578958595217,7343.484375
161,20.181,-1.359438164906699,7336.987305
162,20.307,-1.3574910302401533,7339.083984
163,20.433,-1.3551137991058528,7338.040527
164,20.559,-1.3527383727912283,7336.23877
165,20.685,-1.350848824155829,7338.109863
166,20.811,-1.3498696645439616,7339.249512
167,20.937,-1.3500591534181365,7337.353027
168,21.063,-1.3514419194434126,7338.400391
169,21.189,-1.3538006216068375,7337.868164
170,21.315,-1.3567269128031345,7338.189453
171,21.441,-1.359715177402196,7339.96582
172,21.567,-1.3622732554087973,7341.773438
173,21.693,-1.364023925414963,7337.98877
174,21.819,-1.3647762116144524,7339.223145
175,21.945,-1.3645535163676015,7342.955566
176,22.071,-1.3635751449467381,7336.553711
177,22.197,-1.3621975111129887,7343.428223
178,22.323,-1.3608295875021208,7339.102051
179,22.449,-1.3598430388107223,7340.966797
180,22.576,-1.3594976659662021,7338.830566
181,22.701,-1.3598947064700828,7338.918945
182,22.827,-1.3609603719371628,7344.099121
183,22.953,-1.3624584889146625,7336.377441
184,23.079,-1.3640322994172749,7340.013672
185,23.205,-1.3652741437565992,7338.49707
186,23.331,-1.3658160706147784,7340.636719
187,23.457,-1.3654245963613734,7340.779785
188,23.583,-1.3640718771415896,7339.866699
189,23.709,-1.361955060368603,7339.616699
190,23.835,-1.3594527235343317,7339.76123
191,23.961,-1.357031225100006,7339.313477
192,24.087,-1.355129886502067,7342.270996
193,24.213,-1.3540594465151417,7341.956543
194,24.339,-1.3539434716432264,7339.350098
195,24.465,-1.354715414299459,7339.019043
196,24.591,-1.3561618934357222,7341.311523
197,24.717,-1.3579890477024537,7338.332031
198,24.843,-1.3598869925580757,7336.549805
199,24.969,-1.3615731842347338,7336.580566
200,25.095,-1.3628084048544262,7339.786621
201,25.221,-1.3633965928038358,7339.192871
202,25.347,-1.3631905687817223,7341.365723
203,25.473,-1.3621204192950283,7341.462402
204,25.599,-1.3602412549069025,7337.484863
205,25.725,-1.3577741136728454,7335.893066
206,25.851,-1.3551061530572324,7341.679688
207,25.977,-1.3527331255552983,7338.247559
208,26.103,-1.351155782781021,7340.994141
209,26.229,-1.3507614955354148,7338.410645
210,26.355,-1.3517255160109383,7338.402832
211,26.48,-1.3539592480730374,7338.401855
212,26.607,-1.357122315590329,7340.34668
213,26.733,-1.3607003225337075,7336.723145
214,26.858,-1.364129059747226,7346.411621
215,26.985,-1.3669272739562954,7337.355957
216,27.111,-1.3687978928343658,7337.394043
217,27.237,-1.3696724030538898,7336.604004
218,27.363,-1.369693205277469,7338.218262
219,27.489,-1.3691469775798426,7338.705078
220,27.614,-1.3683758934780543,7336.242188
221,27.741,-1.3676964535049323,7338.990234
222,27.867,-1.3673443338237348,7336.710938
223,27.993,-1.367446890830543,7336.124023
224,28.119,-1.368014644094109,7334.859375
225,28.245,-1.3689428117677294,7338.461426
226,28.371,-1.3700214490768323,7339.881348
227,28.496,-1.3709626345743389,7338.631348
228,28.623,-1.3714554137271904,7339.4375
229,28.748,-1.3712458797340412,7343.665527
230,28.875,-1.370217937710625,7344.306641
231,29.001,-1.3684397887672386,7335.827148
232,29.127,-1.3661542269978735,7335.624023
233,29.252,-1.3637182634653933,7337.472656
234,29.378,-1.3615181408988533,7336.027832
235,29.504,-1.3598877870020758,7335.312988
236,29.631,-1.3590492036979958,7335.085938
237,29.757,-1.3590837944712386,7337.786621
238,29.883,-1.3599348550065762,7339.342773
239,30.009,-1.3614317322776894,7335.794922
240,30.134,-1.3633231192256494,7332.334961
241,30.261,-1.3653138229681563,7336.751465
242,30.386,-1.3671048033562931,7337.947754
243,30.513,-1.3684335016322764,7337.729492
244,30.639,-1.369109065270227,7338.54834
245,30.764,-1.3690407000997715,7336.340332
246,30.89,-1.3682592548383252,7340.42627
247,31.016,-1.3669258206574257,7334.365723
248,31.143,-1.365314082431935,7337.020508
249,31.269,-1.3637581787984447,7338.847656
250,31.394,-1.3625754912700765,7339.30957
251,31.52,-1.361989542339123,7339.677246
252,31.647,-1.3620793092479473,7339.722656
253,31.772,-1.3627698922329876,7336.346191
254,31.898,-1.3638645015761153,7337.165039
255,32.024,-1.3651040469411206,7336.428223
256,32.15,-1.3662325656301892,7334.749023
257,32.276,-1.3670493419137546,7341.633789
258,32.402,-1.3674387248799242,7336.052246
259,32.528,-1.3673764430115312,7337.368652
260,32.654,-1.3669130249373869,7338.600586
261,32.78,-1.3661362072208192,7335.145996
262,32.906,-1.365120950040924,7339.380371
263,33.032,-1.3638872283387027,7337.172852
264,33.158,-1.3623909962881031,7337.622559
265,33.284,-1.3605598942601953,7339.650391
266,33.41,-1.3583585117199748,7338.520996
267,33.536,-1.3558509851940395,7339.775391
268,33.662,-1.3532319160501027,7334.213379
269,33.789,-1.3508110565971723,7337.677734
270,33.914,-1.3489533913774732,7337.835449
271,34.04,-1.3479901529178997,7337.838867
272,34.166,-1.348125056313937,7339.313965
273,34.293,-1.349364020681336,7336.995605
274,34.418,-1.3514953746505094,7335.357422
275,34.544,-1.3541344228416705,7338.574707
276,34.67,-1.356821695771084,7339.196289
277,34.796,-1.359143489979677,7335.885254
278,34.922,-1.3608386868943398,7340.309082
279,35.048,-1.3618641957938105,7342.437012
280,35.174,-1.3624045489186198,7337.994629
281,35.301,-1.3628242192772317,7339.223145
282,35.426,-1.363571529732529,7337.755859
283,35.552,-1.3650524400842954,7336.972168
284,35.678,-1.3675043798715414,7342.618652
285,35.804,-1.3709088835603938,7337.410156
286,35.93,-1.37497499448352,7337.946289
287,36.056,-1.3792013656987738,7339.464844
288,36.182,-1.3829959995766143,7332.536133
289,36.309,-1.3858129217573512,7338.834473
290,36.434,-1.3872631864594485,7339.646973
291,36.56,-1.3871744529528267,7340.915527
292,36.686,-1.385598961583088,7338.375488
293,36.812,-1.382786943430868,7341.691406
294,36.938,-1.3791428638755205,7330.995117
295,37.064,-1.375173263457734,7338.651855
296,37.19,-1.371428603146577,7337.762695
297,37.316,-1.368438674278447,7336.294434
298,37.442,-1.366639577251641,7337.953125
299,37.568,-1.366295284687459,7336.661621
300,37.694,-1.3674313308165658,7329.585938
301,37.82,-1.3698087455875156,7335.757813
302,37.946,-1.3729565717742855,7338.29248
303,38.072,-1.3762568927160945,7336.214355
304,38.198,-1.3790593491667211,7338.099121
305,38.324,-1.3808010848060996,7339.076172
306,38.45,-1.381111516111304,7341.178711
307,38.576,-1.3798814343463133,7336.165039
308,38.702,-1.3772789314227296,7337.530762
309,38.828,-1.3737058897952017,7335.916504
310,38.954,-1.3697039606877994,7335.568359
311,39.08,-1.36583279499037,7338.412598
312,39.206,-1.362553553637186,7338.56543
313,39.332,-1.360151353346319,7335.78125
314,39.458,-1.3587147733130873,7337.604492
315,39.584,-1.3581652220752154,7339.280273
316,39.71,-1.3583112498930232,7338.380371
317,39.836,-1.3589036651145068,7340.165527
318,39.962,-1.3596811503565547,7337.868652
319,40.088,-1.3604085445509928,7336.129395
320,40.214,-1.3609118608118016,7337.311523
321,40.34,-1.3611075637702694,7340.243652
322,40.466,-1.3610163579848908,7341.756348
323,40.592,-1.3607507807450625,7340.222168
324,40.718,-1.3604745228674213,7341.020996
325,40.844,-1.3603453536627819,7336.04541
326,40.97,-1.3604630075930928,7338.149902
327,41.096,-1.3608425102930675,7341.225098
328,41.222,-1.3614237404996385,7335.755859
329,41.348,-1.3621134734368348,7338.029297
330,41.474,-1.3628412362047917,7337.193848
331,41.6,-1.363602291597065,7336.575195
332,41.726,-1.3644660739048329,7338.31543
333,41.852,-1.365544853624261,7336.516602
334,41.978,-1.366937072240656,7336.217773
335,42.104,-1.368672443733802,7336.371094
336,42.23,-1.3706835927599617,7339.507324
337,42.356,-1.3728129083601155,7336.939941
338,42.482,-1.3748454373381565,7341.678223
339,42.608,-1.376551126479868,7336.902344
340,42.734,-1.3777243287746284,7337.553711
341,42.86,-1.3782175252589883,7337.473145
342,42.986,-1.3779703072400091,7337.607422
343,43.112,-1.3770307731627598,7340.000488
344,43.238,-1.375560941291813,7345.28418
345,43.363,-1.3738193576517939,7335.941895
346,43.489,-1.372123404975193,7336.145996
347,43.616,-1.3708027988577034,7336.655273
348,43.741,-1.3701569983537347,7338.327637
349,43.868,-1.3704226999685551,7333.43457
350,43.994,-1.3717491431890703,7336.895508
351,44.12,-1.3741752141611316,7337.583496
352,44.245,-1.3776060699712962,7335.812988
353,44.372,-1.381795488739479,7335.281738
354,44.498,-1.3863461322637278,7337.384277
355,44.623,-1.3907372224092587,7335.210938
356,44.749,-1.3943803424486971,7334.656738
357,44.876,-1.3966981647036205,7336.855469
358,45.001,-1.3972199855934933,7335.947266
359,45.128,-1.3956832637177792,7336.015625
360,45.254,-1.392117188791196,7330.859375
361,45.38,-1.3868736428971007,7334.853516
362,45.505,-1.3805788480896597,7336.627441
363,45.632,-1.3740081627739928,7337.811035
364,45.758,-1.3679211840366183,7339.246582
365,45.883,-1.362912129534187,7335.647949
366,46.01,-1.3593205635948995,7333.415527
367,46.135,-1.357218535770937,7335.596191
368,46.261,-1.3564598430158574,7335.556641
369,46.387,-1.3567596891541231,7335.305176
370,46.514,-1.357774721303098,7338.760254
371,46.639,-1.3591675649615569,7335.717285
372,46.765,-1.3606512466555833,7334.805664
373,46.892,-1.362012395773915,7336.092285
374,47.017,-1.3631160921685073,7336.439941
375,47.143,-1.3639017761014205,7336.66748
376,47.269,-1.3643805909758837,7339.333008
377,47.395,-1.3646362601126079,7339.443848
378,47.521,-1.3648206319779759,7336.605469
379,47.647,-1.3651309435871066,7338.298828
380,47.773,-1.3657636782291447,7338.780273
381,47.899,-1.3668557350958597,7338.946777
382,48.025,-1.3684362686593603,7337.565918
383,48.151,-1.3704118189803036,7335.856934
384,48.277,-1.372591955583029,7336.830566
385,48.403,-1.3747421675331413,7335.39502
386,48.53,-1.3766395856828775,7334.698242
387,48.655,-1.3781118009395612,7332.393066
388,48.781,-1.3790530432450019,7334.120605
389,48.907,-1.3794252096487143,7334.404785
390,49.033,-1.3792566835034783,7333.956055
391,49.159,-1.3786457128939507,7338.576172
392,49.285,-1.3777612350640565,7337.530273
393,49.411,-1.3768250511150897,7337.713867
394,49.538,-1.3760650968643868,7331.08252
395,49.663,-1.375647823468889,7337.21875
396,49.789,-1.3756158589568184,7337.60791
397,49.915,-1.3758618053281728,7336.822266
398,50.041,-1.3761554653407921,7335.753418
399,50.167,-1.3762168460306792,7334.458496
400,50.293,-1.3758055021663291,7337.247559
401,50.419,-1.3747923402356317,7335.272949
402,50.545,-1.3731940852649354,7331.492188
403,50.671,-1.3711675365082747,7333.458496
404,50.797,-1.3689679036674176,7334.114258
405,50.923,-1.3668800152451268,7335.989746
406,51.049,-1.3651418516560136,7336.010254
407,51.175,-1.3638873291995404,7335.914063
408,51.301,-1.3631276620070134,7338.776855
409,51.427,-1.3627729489106275,7339.789551
410,51.553,-1.362680076131655,7339.192871
411,51.679,-1.362705526875503,7337.356445
412,51.805,-1.3627438010270743,7334.744629
413,51.931,-1.3627421072644195,7336.905762
414,52.057,-1.3626932776211738,7337.753418
415,52.183,-1.3626163221671066,7334.844238
416,52.309,-1.3625374045467011,7336.544922
417,52.435,-1.3624830214397552,7337.138672
418,52.561,-1.3624906200608835,7338.822266
419,52.687,-1.3626312371693499,7338.927246
420,52.813,-1.3630283548602007,7332.814941
421,52.939,-1.3638532551294338,7338.927246
422,53.065,-1.3652851471046545,7338.910156
423,53.191,-1.3674430505626087,7338.59668
424,53.317,-1.3703159388740316,7334.188477
425,53.443,-1.3737244560419688,7333.279785
426,53.569,-1.3773345452495869,7336.448242
427,53.695,-1.3807187288486156,7338.658691
428,53.821,-1.3834424620440926,7335.852051
429,53.947,-1.3851507249477737,7335.987793
430,54.073,-1.3856377343593345,7339.458008
431,54.199,-1.3848890047344513,7337.967773
432,54.325,-1.383086844212641,7336.479492
433,54.451,-1.3805737858682743,7338.662109
434,54.577,-1.3777781540001255,7337.09375
435,54.703,-1.3751185270712374,7335.383789
436,54.829,-1.3729125894896927,7341.287109
437,54.955,-1.371316824235238,7336.643066
438,55.081,-1.370314925310636,7338.603027
439,55.207,-1.3697557166555152,7335.700195
440,55.333,-1.3694233228473756,7337.24707
441,55.459,-1.3691135009978748,7337.379883
442,55.585,-1.3686927886537588,7335.346191
443,55.711,-1.368125628074701,7334.469727
444,55.837,-1.3674647380720906,7335.397949
445,55.963,-1.3668119388688669,7335.658203
446,56.089,-1.3662675280503935,7335.504395
447,56.215,-1.3658887882295199,7332.848633
448,56.341,-1.3656703728542259,7336.095215
449,56.467,-1.3655482790104736,7336.628418
450,56.593,-1.3654206195694183,7336.160645
451,56.719,-1.3651736203312055,7336.145508
452,56.845,-1.3647041392197174,7328.173828
453,56.971,-1.3639409871953208,7335.512207
454,57.097,-1.3628734433378153,7335.448242
455,57.223,-1.361584906561668,7334.575195
456,57.349,-1.3602714239446574,7334.98584
457,57.475,-1.359220082141516,7339.649414
458,57.602,-1.3587410363824135,7335.592285
459,57.727,-1.3590768148382428,7336.855957
460,57.852,-1.3603298192976818,7334.78418
461,57.979,-1.362440746780101,7338.497559
462,58.105,-1.3652227842147775,7338.806641
463,58.23,-1.3684256628970808,7333.524902
464,58.357,-1.3717899635875435,7336.686035
465,58.483,-1.3750678462855679,7338.539063
466,58.609,-1.3780210462140297,7337.864258
467,58.735,-1.3804290762895592,7335.443848
468,58.861,-1.3821278467873588,7334.633301
469,58.986,-1.3830645249656544,7334.04541
470,59.113,-1.383332096009872,7335.729004
471,59.238,-1.3831529398777709,7332.376953
472,59.364,-1.382805065574957,7333.05957
473,59.491,-1.3825135842096683,7337.742676
