时间(s),电压(V),幅值(高频80K)
0.0,0.9348799231463562,5901.00152259101
0.004,0.537464672678009,5899.023780107063
0.008,0.20388152885970842,5904.82098476536
0.012,-0.017607167282108725,5902.080935173884
0.016,-0.10624478980364106,5904.492864158789
0.02,-0.07226571030436113,5900.475722789823
0.024,0.047715207055604315,5900.865951196466
0.028,0.2018665251169844,5901.248369395403
0.032,0.33738966545262405,5901.109041168468
0.036,0.4135885304840099,5900.215739590532
0.04,0.4104409060169569,5897.803632504433
0.044,0.3312411237475077,5892.898535148295
0.048,0.1994400855960782,5904.847452510323
0.052,0.05076729006459536,5896.9681767480015
0.056,-0.07732856800910087,5901.107760629019
0.06,-0.15585364256073977,5895.194764030658
0.064,-0.17091648768157564,5900.000936628063
0.068,-0.12537755841959441,5901.903820609112
0.072,-0.03634761925719611,5886.26233886498
0.076,0.06964528242848386,5897.868063266204
0.08,0.16263114764013398,5906.5973829768745
0.084,0.21570346525079515,5902.725557542127
0.088,0.2110016743490276,5895.692265091955
0.092,0.14361094496906213,5902.090850678891
0.096,0.022407860600892723,5900.684480161974
0.1,-0.13178332758027547,5899.267209401898
0.104,-0.28965010733087304,5899.001938999662
0.108,-0.4179812939749295,5890.127339233852
0.112,-0.4858137927246787,5895.997630426143
0.116,-0.4721608744043413,5900.7777594542695
0.12,-0.37342783095851534,5896.250699243535
0.124,-0.20707641485800332,5900.601097633748
0.128,-0.008854404327489001,5893.102915958945
0.132,0.1762546226309344,5904.940920986519
0.136,0.30624197341533094,5902.693995853648
0.14,0.3530561039911613,5901.422556173869
0.144,0.3089025825055703,5896.037942895452
0.148,0.18667271426276114,5895.100029467901
0.152,0.015400793148713723,5898.751557473707
0.156,-0.16737607752881545,5901.740956241072
0.16,-0.3244164127737303,5899.574025296956
0.164,-0.426922969623856,5900.94745824047
0.168,-0.46031777468173835,5903.322164831793
0.172,-0.4263068209811557,5894.879191485042
0.176,-0.3408357537607269,5902.345081704007
0.18,-0.2287415492324668,5898.997125578344
0.184,-0.11687648682578602,5901.925925159743
0.188,-0.02785961435531643,5899.852185459973
0.192,0.023794934364791843,5903.231260750341
0.196,0.032489849770337725,5899.6602315893215
0.2,-0.00015736677622069938,5894.609166358444
0.204,-0.06810965134348211,5892.609904160169
0.208,-0.1631743267225399,5896.854650636348
0.212,-0.27571948645662375,5902.764962311708
0.216,-0.3940030912655752,5903.648902017554
0.22,-0.5033462390213137,5899.963749051672
0.224,-0.5867262332597861,5892.913228528504
0.228,-0.6277456117140815,5898.453096592997
0.232,-0.6154902855742552,5901.579270137358
0.236,-0.5491935301505978,5903.5840039276445
0.24,-0.44004327011866046,5900.083889619279
0.244,-0.3086887932541918,5897.651119724187
0.248,-0.17936443274562097,5908.329454556867
0.252,-0.07330391195124882,5902.0820942506125
0.256,-0.004066267546106945,5901.3911873591205
0.26,0.024111410374479097,5897.601887790916
0.264,0.015435364969079856,5903.096094541719
0.268,-0.019641951704313543,5895.830586144519
0.272,-0.06690928325964922,5907.437157888538
0.276,-0.1106696857154951,5903.063684947403
0.28,-0.13589765555583405,5906.557077388397
0.284,-0.13082960248530084,5901.488517077835
0.288,-0.09025000559889082,5894.964554924058
0.292,-0.018527238958355976,5894.9255394151005
0.296,0.06965556923919997,5890.689591786444
0.3,0.1525319100213825,5892.919913985921
0.304,0.20808704222403857,5896.035631713119
0.308,0.22192934123791824,5897.543314379815
0.312,0.1927130110382618,5901.564608013488
0.316,0.1324996581442394,5904.168086895047
0.32,0.06174235728072645,5891.589041871561
0.324,0.0011687779791040866,5894.22888348241
0.328,-0.035832596725477936,5894.8767256324745
0.332,-0.04739572964786839,5902.475330655021
0.336,-0.04288861067556791,5900.397953431753
0.34,-0.03889235715574351,5883.985726313486
0.344,-0.0532442886163895,5899.390020128489
0.348,-0.09925732269116058,5901.767067399096
0.352,-0.181804478141306,5898.449085151167
0.356,-0.2959632618074105,5908.2913625206575
0.36,-0.4279552554819432,5898.956326181269
0.364,-0.5577573757391383,5893.908033974829
0.368,-0.6629292304199677,5901.488726244669
0.372,-0.7233111127691061,5897.089857037929
0.376,-0.7258694064037378,5895.2545460695455
0.38,-0.6683584667536862,5896.39648622778
0.384,-0.560412463545848,5894.747987616625
0.388,-0.4215575193969016,5906.109357714825
0.392,-0.2768129183049247,5889.650982176821
0.396,-0.15114626027687114,5892.606967560321
0.4,-0.06402038260465545,5896.653997611753
0.404,-0.025167392422122035,5903.363768803649
0.408,-0.032699755881852186,5894.785505898536
0.412,-0.07439553390394994,5900.800840534524
0.416,-0.1322205822418601,5898.417614073517
0.42,-0.18891883659063424,5900.640030380271
0.424,-0.23426900450780447,5897.640498810546
0.428,-0.2682387037374469,5905.823000659431
0.432,-0.29942258112654657,5907.390102525773
0.436,-0.33947197091793885,5894.715975904235
0.44,-0.39630063441039676,5901.142111355461
0.444,-0.4693278464381393,5895.611518217444
0.448,-0.5488457764816228,5907.790745090049
0.452,-0.6196927119013124,5901.286913555034
0.456,-0.6674545344477282,5897.099506327851
0.46,-0.6840248894922973,5900.380260677205
0.464,-0.6696331713382939,5901.984903882254
0.468,-0.630699312859499,5902.030062033616
0.472,-0.5754656517250193,5905.4458403176095
0.476,-0.5102417335864604,5887.955216138283
0.48,-0.43797525902631307,5903.728049651257
0.484,-0.3591314372314411,5898.395851149019
0.488,-0.27388812440284477,5901.337630738372
0.492,-0.184587401045899,5896.541819987404
0.496,-0.0975783425374065,5895.973499954805
0.5,-0.023631084957240867,5894.790612470705
0.504,0.023803627986538393,5892.863124622438
0.508,0.03260136854952368,5899.524841532049
0.512,-0.0028988646782650584,5899.210888763364
0.516,-0.07789964448704625,5901.995804497161
0.52,-0.17650074773940827,5901.428965954986
0.524,-0.27518973954535153,5897.135341636566
0.528,-0.34941964921117935,5907.017846421806
0.532,-0.38095548357597264,5898.372441843976
0.536,-0.36332119488494063,5896.11017339031
0.54,-0.30328587914349636,5911.851748537454
0.544,-0.217783568283525,5896.399379235664
0.548,-0.12747415054106953,5895.5875625777735
0.552,-0.0494739517989095,5898.2832585304095
0.556,0.007988193586926816,5898.541290745451
0.56,0.04704318231722128,5895.766731753789
0.5640000000000001,0.07735232725216551,5902.687732398175
0.5680000000000001,0.11041221871947793,5889.897195789126
0.5720000000000001,0.1538317419968852,5903.2994186630885
0.5760000000000001,0.20825508960755926,5908.1216922972
0.58,0.2677255658274822,5901.897350136398
0.584,0.3221452702415853,5893.841260452322
0.588,0.3598574416331435,5900.186523723929
0.592,0.36942633704414746,5896.997951355945
0.596,0.3409975762925055,5901.708775810364
0.6,0.26810543968222306,5893.806660204239
0.604,0.15049834383225816,5899.697064400308
0.608,-0.0023796263783305333,5904.014470345315
0.612,-0.16909080186917347,5903.403143831332
0.616,-0.31780988215985156,5893.111216286425
0.62,-0.4133019887026335,5897.78971525792
0.624,-0.4276590537438341,5901.281476494144
0.628,-0.35052061889213326,5901.66385896241
0.632,-0.19417631828371354,5906.913359713273
0.636,0.008932273537262916,5901.868918246782
0.64,0.21551077516344477,5897.165807787106
0.644,0.38394929343726475,5901.890522637408
0.648,0.4854655922525395,5897.557400878038
0.652,0.510132055115831,5909.186397440445
0.656,0.4663744119475858,5895.343228931501
0.66,0.3750055316549832,5902.902613902185
0.664,0.2604333548369312,5896.143854266565
0.668,0.14226835771215415,5900.515017282201
0.672,0.03041750513686779,5897.009904814594
0.676,-0.07450389167796723,5895.473564016691
0.68,-0.17621505751968375,5900.689768380828
0.684,-0.2765984396792623,5900.530021337167
0.6880000000000001,-0.3720696362563693,5901.446069670577
0.6920000000000001,-0.4541937497939322,5888.687068888913
0.6960000000000001,-0.5134874095922801,5907.334815855938
0.7000000000000001,-0.5437813225094803,5896.193192662468
0.704,-0.5448059540497846,5893.072496855663
0.708,-0.5222440784571731,5893.357929844731
0.712,-0.4861167624452319,5904.896987890016
0.716,-0.44882439071319746,5904.561221133407
0.72,-0.42330844980293975,5902.028637246768
0.724,-0.4207912574976446,5894.598125428645
0.728,-0.44767237786502173,5896.553496511372
0.732,-0.5024179153085641,5902.899808158847
0.736,-0.5743264674449876,5902.447378441351
0.74,-0.6456754666930602,5900.28179424767
0.744,-0.6971850784276927,5903.410161873347
0.748,-0.7150861032301309,5900.004396055689
0.752,-0.6969924333607959,5887.540428231087
0.756,-0.6536156044328308,5893.726065967088
0.76,-0.6047285029239365,5906.678383556946
0.764,-0.5705911002929552,5898.53617546595
0.768,-0.5626538989594008,5890.36789668234
0.772,-0.577869271470699,5898.477642422636
0.776,-0.5990874390820382,5899.135754055184
0.78,-0.6011664896724439,5904.677843846569
0.784,-0.5602051416152393,5901.746176475128
0.788,-0.46250157048077645,5900.649302326728
0.792,-0.31035051364286054,5902.600160779143
0.796,-0.12303341224353298,5902.141097598845
0.8,0.06724966622081437,5897.073095568801
0.804,0.22345773193704896,5903.027201024408
0.808,0.3136552680254192,5898.371319540945
0.812,0.32009529579755996,5908.099202320633
0.8160000000000001,0.24485694010329942,5897.976582912285
0.8200000000000001,0.1103047922305442,5903.962279535392
0.8240000000000001,-0.04600435797322323,5901.996487555759
0.8280000000000001,-0.18079164906272419,5906.416272625534
0.8320000000000001,-0.25639465661030597,5905.234126353947
0.836,-0.25073143974445755,5901.809175546543
0.84,-0.1629325662564715,5904.073468758963
0.844,-0.013163002208296033,5899.667088197047
0.848,0.16282483054253005,5899.465274877342
0.852,0.3223912573049521,5901.20412744541
0.856,0.4255000862225967,5899.073963564899
0.86,0.44287403282316945,5896.954119114099
0.864,0.3614246308143183,5898.245401957504
0.868,0.18636699221778788,5897.091259934483
0.872,-0.06003884492389624,5899.896676203336
0.876,-0.34293006192837433,5895.17432115352
0.88,-0.6218116960297754,5895.35223974534
0.884,-0.858446067953701,5910.346971153558
0.888,-1.023368510627503,5896.5866371392185
0.892,-1.099380988636096,5902.921525594013
0.896,-1.0820593258411566,5895.825575927905
0.9,-0.978479368664262,5898.983130618445
0.904,-0.8052157880142697,5901.966844229856
0.908,-0.5859680781942571,5900.632861669256
0.912,-0.34883559486180427,5894.137734983463
0.916,-0.12328032413716272,5893.244774312325
0.92,0.06319694273513533,5901.537539510077
0.924,0.18865404672908048,5894.134457127977
0.928,0.24024608538025444,5894.183094647966
0.932,0.21679946005568682,5901.174516396365
0.936,0.12933043401950653,5898.075142295964
0.94,-0.001015806915720967,5896.6473261072
0.944,-0.14720526759828753,5895.052816666092
0.948,-0.28164904107587624,5903.106020562017
0.952,-0.38139064774812637,5902.449855158186
0.956,-0.43219494076496295,5898.783739384411
0.96,-0.43091795769502883,5900.551884283891
0.964,-0.3856486327183471,5916.198652735015
0.968,-0.3132686902552298,5898.339826639692
0.972,-0.23465261598971698,5898.24367114775
0.976,-0.16866077236215368,5908.9256373085145
0.98,-0.12686940944967923,5904.671606274183
0.984,-0.11102645842454065,5904.96807659633
0.988,-0.11423634509950902,5897.738586663172
0.992,-0.1252204106478739,5908.841274091756
0.996,-0.13358569884991964,5904.15594123702
1.0,-0.13380291911457903,5904.342393191389
1.004,-0.12670742404174956,5893.038038064806
1.008,-0.11883048618651797,5898.082134345459
1.012,-0.12054020768457266,5902.1782248097925
1.016,-0.14362567643338814,5903.365411868012
1.02,-0.1983863953692273,5896.869742398125
1.024,-0.29027672749174127,5896.209640385165
1.028,-0.41678155520367943,5898.584951384966
1.032,-0.5657923888283248,5891.206783672341
1.036,-0.7165837747012194,5893.726345794489
1.04,-0.8436595459029603,5903.314277537218
1.044,-0.9228454830956393,5904.800456663123
1.048,-0.9381862784175341,5895.824903275731
1.052,-0.8874459221035412,5908.698472154494
1.056,-0.7838598247932835,5895.934427244013
1.06,-0.6528068306575263,5899.2997667769005
1.064,-0.5240471346365881,5898.208738530703
1.068,-0.4222327454237769,5888.246281651554
1.072,-0.3594500482416565,5901.545319012777
1.076,-0.3328424817189863,5907.733757692489
1.08,-0.3280947243653288,5900.23469619744
1.084,-0.3268925578312109,5894.68844857304
1.088,-0.31481569307555285,5893.211040319384
1.092,-0.28638683113275293,5892.476988563569
1.096,-0.2459054595352458,5900.467040971193
1.1,-0.2047971649722704,5899.603704212158
1.104,-0.17720969799196082,5911.0979000869165
1.108,-0.1754033264229641,5894.933397837605
1.112,-0.20587011672611824,5898.6940184641735
1.116,-0.2668015223012627,5899.457218071231
1.12,-0.34761769503513773,5897.062456477864
1.124,-0.4311078352462082,5895.026425340713
1.128,-0.4977759270175421,5895.968180088747
1.132,-0.5308751085126829,5896.039395125913
1.136,-0.5203840859861799,5902.285055687435
1.14,-0.4648819955727739,5902.860232412834
1.144,-0.371187755051752,5903.161362191023
1.148,-0.2522372858272956,5904.859207616868
1.152,-0.123937901037763,5901.112337435054
1.156,-0.0018228002793984168,5899.834266768202
1.16,0.10169261982670387,5904.986923943496
1.164,0.1788786729370019,5905.206680139696
1.168,0.22697517259943786,5906.871612880573
1.172,0.24751582791504,5902.959334548978
1.176,0.24513408579259216,5902.360722881455
1.18,0.22617212958167185,5906.026894996107
1.184,0.1973011787401776,5902.801070124621
1.188,0.1643087886732272,5897.921714609435
1.192,0.13119605328425682,5897.806753953867
1.196,0.09975693881638519,5900.789392847566
1.2,0.06978340561256678,5898.144886127648
1.204,0.03984993077294296,5911.542410238055
1.208,0.00837888354261438,5894.448106698883
1.212,-0.025439857645732145,5897.409051070256
1.216,-0.061277468814105965,5895.669092952573
1.22,-0.09810921800821058,5889.901281836377
1.224,-0.1353760218905564,5915.201488188645
1.228,-0.17419550834352326,5900.652367468292
1.232,-0.21765795550569464,5900.816904711591
1.236,-0.26967978924592234,5895.6294314580255
1.24,-0.3328699482308316,5899.969149639003
1.244,-0.4067203920735386,5899.301628197875
1.248,-0.4874007805952618,5906.098249564947
1.252,-0.5692499274153915,5901.2639041207085
1.256,-0.6465861811704622,5895.476701169601
1.26,-0.7141533613516247,5892.129918003355
1.264,-0.7658197769831638,5903.352696988688
1.268,-0.7929179809009582,5897.001115907939
1.272,-0.7842760272315504,5896.404415678643
1.276,-0.7289912684307668,5902.247952861422
1.28,-0.6211417186099316,5891.236258723255
1.284,-0.46429277342930914,5901.124694806454
1.288,-0.2736441616960825,5903.912565926174
1.292,-0.07466598756125371,5905.532511031103
1.296,0.10172174461606685,5896.512514672951
1.3,0.22639422161469844,5897.32200470431
1.304,0.2798635090140576,5897.096365843633
1.308,0.25821766736884405,5896.854068963602
1.312,0.1745142028258196,5896.543720141246
1.316,0.05417833491942397,5901.865046174165
1.32,-0.07435847615780511,5903.3970667748135
1.324,-0.189800194516437,5900.969571347097
1.328,-0.28420492472332565,5903.469364828238
1.332,-0.3625814950053293,5896.200768489056
1.336,-0.4365604913063372,5907.155051302464
1.34,-0.5155652270655481,5899.804077179081
1.344,-0.5997365005442379,5901.362557114008
1.348,-0.6777087295359545,5897.223197579254
1.352,-0.7299411053042497,5904.470556704689
1.356,-0.7359284395490128,5898.748677621557
1.36,-0.6822906232461622,5911.901060543908
1.364,-0.5687192505228702,5898.020539005252
1.368,-0.40980894106502974,5905.247451323638
1.372,-0.2324363159283764,5904.104813600008
1.376,-0.06978014828288091,5904.706585016315
1.38,0.046238158370405964,5905.246877725745
1.384,0.09222473375475958,5905.750338692137
1.388,0.058672785589528334,5904.167792063447
1.392,-0.047645038841497685,5900.859786068623
1.396,-0.20463707331521186,5901.145070084138
1.4,-0.37909822109211977,5888.520488613803
1.404,-0.5335324760007469,5905.31367535794
1.408,-0.6341388102079054,5899.762627474741
1.412,-0.6578480874843998,5906.563549266541
1.416,-0.5965856606022791,5899.040908752588
1.42,-0.4581209832879298,5900.506241650554
1.424,-0.2640519174057318,5895.736527769403
1.428,-0.04594863299584713,5901.726706798443
1.432,0.15949930876406673,5909.861882869572
1.436,0.31594897096443303,5903.438359827239
1.44,0.3934380843756945,5901.947181215449
1.444,0.37462842052520773,5905.497608330695
1.448,0.25985911275009616,5907.153757627073
1.452,0.06882109470101597,5895.6441062093
1.456,-0.16282264109943476,5900.488619264266
1.46,-0.3917602044678566,5898.960322525212
1.464,-0.578018375958023,5902.716704993773
1.468,-0.6949946934582327,5895.911118047213
1.472,-0.7353225095593445,5908.99928306823
1.476,-0.7111749531590519,5899.501830043313
1.48,-0.6494768394966336,5901.1298051746935
1.484,-0.5835999577387888,5903.207078395852
1.488,-0.543723315804133,5898.160219317791
1.492,-0.5484165384576067,5898.194643051007
1.496,-0.5998388107389349,5912.170458913266
1.5,-0.683918966734057,5900.068256925066
1.504,-0.7753089858713121,5904.375651575996
1.508,-0.8454866731177288,5903.730546146456
1.512,-0.8715403600207737,5905.488071856811
1.516,-0.8429687546754782,5898.605923505236
1.52,-0.7643620759386867,5894.260452375284
1.524,-0.6531341882827431,5899.722854864144
1.528,-0.5332243856968449,5898.305434822482
1.532,-0.42718297442358616,5899.876721329897
1.536,-0.3495468698496179,5897.039071932207
1.54,-0.30366250678116535,5906.35637203177
1.544,-0.2826414652722293,5906.344471332536
1.548,-0.2736531554154854,5898.454522077272
1.552,-0.2636522410127151,5895.175162418685
1.556,-0.24419879171816708,5902.390025809824
1.56,-0.2135926158321,5910.459014215963
1.564,-0.17595809857869912,5896.334272440501
1.568,-0.13839674738518531,5905.7416288976765
1.572,-0.10810943852091065,5896.1445835919885
1.576,-0.0911235120569236,5898.100731457254
1.58,-0.0929470763061017,5915.815511541937
1.584,-0.11978670085805557,5903.352115781623
1.588,-0.17825721032381553,5909.666279858217
1.592,-0.27257872581189396,5898.943295493489
1.596,-0.4002464124622986,5892.55628201412
1.6,-0.5484851189626971,5895.145327405089
1.604,-0.6937913253695644,5900.107086113676
1.608,-0.805815493412504,5896.92534861889
1.612,-0.8551020185392543,5899.022049619154
1.616,-0.8222557501876366,5897.155869933578
1.62,-0.705050881191389,5897.148196098792
1.624,-0.5207477901179461,5894.789920824232
1.628,-0.30283247649106815,5900.275680256123
1.632,-0.09309750666931786,5905.416231530231
1.636,0.06901696242165323,5895.791898960267
1.64,0.1570844778881876,5899.698281632383
1.644,0.1650275875377568,5890.194414765798
1.648,0.108402437401358,5900.776621415424
1.652,0.019084346647478257,5898.233964139019
1.656,-0.06464254370170285,5892.6455017429735
1.66,-0.10918593715231886,5900.872929232595
1.664,-0.09463550189663311,5906.272994603416
1.668,-0.019489873070056188,5903.691255021952
1.672,0.0994187496865147,5899.559320350386
1.676,0.23093428910023978,5901.26447095368
1.68,0.3359154556121785,5900.424284032769
1.684,0.374307421247886,5898.27268169799
1.688,0.3121007111023083,5905.014014383557
1.692,0.12842131632589415,5898.605186661811
1.696,-0.1767118979214759,5902.956857695855
1.7,-0.5746941815686296,5892.456993611048
1.704,-1.0034575052980963,5909.725181845354
1.708,-1.369269249693105,5895.562349563468
1.712,-1.5582407030866827,5908.01811803615
1.716,-1.4578318086273951,5899.728545965752
1.72,-0.9847540214035108,5907.83004611735
1.724,-0.11201169498504217,5893.778147266014
1.728,1.1140463654724848,5904.962245861456
1.732,2.574573476123938,5895.228306947326
1.736,4.099910806693577,5896.423838793105
1.74,5.507197827323897,5897.760474987906
1.744,6.641768720103314,5895.257490415769
1.748,7.408425201720141,5899.37359890417
1.752,7.783969539956696,5908.206620781698
1.756,7.810853389607004,5901.361465682015
1.76,7.57787654701883,5906.198666063597
1.764,7.19540632679581,5896.916098628271
1.768,6.771222682521035,5896.300091491042
1.772,6.391144524337182,5891.708402819549
1.776,6.107014935277502,5891.340510105632
1.78,5.93322343878028,5900.791700939978
1.784,5.851409579576577,5895.144944041693
1.788,5.821444078006128,5899.95493828961
1.792,5.795517927496987,5895.546202031701
1.796,5.731517678422226,5901.91292873872
1.8,5.602388109837923,5895.738223144078
