时间(s),电压(V),幅值(高频80K)
0.0,-1.622724098175051,5907.272288720811
0.004,-1.3787380683153012,5906.849191620045
0.008,-1.144198186265268,5890.991389237919
0.012,-0.9240639454231995,5896.644218426668
0.016,-0.7192531152507753,5890.700255928216
0.02,-0.5277830025738506,5900.298595863968
0.024,-0.3471905046999993,5901.711154216952
0.028,-0.17675434428562464,5903.811420240175
0.032,-0.018576408405002912,5902.21880831059
0.036,0.12266394261534128,5904.764874144557
0.04,0.24107745537684064,5897.53856516522
0.044,0.33155169809619606,5897.994560461589
0.048,0.3913950241613669,5905.840009484789
0.052,0.42063570989900323,5893.096113099483
0.056,0.4209288525195814,5899.699198268635
0.06,0.3942241724166789,5901.229606066078
0.064,0.34239859157015806,5902.26740083883
0.068,0.2679025869842686,5903.210925545553
0.072,0.17452613975546077,5898.745538673585
0.076,0.06764627885811274,5895.837377837341
0.08,-0.04580960261088806,5893.849036540203
0.084,-0.15723548456179529,5902.54648092216
0.088,-0.25636117360021776,5890.055017861977
0.092,-0.3323573837590343,5896.627128896197
0.096,-0.37637662457414683,5897.490731431104
0.1,-0.38438267550421695,5902.160506871048
0.104,-0.35837061222724315,5899.095779088953
0.108,-0.3051111115688597,5900.77594490813
0.112,-0.23338874546413532,5897.912771103286
0.116,-0.15145951422288176,5902.747771809634
0.12,-0.06568267969045569,5893.903936613978
0.124,0.0197504508940385,5909.903566263032
0.128,0.10221757611141988,5904.372388175345
0.132,0.17895230015590602,5901.03366187952
0.136,0.24413251413983958,5892.44970370403
0.14,0.286040941596896,5897.749006584057
0.144,0.2867844851135785,5902.404137483789
0.148,0.22627238994871693,5902.075095856619
0.152,0.08955803455995176,5898.37658635069
0.156,-0.125582784679028,5897.788965061375
0.16,-0.40425709280547134,5904.041214896424
0.164,-0.715261881603894,5894.113789112647
0.168,-1.0170425149191422,5908.319026754593
0.172,-1.2668420760360275,5891.67787653094
0.176,-1.4299567967081734,5903.155718914304
0.18,-1.4861879594334568,5897.013991501157
0.184,-1.4320963450292596,5901.528120997079
0.188,-1.27964804314815,5898.865258260997
0.192,-1.0529225434593528,5903.60778909266
0.196,-0.7841852999963079,5900.657228016589
0.2,-0.5096186923759412,5899.819686089355
0.204,-0.26450507013726715,5893.873774967298
0.208,-0.07803264807724204,5899.355709791498
0.212,0.03131912602751262,5906.512974553149
0.216,0.05843961608013549,5911.016352923652
0.22,0.011373819028868947,5909.688723455488
0.224,-0.09151487365565733,5896.848219287081
0.228,-0.22567355659827748,5902.579289796741
0.232,-0.36433974815858267,5913.908114138764
0.236,-0.48188657196405876,5895.825059144962
0.24,-0.5569419982824255,5894.129077165393
0.244,-0.5754665708383305,5895.471759362122
0.248,-0.533173757252597,5897.298971462387
0.252,-0.43652687350001895,5904.773360607294
0.256,-0.3020639056688119,5903.669758561672
0.26,-0.15418092796069527,5907.052100429564
0.264,-0.0215906662404373,5889.893009688175
0.268,0.06716846774608665,5901.30032122868
0.272,0.08857408739953913,5893.17970108159
0.276,0.02866628646053223,5904.564858223202
0.28,-0.11330414400508404,5898.806124921235
0.284,-0.32282853961339186,5903.383970747155
0.288,-0.5705560829759523,5904.910739230825
0.292,-0.815870836195971,5910.491967192706
0.296,-1.0135847159899374,5895.223706098475
0.3,-1.1226055907254484,5897.56970849503
0.304,-1.1145895653871085,5894.470555812529
0.308,-0.9804286503712385,5902.407824794035
0.312,-0.7329230385085614,5901.055321830176
0.316,-0.4048138538569625,5910.205578249781
0.32,-0.042333667994005,5896.4484394477095
0.324,0.30439869349164134,5901.819715710572
0.328,0.5916836506524166,5896.938936616207
0.332,0.7903332225063536,5900.202455421929
0.336,0.8893043676097904,5890.304189589724
0.34,0.8942243116347558,5892.412970003717
0.344,0.821976583232916,5901.939282824423
0.348,0.6937826507358854,5903.786835284437
0.352,0.5294795688493332,5895.469738687752
0.356,0.3448905582081026,5912.095592860263
0.36,0.15256140388641798,5900.382907151402
0.364,-0.035611945216003686,5890.658877580726
0.368,-0.2062382146879511,5902.768490621023
0.372,-0.3446598088073491,5897.999001155035
0.376,-0.4379166397560395,5897.430601853798
0.38,-0.47910419555490535,5907.286014665913
0.384,-0.4707868730323251,5899.104029335823
0.388,-0.42536595771701796,5905.208294890959
0.392,-0.3617524260728253,5907.791423513596
0.396,-0.29958887407453116,5904.723604427815
0.4,-0.25342915697262586,5893.737180791612
0.404,-0.22912790605586034,5901.430773438443
0.408,-0.22365341313696985,5891.16614837246
0.412,-0.22824464379477247,5895.789446021936
0.416,-0.2334413203118175,5895.471063385752
0.42,-0.2334282493078856,5895.401640404095
0.424,-0.22740605210137185,5895.753238042998
0.428,-0.217679175523459,5890.25687203188
0.432,-0.20640357712808802,5910.270351224663
0.436,-0.19353489219071449,5905.551126976897
0.44,-0.17714105782163173,5897.5219944578685
0.444,-0.1553215218508802,5894.463549389027
0.448,-0.12804387586858348,5903.548295857404
0.452,-0.09768852213034687,5908.524783364624
0.456,-0.06829083871150027,5890.443181646728
0.46,-0.044250252953361095,5899.756561710731
0.464,-0.029113998697501375,5896.424570355764
0.468,-0.02457795771726975,5896.995202646075
0.472,-0.029893625665734048,5903.847559507079
0.476,-0.04223367699167929,5907.155422253282
0.48,-0.05844175912308229,5901.076094848383
0.484,-0.07769104554972282,5898.57514467667
0.488,-0.10346524353693232,5901.867132134364
0.492,-0.14295992229946042,5909.703806929023
0.496,-0.2031517892993807,5900.431904553377
0.5,-0.2849232231962208,5903.718040017587
0.504,-0.378328096593644,5905.5048552971375
0.508,-0.46215008330521623,5909.704735699568
0.512,-0.5091200413752884,5896.378295467151
0.516,-0.4952999128307851,5892.287848705627
0.52,-0.40979930051480784,5896.873191556737
0.524,-0.26064308879879106,5899.171973192673
0.528,-0.07431610162199767,5900.485157156654
0.532,0.11093338748875362,5895.436506096156
0.536,0.2557146323226341,5897.681956164752
0.54,0.33037830279223757,5909.123910047881
0.544,0.3223974540595647,5897.186254482914
0.548,0.23787172527776818,5900.655089267108
0.552,0.09729610351599562,5898.899072514162
0.556,-0.07190623698496552,5901.507896364986
0.56,-0.2427841655895717,5897.068812550699
0.5640000000000001,-0.3939424334216596,5901.176576044402
0.5680000000000001,-0.5118689340686259,5899.080395544853
0.5720000000000001,-0.5911726621810803,5897.7652473536245
0.5760000000000001,-0.6334245945935253,5892.387818835841
0.58,-0.6450471060926654,5899.177805166358
0.584,-0.6347807080024201,5895.013609979968
0.588,-0.6113509238825033,5897.654921764261
0.592,-0.5817931506196103,5890.786807831638
0.596,-0.5507517617793218,5902.250611668374
0.6,-0.5209494567292587,5899.616194035884
0.604,-0.49455075089118733,5899.854602990609
0.608,-0.4745141170129853,5903.807829607881
0.612,-0.4648889150554915,5891.092285098357
0.616,-0.46952785335920577,5900.8228185111775
0.62,-0.4895429291303588,5900.57587723772
0.624,-0.5207021381520921,5895.991066034201
0.628,-0.5523593523018595,5904.568363116942
0.632,-0.568972683410008,5893.125821772665
0.636,-0.5540913482796075,5908.583431027016
0.64,-0.4957037067829842,5909.852051302146
0.644,-0.39135296613157605,5898.056703929584
0.648,-0.2512337546746171,5899.135807265347
0.652,-0.09776223064881598,5896.22755957241
0.656,0.03875887701790455,5899.961644876897
0.66,0.12728188941426388,5903.966582920801
0.664,0.14404593206707558,5897.1154864842265
0.668,0.0795298457268639,5889.32949688693
0.672,-0.057530322339693026,5897.750019746105
0.676,-0.24065677418493345,5906.162223152761
0.68,-0.43133596361354337,5894.508107401621
0.684,-0.588848634860744,5897.947845408089
0.6880000000000001,-0.6813425710923421,5894.195245860604
0.6920000000000001,-0.6944790012430638,5899.112343943564
0.6960000000000001,-0.6348832380338824,5904.032426552852
0.7000000000000001,-0.5276194423224415,5899.147617238891
0.704,-0.4086892700788395,5896.181911946075
0.708,-0.314622239619703,5903.175926216657
0.712,-0.2720141565142795,5901.168682307984
0.716,-0.29030608970926625,5900.249663485666
0.72,-0.36025732056585713,5893.014194069405
0.724,-0.45825911403924313,5903.8399596508325
0.728,-0.5542701227034185,5909.202814728282
0.732,-0.6202996676428443,5897.510599252826
0.736,-0.6370467800084675,5907.031280206955
0.74,-0.5974102118330936,5901.880479986726
0.744,-0.5065157613788295,5903.8638904596
0.748,-0.3788654860948173,5901.007084204311
0.752,-0.23408664280318212,5899.937649770115
0.756,-0.09286932404662476,5896.244451929703
0.76,0.026077312631300798,5908.763603084785
0.764,0.10802594322683592,5903.720701301268
0.768,0.14345055441079532,5895.014626252751
0.772,0.12877961348820885,5899.08471262234
0.776,0.06704723679843633,5895.1610718661095
0.78,-0.031488508287159656,5896.798761514793
0.784,-0.14943542236445326,5902.472452484257
0.788,-0.2642255057154933,5903.160851645064
0.792,-0.3525251868131685,5899.51456736294
0.796,-0.3961924599715731,5896.197857254085
0.8,-0.38755305320707273,5887.756119879585
0.804,-0.3316270702401681,5902.921919635704
0.808,-0.2441828704441478,5894.541843151164
0.812,-0.14642303239375107,5902.044046467973
0.8160000000000001,-0.058497053507096705,5901.758280413504
0.8200000000000001,0.005862451311123334,5901.313368408732
0.8240000000000001,0.0420322642108958,5904.35056891571
0.8280000000000001,0.0538203360137644,5903.689026090427
0.8320000000000001,0.049715056508046716,5900.94703986508
0.836,0.03765846909047942,5900.882636605271
0.84,0.020756125577708274,5897.102818104549
0.844,-0.004179254847099404,5895.78788118083
0.848,-0.04483093162460034,5900.158435742883
0.852,-0.1092820272185814,5901.953531009194
0.856,-0.20130439291511706,5904.5734316504095
0.86,-0.31679935162917744,5901.578513900332
0.864,-0.44261076159366264,5901.201819604891
0.868,-0.5580212537040661,5901.726420558853
0.872,-0.6385420350026612,5898.55184466456
0.876,-0.6612575039642911,5897.655008388435
0.88,-0.6106685379867732,5899.783694763227
0.884,-0.4837230091606789,5893.899919463594
0.888,-0.2927562074868892,5895.68271881105
0.892,-0.065223210092212,5902.222488792187
0.896,0.16062226754654713,5894.414464842866
0.9,0.34407015745227915,5904.148000923627
0.904,0.45268544086092083,5906.441003411973
0.908,0.47217637040719823,5908.417384009254
0.912,0.4115370276673547,5897.973299290468
0.916,0.3008511372909957,5909.093848498683
0.92,0.18208393798795391,5902.892990128388
0.924,0.09614856478562175,5898.112758485265
0.928,0.07075315446687566,5905.6996908895
0.932,0.11283257669690448,5895.207258861208
0.936,0.20762649413411718,5903.468976008646
0.94,0.32429223115157785,5895.727946072131
0.944,0.4257623661991593,5902.974356060973
0.948,0.47926124356874233,5902.692802654847
0.952,0.4642642961268236,5903.024605333376
0.956,0.37630753977287307,5902.971625514805
0.96,0.22660474868808672,5901.303185691179
0.964,0.03817887500785404,5896.2667526716805
0.968,-0.1603896314044331,5900.858992912813
0.972,-0.34196660156831454,5897.025562315492
0.976,-0.4866583255417169,5905.98506198758
0.98,-0.5848192921486997,5897.301932117563
0.984,-0.6367954545370724,5900.0435458854
0.988,-0.6502225692145273,5904.185617128816
0.992,-0.6363999494029827,5903.532330064141
0.996,-0.6069681772820589,5898.573898671992
1.0,-0.5714604164913726,5907.368005239735
1.004,-0.536066150420791,5904.370031629692
1.008,-0.5039021846819688,5890.978094778854
1.012,-0.47656276740892767,5901.920272691042
1.016,-0.4559346005924726,5890.464337549474
1.02,-0.44505977675683284,5892.6506365840105
1.024,-0.44748150315519586,5895.837199858565
1.028,-0.4654434511523056,5898.790100827001
1.032,-0.49791319269309514,5900.656622513715
1.036,-0.539490985083806,5897.478343971055
1.04,-0.5808657657240061,5907.610631743094
1.044,-0.6107003955254091,5896.653233739891
1.048,-0.6181384444457041,5895.225969824073
1.052,-0.5950760150224075,5893.776193065471
1.056,-0.5378442666944379,5906.533984267859
1.06,-0.4483537180032093,5898.693945313808
1.064,-0.33468516798471215,5907.815197035877
1.068,-0.21078535602902496,5901.099630906725
1.072,-0.09477976438830005,5896.3104672147865
1.076,-0.0057640454101774465,5899.986354625452
1.08,0.040315534446323624,5898.947108671374
1.084,0.034520198480653456,5902.73494623115
1.088,-0.022516338475369286,5902.1992241320095
1.092,-0.11979623049885638,5903.285553238413
1.096,-0.23718528580513354,5898.444277328862
1.1,-0.34893316154701315,5888.236017792456
1.104,-0.4292760507177538,5892.173108126344
1.108,-0.4588941856470095,5898.559460374719
1.112,-0.430336689296108,5905.568433192618
1.116,-0.35069164439068545,5903.73267750068
1.12,-0.24052027885956706,5897.094145025837
1.124,-0.12915362185712828,5907.998294331653
1.128,-0.04761940669595225,5893.661332907446
1.132,-0.02120031548617848,5894.892653573448
1.136,-0.06357338514203627,5901.189610375958
1.14,-0.1738539262422905,5903.743835078901
1.144,-0.3370267492867274,5895.392511294741
1.148,-0.5273068930818133,5906.968460974596
1.152,-0.7131719917379336,5899.265818037177
1.156,-0.8627129694080976,5899.879189930689
1.16,-0.9486060060865663,5899.4894270909335
1.164,-0.9525391785757187,5900.192991858136
1.168,-0.8687198102442312,5897.784100142629
1.172,-0.7056717277398026,5901.58802798764
1.176,-0.485618034942736,5900.720643084721
1.18,-0.24128442623978014,5895.78135892474
1.184,-0.010561216524405996,5895.666157008371
1.188,0.1700860025242782,5907.992372652202
1.192,0.2723307644044409,5893.667448162689
1.196,0.2816270253077422,5893.672563473033
1.2,0.200639073767749,5897.200065417901
1.204,0.04956275309026144,5895.36605682199
1.208,-0.13714276723960928,5899.903517986586
1.212,-0.3173867597462029,5896.654615732672
1.216,-0.45007368965881356,5892.546278837413
1.22,-0.5033509128195707,5891.9605858605255
1.224,-0.4602734296461905,5892.2238753967085
1.228,-0.321057230902323,5889.949827844571
1.232,-0.10241612727443562,5891.690698863964
1.236,0.16528647426663437,5891.938453632884
1.24,0.4428652481203376,5892.505901433412
1.244,0.6890781024501512,5894.354482169468
1.248,0.8684743667984067,5901.83042226032
1.252,0.9582586624435713,5897.837691548665
1.256,0.9518138844625141,5899.419437185203
1.26,0.857884589854766,5897.951114842243
1.264,0.6965300735541305,5897.837499323864
1.268,0.4940694349669049,5904.724031485353
1.272,0.27857304294755014,5904.60815780059
1.276,0.07592231246228628,5897.450095323768
1.28,-0.09419676594462857,5903.31562586115
1.284,-0.22191368488688712,5901.763547323852
1.288,-0.30833371660145814,5897.326921829435
1.292,-0.3622602460929014,5896.521410199866
1.296,-0.39277717237460946,5902.498584739118
1.3,-0.4003668002194289,5904.780183145846
1.304,-0.36984489931770137,5905.220321215924
1.308,-0.2676306167741375,5898.304124581667
1.312,-0.044986059241011046,5891.201383353765
1.316,0.35197229694438686,5901.919509905905
1.32,0.9661756403241536,5897.628579744294
1.324,1.8106466177653395,5902.415210684687
1.328,2.8527905478559217,5892.226436952692
1.332,4.009335240927311,5907.830283117567
1.336,5.157098608159275,5907.744318502152
1.34,6.1588992779037515,5887.9144553109545
1.344,6.896961423199396,5899.148522400797
1.348,7.302105440017333,5901.034419562944
1.352,7.368477204046259,5902.988276927391
1.356,7.14972581199935,5896.171303767328
1.36,6.739943371881494,5892.99638535897
1.364,6.247686219596176,5901.126631596751
1.368,5.772018827011922,5901.22798107184
1.372,5.386306329254886,5893.203878936386
1.376,5.131095350221711,5901.686854602809
1.38,5.014521000761781,5903.719461564737
1.384,5.0178577762124,5899.535902373363
1.388,5.104010190400939,5893.825868397904
1.392,5.226994656914512,5894.986109477821
1.396,5.340733180364037,5905.789158057604
1.4,5.405930499920333,5906.72944940972
1.404,5.394438578321367,5892.695754076826
1.408,5.291283684609333,5908.2207831884325
1.412,5.095209599053955,5898.298208655749
1.416,4.818528127164492,5901.284854376265
1.42,4.4860206980515835,5902.850775824825
1.424,4.131705606166655,5912.335902008181
1.428,3.7928043264964284,5891.222654926484
1.432,3.5019011813920398,5900.680081400281
1.436,3.279614696959407,5897.607758630543
1.44,3.130212539406375,5898.907379756571
1.444,3.0416104906263692,5896.57697232299
1.448,2.989639210415864,5892.191884069112
1.452,2.9451116169690232,5895.621166887112
1.456,2.8816805627876723,5910.535984009763
1.46,2.7826189258735896,5899.8164255939
1.464,2.6449432102161254,5907.206425171712
1.468,2.47963738896096,5903.105163251903
1.472,2.307575561978003,5888.799833041407
1.476,2.1522362236358044,5904.310516660371
1.48,2.031689112688723,5902.593826239934
1.484,1.9526628002948663,5901.688094056231
1.488,1.9086025847245809,5904.72285279016
1.492,1.8821251947323572,5902.979302055104
1.496,1.850924361427855,5892.5185442212605
1.5,1.795278378068088,5897.13028020123
1.504,1.7047404930741168,5897.099373834161
1.508,1.5815523096617603,5904.077732153532
1.512,1.4393723780465593,5892.754994239717
1.516,1.2979126516430843,5901.564338410744
1.52,1.1758653303138396,5911.419630838884
1.524,1.0850637461986699,5898.0951026828425
1.528,1.0280888205220833,5898.601887374431
1.532,0.9999989451008733,5898.422298203729
1.536,0.9930702431910062,5893.6591346721125
1.54,1.0020026918047344,5904.100021782171
1.544,1.0267116039783923,5903.313486147363
1.548,1.071092922926318,5903.865176553192
1.552,1.138599215647959,5898.370707790356
1.556,1.2274310681533502,5892.986261056557
1.56,1.3280372365403108,5895.713783664844
1.564,1.423820184136919,5897.686764906572
1.568,1.4944203071224493,5889.224342106731
1.572,1.5206187196160001,5895.309374642648
1.576,1.4898174701031939,5898.883881003398
1.58,1.4004685504315737,5889.777737274194
1.584,1.2634580207836967,5887.135600478951
1.588,1.0993074696684568,5891.462622893358
1.592,0.9319764333234559,5885.850291504107
1.596,0.7818563048427464,5889.126104159035
1.6,0.6609673581387135,5885.591788715016
1.604,0.5720226431742078,5888.072333637726
1.608,0.5108880751762669,5882.057906686886
1.612,0.470535088368224,5881.984817633062
1.616,0.4444940490560415,5894.617933276939
1.62,0.42874175584996865,5884.650286173132
1.624,0.4221628719419504,5881.934237643481
1.628,0.42632797945396844,5871.610997705085
1.632,0.4449422951684926,5884.734943756424
1.636,0.48270330532327144,5879.09684474685
1.64,0.5433948046872237,5866.942483561255
1.644,0.6276193298014772,5880.765173123569
1.648,0.730872875085555,5880.723253973248
1.652,0.8425828578813291,5874.436849016813
1.656,0.9465622143354435,5884.443077832728
1.66,1.0231487243210147,5878.922278315189
1.664,1.0530062630470751,5870.938881511113
1.668,1.0220857457185564,5878.793951640018
1.672,0.9265798819540575,5876.246266884521
1.676,0.7761398744153658,5880.537832395747
1.68,0.5936641432209888,5872.552595560766
1.684,0.4109161888801376,5871.695412406201
1.688,0.2608001598964251,5878.957845336832
1.692,0.1684985103941662,5867.578814476465
1.696,0.1441216407612135,5877.345788975856
1.7,0.17912004673668058,5869.589899127494
1.704,0.2479981261074639,5872.50444345294
1.708,0.31570975961475506,5873.372421294836
1.712,0.3490244252344278,5869.406834467023
1.716,0.3279089803753247,5869.99527570707
1.72,0.2524337174726475,5873.000197148146
1.724,0.1425289694647136,5874.4061415344295
1.728,0.030786146878817474,5870.240303594948
1.732,-0.04905704288463877,5872.218266320472
1.736,-0.07383429261348348,5870.5962310541445
1.74,-0.038618091577984626,5868.63267164634
1.744,0.04233930992547518,5857.130005552651
1.748,0.14126128294792503,5865.638799371965
1.752,0.22635330820830948,5862.277186758545
1.756,0.27131268142293236,5859.993099970203
1.76,0.26184504420958354,5869.466437097436
1.764,0.198202874005569,5860.02906184346
1.768,0.09433463539234745,5854.432243735104
1.772,-0.025451767058244507,5867.519345137151
1.776,-0.13165384875525735,5868.75697512459
1.78,-0.19579480836593122,5857.160158321671
1.784,-0.19648820025040498,5865.357791420289
1.788,-0.12396339269307181,5865.864758356709
1.792,0.01792181796380582,5862.519776247412
1.796,0.21230059823564876,5862.395979253624
1.8,0.4318439089346579,5867.611117814899
1.804,0.6423044900951862,5870.631954709356
1.808,0.8066518390235154,5855.6560710472695
1.812,0.8900819900371064,5858.515448746662
