时间(s),电压(V),幅值(高频80K)
0.0,0.13310154395823595,5903.6019060373455
0.004,0.08635792454522452,5898.4473937308685
0.008,0.025831096463374344,5897.035653592122
0.012,-0.058832969362957774,5912.14202689949
0.016,-0.16883936843693437,5904.297465489945
0.02,-0.295653028357087,5894.455735440707
0.024,-0.42337510302724085,5902.073482918561
0.028,-0.5334303281903247,5901.991838022368
0.032,-0.6103136017274905,5894.8153058952485
0.036,-0.6463646643587547,5906.761475883638
0.04,-0.6434054070371719,5889.558330463167
0.044,-0.6104365084996337,5898.822644146483
0.048,-0.5588057655281589,5899.377748489307
0.052,-0.4975554993800171,5892.808529740025
0.056,-0.4310966786987187,5907.445318301034
0.06,-0.3597456403382597,5900.390186011402
0.064,-0.2823037371709892,5896.515079846473
0.068,-0.1992212960194699,5902.63086619866
0.072,-0.11480562104065492,5901.360693073552
0.076,-0.03740042642774481,5895.103999714465
0.08,0.022532595346991875,5906.3987575049305
0.084,0.0554552031788209,5895.767977805001
0.088,0.05553173145576618,5903.395686312254
0.092,0.02217887930665546,5912.172115700932
0.096,-0.039775621253794316,5901.437049363893
0.1,-0.1209506052506641,5898.695422246781
0.104,-0.20892102430631582,5903.693461336592
0.108,-0.2902642339448311,5903.745278012193
0.112,-0.3530172411079567,5888.458908305286
0.116,-0.38904728680652695,5895.195559282464
0.12,-0.3955537303014882,5900.967019440217
0.124,-0.37520809478630546,5901.131584710671
0.128,-0.33516745818019295,5895.126772573187
0.132,-0.2856618892405881,5900.574534120012
0.136,-0.23857513086788062,5906.138460972415
0.14,-0.20576378780534735,5903.361720387682
0.144,-0.19668542090859817,5902.231892190238
0.148,-0.21563229958167104,5896.308533538555
0.152,-0.25981287763937394,5904.541755465176
0.156,-0.3196232534368495,5890.115045926168
0.16,-0.3814495236471899,5905.690940956895
0.164,-0.43199327649040103,5899.910895894386
0.168,-0.462340068783697,5893.4270021216
0.172,-0.4701524748799929,5900.613201077857
0.176,-0.4592666084516692,5896.319655145713
0.18,-0.4371564823753812,5901.596381917543
0.184,-0.41162513007473606,5902.593544110423
0.188,-0.38819159828441463,5899.982624699556
0.192,-0.3690086741515523,5897.733279836079
0.196,-0.35332671641239954,5894.376993784847
0.2,-0.3389778128519803,5901.752984127752
0.204,-0.32415239024568315,5895.479727554565
0.208,-0.3087979259944494,5893.172340545024
0.212,-0.29518642260869576,5900.544356630206
0.216,-0.287400984827729,5904.578216256834
0.22,-0.28970307293907904,5900.6919738182405
0.224,-0.30422433251898107,5900.166170367602
0.228,-0.3290741144106854,5903.847903252055
0.232,-0.3580913493822166,5901.094651469923
0.236,-0.38265658556736826,5896.424710472789
0.24,-0.3946930151871207,5896.639852642303
0.244,-0.38927801639459675,5903.983316203844
0.248,-0.3657404986491929,5901.425221910002
0.252,-0.3271737033851637,5903.935556608107
0.256,-0.27895118241086936,5897.616328542613
0.26,-0.22688940083093515,5899.138086095736
0.264,-0.17563159787120694,5903.895737151461
0.268,-0.12780923201201297,5901.378098077323
0.272,-0.0843574794342024,5902.670490809202
0.276,-0.045948259477888394,5892.3630355654
0.28,-0.014984778674149166,5906.614523036765
0.284,0.0028015575390335184,5903.209608738677
0.288,-0.001883437732111324,5897.3624369381605
0.292,-0.040227892244935275,5903.931104135255
0.296,-0.12177041595732928,5906.048779141179
0.3,-0.2496476655911779,5905.659318106968
0.304,-0.416181886467964,5902.691649757762
0.308,-0.6011234350528222,5901.806874636593
0.312,-0.7744485688423854,5907.131246348697
0.316,-0.903566747548469,5901.402832120709
0.32,-0.9623152129406415,5901.602075644104
0.324,-0.9380950938271215,5906.362542492252
0.328,-0.8346355365435677,5890.512189889516
0.332,-0.670146594138589,5897.963605188939
0.336,-0.4724149993773219,5900.331303702404
0.34,-0.2728525415556476,5894.076560775545
0.344,-0.10093663809254437,5896.003095716051
0.348,0.020270304743911303,5905.233236693292
0.352,0.07720776334223632,5899.288641102402
0.356,0.06723512485024917,5899.103022609999
0.36,-0.0017388390767122642,5892.1311319134265
0.364,-0.11308107747272018,5901.296051438512
0.368,-0.24409271259625837,5895.272240584968
0.372,-0.3691917009487913,5907.758818477671
0.376,-0.4637839441044718,5902.8421261094645
0.38,-0.5088189274862776,5897.204019333722
0.384,-0.49520555944389094,5898.991695497301
0.388,-0.426569853385508,5889.0296352356745
0.392,-0.3189262798975039,5901.9257982246245
0.396,-0.1968215840164824,5895.757078137807
0.4,-0.08697921263662602,5893.083700884777
0.404,-0.011569511342743774,5899.367254061551
0.408,0.01673324539433479,5892.993357314756
0.412,-0.0033885997954675815,5897.127110359919
0.416,-0.06329216141851436,5907.348573236964
0.42,-0.14815581129641614,5897.409185277183
0.424,-0.24148718202572136,5892.915479407659
0.428,-0.3286578273812534,5908.057323073488
0.432,-0.3986942034742739,5894.277753307921
0.436,-0.4447256954251178,5895.996988918408
0.44,-0.4639384132043883,5906.010443571191
0.444,-0.4575190763828773,5904.626100009515
0.448,-0.43053019480286164,5901.988205748072
0.452,-0.3913547299737883,5895.518018076911
0.456,-0.3502868335264918,5897.287167064806
0.46,-0.31711289924979275,5906.435109820811
0.464,-0.2982412840365494,5894.610551389384
0.468,-0.294651311802595,5896.54683651448
0.472,-0.30183130131765495,5898.235748329742
0.476,-0.31179052316879396,5901.5366213804655
0.48,-0.31602264535594865,5892.915492944708
0.484,-0.3080446583738336,5894.645675580001
0.488,-0.28491294925928795,5896.625048958356
0.492,-0.24789191139210226,5907.979209509218
0.496,-0.20243071463796308,5902.117769048884
0.5,-0.15720033174167447,5903.074554275001
0.504,-0.12200971335371323,5904.430564409434
0.508,-0.10508826100207265,5908.289249843417
0.512,-0.1107931780052139,5897.893869293625
0.516,-0.1386328752762629,5895.706704504755
0.52,-0.1837933440858199,5902.76813148889
0.524,-0.23878046400597472,5900.958923938124
0.528,-0.2955412451885871,5905.862805191041
0.532,-0.34729770440525654,5907.91490502842
0.536,-0.389431094750742,5894.778107887902
0.54,-0.41931526921414997,5901.677043862389
0.544,-0.43566990757196716,5903.842285650519
0.548,-0.4381691048892481,5900.450065777132
0.552,-0.4276186613868116,5893.933449001536
0.556,-0.40643975557599504,5899.11989359589
0.56,-0.37884788961152044,5909.654420265508
0.5640000000000001,-0.350164069555716,5898.398405649956
0.5680000000000001,-0.3251547042698654,5910.068548493856
0.5720000000000001,-0.3059483835024386,5897.462634967125
0.5760000000000001,-0.2905454696624895,5899.9950490364845
0.58,-0.2729189736869893,5904.069662236976
0.584,-0.2451028456257106,5900.337627171824
0.588,-0.2006702767395857,5894.674738829285
0.592,-0.13816556400448995,5913.803846211578
0.596,-0.06294663684005514,5904.4717790479
0.6,0.013446313757859308,5896.400283706652
0.604,0.07633323133508638,5898.839335868019
0.608,0.11238566603367732,5901.996154955378
0.612,0.11389501707380556,5900.400000628966
0.616,0.08104088398365897,5893.320594794144
0.62,0.0212906980194638,5896.860184562624
0.624,-0.05344553699760404,5896.568640209015
0.628,-0.13032589301426012,5904.364592477895
0.632,-0.19839348046405716,5901.06342128596
0.636,-0.25024455419475894,5894.88589452298
0.64,-0.28276818206698984,5897.052115854407
0.644,-0.29726013359851977,5894.941553014601
0.648,-0.2989488821744524,5900.610193624482
0.652,-0.29577569476779814,5904.822072884531
0.656,-0.29639354321078093,5899.310691948551
0.66,-0.30771846807709763,5896.468385681655
0.664,-0.33275599264118016,5901.419610573625
0.668,-0.3696460982029178,5896.148046849184
0.672,-0.41263881156482074,5889.697076490471
0.676,-0.45483131261625925,5897.261284291032
0.68,-0.4914173958699618,5904.821396718187
0.684,-0.5217843438043533,5898.537157282053
0.6880000000000001,-0.5493537725991225,5905.051819733512
0.6920000000000001,-0.5791651623447143,5892.660033820355
0.6960000000000001,-0.6143078805895773,5898.299792689961
0.7000000000000001,-0.6530024482562646,5903.335451440716
0.704,-0.6879591444662913,5895.046099920369
0.708,-0.7085048214541397,5905.289623980225
0.712,-0.7045118055728009,5903.243704178918
0.716,-0.6703105084250243,5885.54109458216
0.72,-0.606993304743663,5903.808752479063
0.724,-0.5224784626109096,5918.147041457976
0.728,-0.4295423582907451,5898.544975692845
0.732,-0.3423760351297181,5905.486135524658
0.736,-0.2725218161287887,5914.955718091978
0.74,-0.22547314118005146,5895.237481135448
0.744,-0.19919612157203473,5905.322106817903
0.748,-0.18507417712209276,5897.313583850052
0.752,-0.17082010736389805,5899.207243656644
0.756,-0.14431229929081937,5900.700796355586
0.76,-0.09722919982563777,5903.850122963358
0.764,-0.02762316296775451,5905.113652522641
0.768,0.05913158619993803,5895.253190355234
0.772,0.15138832411101644,5894.883405103628
0.776,0.23421725784662775,5904.563538109991
0.78,0.29342941352312657,5899.0160192714975
0.784,0.31903369767767753,5890.45223544178
0.788,0.30675767347813804,5896.707566741215
0.792,0.25742535915746095,5906.21954711392
0.796,0.1752081347622525,5899.02965129069
0.8,0.06613505386898492,5904.819341783563
0.804,-0.062358349681560746,5907.802844596954
0.808,-0.201026887992526,5902.059616870794
0.812,-0.3383827704813582,5905.622454390522
0.8160000000000001,-0.46108713624500947,5908.847405580023
0.8200000000000001,-0.5555321534658416,5899.28495565627
0.8240000000000001,-0.610320681842172,5896.5276905346645
0.8280000000000001,-0.6189306637514517,5909.47864448204
0.8320000000000001,-0.5818132344843521,5908.304532891326
0.836,-0.5072909225386097,5901.55288616133
0.84,-0.4107429342607951,5895.373092877757
0.844,-0.3118960291008302,5891.792273614271
0.848,-0.23067507051135253,5907.098864812365
0.852,-0.18264673692261632,5899.091102629241
0.856,-0.17527739590452615,5903.107195149773
0.86,-0.2060568734167731,5897.939125176247
0.864,-0.2630980939282148,5897.117681500302
0.868,-0.32812212422458964,5898.070091205811
0.872,-0.3810083228939465,5898.217828848668
0.876,-0.40468373086862336,5893.706331703982
0.88,-0.38916371870958166,5906.465854523275
0.884,-0.333904124608595,5906.548450951877
0.888,-0.2480468809269847,5903.997262123161
0.892,-0.14847311142171482,5889.190698423474
0.896,-0.05595579739831173,5898.337197699195
0.9,0.009690595366656313,5903.5601354173
0.904,0.03405616226722813,5897.979006734787
0.908,0.010920963970816256,5906.302344006407
0.912,-0.05708326823152064,5897.374289295008
0.916,-0.1595895830914519,5898.849422935379
0.92,-0.2807090561475024,5900.1069484764985
0.924,-0.40177978561080013,5906.986539249533
0.928,-0.5043613226872286,5907.001189397057
0.932,-0.5732778109883011,5896.41067549123
0.936,-0.5992991772863855,5903.573901916569
0.94,-0.5807671016040012,5901.306460280758
0.944,-0.5235390005753671,5900.279376167483
0.948,-0.439151915880542,5899.36140754144
0.952,-0.3417859035123,5895.018050083631
0.956,-0.24506475343436943,5897.265108942623
0.96,-0.15977867465123444,5901.561708816274
0.964,-0.09316218757679373,5898.365856775399
0.968,-0.04950173615016845,5895.1782151488
0.972,-0.031070856052583237,5899.887225640306
0.976,-0.03834938234621749,5894.413776989244
0.98,-0.06925392498775525,5902.346751235988
0.984,-0.118034866387125,5897.663742054551
0.988,-0.17496230339056246,5902.567011018642
0.992,-0.2277374716407244,5901.509357894321
0.996,-0.26472322681281213,5897.977797270602
1.0,-0.2789258475520098,5903.105566398364
1.004,-0.27093763431780854,5895.322465075918
1.008,-0.24926288015798626,5900.186847952181
1.012,-0.22746408709772253,5895.42181387469
1.016,-0.21894978034634643,5902.268776790293
1.02,-0.23139429819982887,5901.537085519565
1.024,-0.26306701611087163,5895.76171395142
1.028,-0.30256634859265913,5901.293655245202
1.032,-0.3321596447814017,5904.4834426880925
1.036,-0.3337659360506262,5900.337035327775
1.04,-0.29576250958586775,5897.107648085622
1.044,-0.21832312869558926,5896.6297196860005
1.048,-0.1152255233738904,5897.91213307046
1.052,-0.011179944505471592,5895.787948119916
1.056,0.06463333563846269,5894.131619589039
1.06,0.08673266561287384,5894.127631185318
1.064,0.040654557768044434,5899.488144819795
1.068,-0.07257132580057686,5903.814556050136
1.072,-0.2357506078364213,5910.506879654152
1.076,-0.41867408128554895,5913.455182637298
1.08,-0.584344639902227,5905.439433132608
1.084,-0.6968825490885106,5892.931827779284
1.088,-0.7293418857284768,5900.169233272116
1.092,-0.6697484466231013,5901.173510838044
1.096,-0.5240896318777634,5904.547278847728
1.1,-0.3156272438200597,5896.30524272654
1.104,-0.0807070189083915,5893.586503489654
1.108,0.1379988019494386,5902.43570574919
1.112,0.2994335007788277,5903.115853345607
1.116,0.37191151988749155,5901.393259643808
1.12,0.3397617994680004,5899.51786331423
1.124,0.20848941158981513,5894.577822527897
1.128,0.008178754589250709,5901.410290136314
1.132,-0.20569200152939673,5903.504529368147
1.136,-0.35552134891137704,5901.640563324855
1.14,-0.3505506676103761,5898.9706491990055
1.144,-0.10233574298981231,5898.063815273735
1.148,0.4544106208318121,5888.391729400853
1.152,1.3397194599235636,5892.691429635816
1.156,2.512107353656941,5907.9488175700135
1.16,3.866249879327002,5907.30492140295
1.164,5.249650714261409,5903.485293048918
1.168,6.496062076184504,5904.8530135914725
1.172,7.465118043746741,5893.890799028048
1.176,8.073962489362492,5906.1468824814765
1.18,8.31046926062362,5912.9716140903465
1.184,8.226079836346177,5896.484024919932
1.188,7.913876071281333,5902.715171713442
1.192,7.481046278310355,5895.898722500456
1.196,7.024340717479537,5900.335328036576
1.2,6.613983115904732,5908.078586743088
1.204,6.287697953745188,5897.878373042073
1.208,6.053483700977839,5891.236012161599
1.212,5.898046762958973,5906.3216258306775
1.216,5.797255217449803,5909.530434860242
1.22,5.725300263999016,5898.026290227252
1.224,5.660365397699959,5906.257164732901
1.228,5.586354132926492,5891.106265566388
1.232,5.491959463363061,5907.43094123153
1.236,5.369093668597121,5891.680329063645
1.24,5.212120006022398,5901.479439845738
1.244,5.018164539414521,5899.655961662929
1.248,4.787987428904022,5894.780501400635
1.252,4.526762903359415,5904.001372878158
1.256,4.244294057240182,5895.233983420589
1.26,3.954285032726745,5906.979172523284
1.264,3.6723947567982957,5902.982997585952
1.268,3.413191671456048,5907.958238885491
1.272,3.186774900670316,5905.389462137895
1.276,2.996330442866071,5901.468727911871
1.28,2.837802575844351,5898.335399268946
1.284,2.702015822377254,5898.256394640401
1.288,2.57842329552459,5907.492554153389
1.292,2.4589655097439422,5897.86798031395
1.296,2.3406292184825985,5903.677776962373
1.3,2.22589274211153,5898.392347903541
1.304,2.1209864081431835,5901.335173136472
1.308,2.032669642765706,5902.320105317293
1.312,1.9648454079727407,5903.081170502545
1.316,1.916460196698441,5895.375282757672
1.32,1.8815771361387466,5905.771906230016
1.324,1.8514351548236858,5904.934650582261
1.328,1.8173187490182212,5898.799302320033
1.332,1.7728641284211184,5894.049609326748
1.336,1.715087938727168,5889.792040489296
1.34,1.6442436434022434,5896.62791521546
1.344,1.562981061626565,5912.076469244834
1.348,1.4752351237012384,5908.2978416553415
1.352,1.385082629196153,5896.515233912746
1.356,1.2956605837181563,5902.5470318165
1.36,1.2082579423586661,5892.1834030773525
1.364,1.1218774170540813,5908.969513403939
1.368,1.0336555847398077,5892.489210431989
1.372,0.9402460290484306,5892.809294577836
1.376,0.8397310241182226,5889.47704042671
1.38,0.7332771163624894,5897.199088390645
1.384,0.6258680248721393,5888.867023245999
1.388,0.525869131940408,5892.173364188165
1.392,0.4434686198256845,5889.706601636606
1.396,0.3880584893910788,5898.532130488011
1.4,0.36482737276414723,5882.548667770671
1.404,0.37159544164354535,5887.563979131629
1.408,0.39759969512974364,5885.251832784625
1.412,0.4255084227737669,5888.24992122925
1.416,0.4364222429911887,5887.572334667126
1.42,0.41613403524108994,5879.775217184466
1.424,0.3603594409831936,5884.114808865441
1.428,0.2769907591576967,5887.580063017007
1.432,0.18435008976216394,5893.239058380147
1.436,0.1057512323519045,5878.965950245632
1.44,0.06209751146047744,5885.313821918333
1.444,0.06510704355151366,5872.376116215685
1.448,0.11357859856420209,5887.168614667783
1.452,0.1939866072265973,5884.680865454266
1.456,0.28510567883395294,5881.372957262416
1.46,0.3648153284853879,5880.930099399131
1.464,0.41635403915973224,5878.915783201596
1.468,0.43174980862873036,5880.244099597197
1.472,0.41183676757679866,5881.011890788804
1.476,0.36396554153683275,5884.601174828439
1.48,0.2990422423680233,5871.454462776012
1.484,0.2288849013853122,5870.869010941326
1.488,0.16402805025825606,5872.405040252309
1.492,0.11186486627318082,5875.755417092713
1.496,0.07535987474161615,5877.667269567025
1.5,0.05281830476264681,5869.555977386017
1.504,0.03891885253208067,5863.521248718464
1.508,0.02670823321799126,5873.400583399784
1.512,0.01002609227201232,5865.344475931816
1.516,-0.014142518028817714,5870.370280150422
1.52,-0.043926973890024826,5866.51258807621
1.524,-0.07207730667485476,5866.2380646390775
1.528,-0.08721061509681885,5873.113341750427
1.532,-0.07679769610637625,5863.177496390234
1.536,-0.0312026267455621,5862.81929957224
1.54,0.0524932429396186,5871.369206512632
1.544,0.16829887443424904,5861.238350368176
1.548,0.30171295477135646,5860.439457204015
1.552,0.43276164381498555,5862.924611243298
1.556,0.5407109938752058,5859.437634311967
1.56,0.6088076043329504,5864.673898744992
1.564,0.6274614448675448,5864.081209283356
1.568,0.59520972146316,5873.0234588269095
1.572,0.5180108869980593,5856.639276581308
1.576,0.407917470578343,5865.165914845256
1.58,0.28163716632562885,5848.025700421671
1.584,0.158702101304559,5853.759792135573
1.588,0.05880454967822278,5852.614210830757
1.592,-0.0016684105253895224,5856.337107678428
1.596,-0.013230213157516123,5858.440290543098
1.6,0.024120983200032135,5863.53907209629
1.604,0.10049852786397334,5858.535103372567
1.608,0.19841428435769803,5855.219417424427
1.612,0.2970709806052931,5859.375836341797
1.616,0.37693895836114816,5857.270043537875
1.62,0.4228413248943808,5863.317269259851
1.624,0.4248930382831702,5855.543582698125
1.628,0.3781132088881559,5855.8548490773455
1.632,0.2821318490818169,5858.858897120562
1.636,0.14174064038523906,5856.084134030958
1.64,-0.03210748970683371,5852.506875703005
1.644,-0.22185673810990633,5851.6686873021135
1.648,-0.40436913801996366,5851.231436309037
1.652,-0.5538612358188207,5864.269117120718
1.656,-0.6465345952757344,5857.971717493045
1.66,-0.6658594031132903,5846.603255087178
1.664,-0.6069943672114573,5855.932990777171
1.668,-0.4790010679097604,5856.066246099961
1.672,-0.3040280791785354,5851.054642444807
1.676,-0.11323762628524736,5857.326691801114
1.68,0.059909320811446724,5854.534604158763
1.684,0.187291627592144,5853.373595760296
1.688,0.2521654787255203,5859.373209396386
1.692,0.2513315844895242,5862.736054198444
1.696,0.19274761936884588,5846.3433162352485
1.7,0.09011431186597706,5853.165734860728
1.704,-0.04257980490568505,5858.153899888433
1.708,-0.19391064555429952,5846.715512968709
1.712,-0.3545177207833355,5861.199518416475
1.716,-0.5146002714988793,5856.559037689357
1.72,-0.6617666258184464,5865.046592915943
1.724,-0.7810976028979318,5839.918396611234
1.728,-0.8577639704978542,5849.4901776655925
1.732,-0.8809837524055176,5849.41533437333
1.736,-0.8474857676269433,5845.011964401002
1.74,-0.7631716157877393,5851.92843488627
1.744,-0.6426251589603585,5857.243626169012
1.748,-0.5067702137558635,5859.457441475304
1.752,-0.37927304783262544,5844.584818004922
1.756,-0.2823962545220451,5849.755772656136
1.76,-0.2329586100963246,5845.298350099692
1.764,-0.23902760651371574,5846.201730459733
1.768,-0.2980709804277119,5841.941708277171
1.772,-0.39717692016616873,5841.893756052752
1.776,-0.5154705380997611,5842.751335333419
1.78,-0.6283525955719299,5854.816442164305
1.784,-0.712753669209543,5846.030523627829
1.788,-0.7520834349298219,5846.26687527943
1.792,-0.7393640091446959,5847.539429520313
1.796,-0.6777100016065496,5840.61584105353
1.8,-0.578513304898406,5845.172815859031
1.804,-0.45849119904942476,5845.661543795844
