时间(s),电压(V),幅值(高频80K)
0.0,-0.10367886639400642,5899.154685290839
0.004,-0.08074661466099098,5895.010381569866
0.008,-0.06365670293314908,5896.182663936453
0.012,-0.05788846766775812,5903.468995616051
0.016,-0.06650080217347405,5904.39418380201
0.02,-0.08996904166436434,5895.53137842088
0.024,-0.12691784490740196,5894.45063051443
0.028,-0.1753137608922883,5901.262277789043
0.032,-0.23372019149217166,5891.611653603675
0.036,-0.3019414151796779,5902.25758209885
0.04,-0.38020713195211575,5901.769767486745
0.044,-0.466768611760035,5907.109629820862
0.048,-0.5551971935952543,5892.1314411221165
0.052,-0.6334811182381448,5893.370523204572
0.056,-0.6862104292688461,5901.315656623953
0.06,-0.6991720579134373,5912.971888228724
0.064,-0.6640492934633976,5896.355261051196
0.068,-0.5809075162807641,5913.820500335695
0.072,-0.45771047787439345,5898.888361219506
0.076,-0.3078944381164048,5899.024015249309
0.08,-0.14766866182596736,5902.880885472828
0.084,0.005933891084394074,5900.243903823227
0.088,0.13627704385797296,5902.692929949848
0.092,0.22824626406188814,5907.58413026488
0.096,0.26991330069593367,5895.223528376169
0.1,0.25493938429556784,5897.100713615968
0.104,0.18517430354472325,5888.025963657912
0.108,0.07218214779659093,5906.832557508848
0.112,-0.06364089304107351,5902.383382152451
0.116,-0.19673916467178887,5901.98986128077
0.12,-0.3018373614574812,5901.269100428341
0.124,-0.35936194195163024,5905.705601391155
0.128,-0.3594101659412003,5906.596700117718
0.132,-0.3036441848508085,5907.915107300265
0.136,-0.20492424920688895,5903.93389985519
0.14,-0.08459932929910656,5897.518269860047
0.144,0.03229628129811857,5908.160457890948
0.148,0.12301158277885135,5897.006252534102
0.152,0.17262320562365144,5897.251811387529
0.156,0.17736367631457678,5906.378140038364
0.16,0.14452507561675007,5897.712606691286
0.164,0.08899839855431019,5905.996582820851
0.168,0.02775834478457931,5894.608166398037
0.172,-0.02579836413449951,5901.958124515211
0.176,-0.06577669893458246,5899.016472296895
0.18,-0.09457244906622941,5903.933000282775
0.184,-0.1202593787732664,5894.636063943389
0.188,-0.1519169540812495,5906.988660035876
0.192,-0.1953208551060568,5898.931505863068
0.196,-0.25099752826703686,5896.546527358645
0.2,-0.3149685002213102,5904.276679711099
0.204,-0.3809041183357834,5898.534326146587
0.208,-0.44203333129766104,5891.156918323143
0.212,-0.49201875177621457,5899.033562618813
0.216,-0.5251176332727098,5891.975001347454
0.22,-0.5364315756306798,5911.097646907807
0.224,-0.5228172623719596,5891.861345670913
0.228,-0.48441844171145965,5895.4808240569
0.232,-0.42610749579178875,5898.457221645909
0.236,-0.3578239623770577,5886.080108241342
0.24,-0.29318994423801265,5883.025464839934
0.244,-0.2465434070425625,5899.1405429316
0.248,-0.22907987625512344,5894.707781144685
0.252,-0.2451538429869246,5907.233312707604
0.256,-0.2902039411632811,5901.722137990523
0.26,-0.35172157280704597,5891.148163101038
0.264,-0.4134301882173008,5912.363124374499
0.268,-0.4608568164345827,5897.365737999118
0.272,-0.48543300908266773,5900.836532876733
0.276,-0.4852186169069803,5889.31207332346
0.28,-0.4625387563151046,5904.1057341995165
0.284,-0.42054807388022636,5904.857072609515
0.288,-0.3609540440333404,5900.447960408731
0.292,-0.284048559588808,5905.356247539694
0.296,-0.19069698816733313,5912.601847514637
0.3,-0.08489238704740104,5906.829955534128
0.304,0.02467993970292739,5902.271622503871
0.308,0.12506218031111566,5893.482260555571
0.312,0.2015229006857568,5882.9416565593365
0.316,0.2413173251875909,5889.040157715806
0.32,0.23731949974250238,5898.331403880034
0.324,0.19018142543956007,5894.442976632701
0.328,0.10825820619573871,5899.922813058288
0.332,0.005350219211885599,5895.616848288671
0.336,-0.1029003480861319,5903.622714951478
0.34,-0.202596170846025,5903.163869351056
0.344,-0.28384416316346717,5898.785357894809
0.348,-0.34109574960321176,5898.578535116652
0.352,-0.37193713419380287,5900.047102457463
0.356,-0.37533243621033624,5902.353751155878
0.36,-0.35043864802185765,5897.087119802299
0.364,-0.29679851556393944,5895.307841163453
0.368,-0.2160434992892935,5902.940501567276
0.372,-0.11434236204743403,5895.562628020011
0.376,-0.004076238264923963,5909.71935130535
0.38,0.09691335896699747,5904.470548535243
0.384,0.16931268521260961,5888.007913970106
0.388,0.19862123640832555,5901.512637817488
0.392,0.18102407566027856,5908.790511222004
0.396,0.12576947694035426,5899.738926588128
0.4,0.05261203748949327,5907.728775549404
0.404,-0.014613565956381563,5898.393935266407
0.408,-0.05565853098475675,5906.680411050938
0.412,-0.06013577228717359,5899.342739812401
0.416,-0.030608788526297732,5899.117366512136
0.42,0.01835232646450489,5902.981568739246
0.424,0.06484339112935843,5903.122773019285
0.428,0.08636669861466274,5891.276330321709
0.432,0.06626146537450456,5904.297938858321
0.436,-0.001975790419609409,5900.9177905910055
0.44,-0.11307092337314137,5904.692021761684
0.444,-0.2508914419428411,5895.44548594325
0.448,-0.39157073052357616,5910.2984886272325
0.452,-0.508324954074217,5903.575855506901
0.456,-0.5770518358220232,5900.417817286945
0.46,-0.5814823958565392,5901.387139906618
0.464,-0.5167281433578657,5895.247538052995
0.468,-0.3905276785744416,5900.148090188907
0.472,-0.22207857051590205,5894.372739779243
0.476,-0.03875604575880455,5896.800078788656
0.48,0.12875406425161934,5899.642403622066
0.484,0.2521212885600563,5907.86189612148
0.488,0.3106712002821584,5901.527867944375
0.492,0.29496457155174305,5895.956332562942
0.496,0.20768846385462916,5900.015234121998
0.5,0.061830912528685424,5904.062147790663
0.504,-0.12297884794464264,5891.598114337665
0.508,-0.324753490239366,5901.454748256443
0.512,-0.5230367292378174,5905.693811353705
0.516,-0.7016782120499392,5903.4407009956985
0.52,-0.8500194321124446,5897.134809065401
0.524,-0.9623598136065622,5898.974466156548
0.528,-1.0360785173771623,5898.671708983948
0.532,-1.0692574965211972,5905.772406190719
0.536,-1.0588268229496083,5894.504079216328
0.54,-1.0001002055716648,5895.6500221357965
0.544,-0.8881935254898077,5905.037901933785
0.548,-0.7212172873904563,5899.416230732652
0.552,-0.5043263443497307,5900.505341480408
0.556,-0.25299822192199956,5893.41152445105
0.56,0.006266581618214026,5896.206977390632
0.5640000000000001,0.23900231091281887,5902.1738161236935
0.5680000000000001,0.409423687661564,5904.430775540232
0.5720000000000001,0.48893700146577884,5895.445745978479
0.5760000000000001,0.46381763120129416,5901.422422014585
0.58,0.33947422569153035,5891.3559804483975
0.584,0.13984075065628046,5901.163087484021
0.588,-0.0979660645322993,5902.074208219295
0.592,-0.33212091180812897,5907.035270739832
0.596,-0.5252468320818617,5903.355129073494
0.6,-0.6518141151373684,5893.433943973605
0.604,-0.7021112854314779,5906.095733352393
0.608,-0.6822736976519275,5907.922424568497
0.612,-0.6108874649962606,5907.75695282339
0.616,-0.5132963691746162,5895.151281360665
0.62,-0.4150277441306922,5903.605797017921
0.624,-0.3359083675733535,5899.425758094557
0.628,-0.2863451899657972,5895.315429097532
0.632,-0.26663813776145945,5906.799145088077
0.636,-0.2691826714493014,5901.295340687747
0.64,-0.28250420170732304,5907.028472137182
0.644,-0.295618444835718,5905.665903528796
0.648,-0.30128102151146335,5908.60080226522
0.652,-0.29720436460647265,5897.334525682139
0.656,-0.2851544269551191,5894.593454016425
0.66,-0.268707492241536,5902.1523352535605
0.664,-0.2509242921750794,5892.903036670218
0.668,-0.2330208952473882,5893.478772570174
0.672,-0.21445217164402547,5896.970023516517
0.676,-0.19406648098424212,5897.740922555955
0.68,-0.17141053596736888,5895.937800512347
0.684,-0.14712506767879757,5895.094924867368
0.6880000000000001,-0.1219817928575427,5898.752128836947
0.6920000000000001,-0.0952472882463163,5892.417400420475
0.6960000000000001,-0.06377910064881662,5890.7715817826565
0.7000000000000001,-0.022869791332259363,5906.164946965978
0.704,0.03129108210859457,5907.19657391412
0.708,0.09868885133398499,5903.6050539564885
0.712,0.1735745935910507,5899.519286487047
0.716,0.24457803614531043,5900.792941397884
0.72,0.2968222359350445,5896.061499738625
0.724,0.31517389957836944,5893.229304861446
0.728,0.2876816095118156,5901.14935704462
0.732,0.20866389563199667,5892.559470673967
0.736,0.08104970573536507,5905.26260670956
0.74,-0.08272893700429322,5892.915682276504
0.744,-0.26210209387490574,5891.279600002848
0.748,-0.43217243231891167,5911.703564771007
0.752,-0.5691004014326894,5907.485262463813
0.756,-0.6554538319317063,5904.467858088171
0.76,-0.6838874708172966,5905.855342553589
0.764,-0.6581076047068746,5897.744389968976
0.768,-0.5910200575622881,5900.365009224961
0.772,-0.5008652609286145,5903.929537261074
0.776,-0.4065622038586709,5892.029007994181
0.78,-0.3234179282801308,5893.747690514309
0.784,-0.2602080769755506,5903.842633244018
0.788,-0.21837806088418538,5896.888325574777
0.792,-0.19340021032663934,5891.813459140526
0.796,-0.1774180113822615,5894.805932205735
0.8,-0.16196785000465416,5903.438149986328
0.804,-0.13997952215123066,5894.573650473107
0.808,-0.1069353045529015,5897.506795744551
0.812,-0.06151853113606641,5897.045169261431
0.8160000000000001,-0.006054085527843201,5892.407772366347
0.8200000000000001,0.05338209761372571,5901.413627408509
0.8240000000000001,0.10762096376726683,5897.910895516975
0.8280000000000001,0.1460576466964627,5901.1339912887615
0.8320000000000001,0.15905962039649657,5901.063969355106
0.836,0.1405795631916667,5898.278557987712
0.84,0.09036810942253713,5904.55878379032
0.844,0.015175036907383248,5891.376520907716
0.848,-0.07164411748063512,5902.14490046325
0.852,-0.15244998491327758,5899.333580310877
0.856,-0.2093094708400058,5898.908081072977
0.86,-0.22862630323181019,5903.875087101812
0.864,-0.20487792134228633,5899.198000656877
0.868,-0.14212506577498218,5900.786551887489
0.872,-0.052928277976651936,5900.784962498224
0.876,0.04459777261469709,5904.351682706912
0.88,0.13048100129211188,5897.524043328741
0.884,0.18661094399814898,5899.097060042178
0.888,0.20013998050086143,5894.8922550347215
0.892,0.16612963448177004,5900.736133187101
0.896,0.08873866943660481,5899.833618267743
0.9,-0.019647257470298187,5902.924189139838
0.904,-0.14138308946544037,5904.129718697843
0.908,-0.2579106070321687,5892.803871432572
0.912,-0.354112200528356,5899.388988069239
0.916,-0.421144333431588,5897.537943485577
0.92,-0.4568810295604394,5900.968319277017
0.924,-0.4642936237322743,5901.320902413528
0.928,-0.4490284128491637,5897.466100944061
0.932,-0.41751320195042857,5901.854739071729
0.936,-0.3761688545868884,5903.943064262817
0.94,-0.3313581273109558,5893.303000804874
0.944,-0.28932078434868,5903.471470946717
0.948,-0.25566881215287257,5903.610924695077
0.952,-0.23450472328983912,5905.175951694641
0.956,-0.22743251209489576,5890.415084356549
0.96,-0.23276324947267316,5904.509226706608
0.964,-0.24526808245783685,5899.396683461602
0.968,-0.25677975926473495,5889.383743105473
0.972,-0.25766148841563485,5901.960064220895
0.976,-0.23882594156765707,5904.536969474777
0.98,-0.19384614578806306,5895.889829159695
0.984,-0.12074979036890486,5905.30092375147
0.988,-0.023169269501442328,5895.28590990952
0.992,0.08943122727223016,5905.364750683537
0.996,0.20267211198468787,5905.254554384271
1.0,0.29940901677415027,5902.818941366319
1.004,0.36293062780518665,5899.789233504662
1.008,0.38059628799639855,5902.400214946124
1.012,0.34693176557791305,5899.6361793895685
1.016,0.26514311133241686,5904.185325874781
1.02,0.14645318794704656,5890.343820374331
1.024,0.007543261471635811,5898.272406767737
1.028,-0.13284687786468052,5902.129930636233
1.032,-0.257109893648423,5897.01455492275
1.036,-0.3513685274677065,5895.870844014711
1.04,-0.4075318910897323,5892.22844920671
1.044,-0.42463862306992645,5894.2476973709445
1.048,-0.40898313047259904,5904.239278023032
1.052,-0.37265134866839533,5898.501681845875
1.056,-0.3305931026993878,5896.196635114732
1.06,-0.29688384611563423,5897.666431062272
1.064,-0.2811354081129207,5902.644718549348
1.068,-0.28595057384988404,5904.44701580711
1.072,-0.30599408605720363,5910.608084076386
1.076,-0.32901264642814704,5900.391788494415
1.08,-0.33898747855965894,5903.061150419302
1.084,-0.32111444733054484,5899.592742011204
1.088,-0.26735380051793795,5900.568750130987
1.092,-0.18050533610805417,5897.241517237219
1.096,-0.07493395115747534,5893.660237113642
1.1,0.02671633756299224,5905.087227023728
1.104,0.09992029902989591,5903.935486374203
1.108,0.1257403680215802,5903.0781948787935
1.112,0.09690033184546677,5899.266712546069
1.116,0.020339457493098845,5902.536007472415
1.12,-0.0847380213982478,5907.6734387918505
1.124,-0.1926774309379862,5903.835264152134
1.128,-0.2790203687851993,5899.991447043023
1.132,-0.3274279902893293,5908.556005183074
1.136,-0.3338101451551799,5895.837153223592
1.14,-0.3067230895133193,5898.659829012454
1.144,-0.2642942286836597,5905.873061584341
1.148,-0.22874853232852468,5900.714939299916
1.152,-0.21996581439489035,5899.819473798982
1.156,-0.24960609620916743,5905.2229867769165
1.16,-0.31735961819586445,5899.723347478258
1.164,-0.4105675346177649,5901.879475355331
1.168,-0.5074775751521177,5900.153056320497
1.172,-0.583054925833421,5896.650597475021
1.176,-0.6154435966377643,5904.813734169808
1.18,-0.5912830749834685,5917.5738582758495
1.184,-0.5087371457733993,5902.7002507713605
1.188,-0.3778091645502427,5901.373844798481
1.192,-0.21811716894173108,5904.394630351308
1.196,-0.05472492602776796,5892.51978123236
1.2,0.08705531763518871,5899.845876738822
1.204,0.18664965636416508,5902.747891434134
1.208,0.23166409207642596,5893.435837732513
1.212,0.21898742754153874,5903.129272617033
1.216,0.15381313716287934,5905.572938322207
1.22,0.04762601177148547,5902.787245310271
1.224,-0.0838726936137086,5897.513802701397
1.228,-0.22265221769353677,5899.647688387148
1.232,-0.3504269810626859,5891.446997095166
1.236,-0.4512506387963128,5901.9606001943785
1.24,-0.5143637313392305,5893.642669841572
1.244,-0.5364847368990858,5901.064192117005
1.248,-0.5226302332319227,5904.358570830154
1.252,-0.4848447328309076,5898.905951114153
1.256,-0.4388772909511192,5895.932374472797
1.26,-0.3997507522949057,5900.5356515781705
1.264,-0.37777831762816166,5900.004084447019
1.268,-0.37640251227198934,5909.433255262135
1.272,-0.392448875626475,5912.824434900388
1.276,-0.41847362919457065,5899.9524352470335
1.28,-0.44609392053209707,5901.730128654353
1.284,-0.46874947982095566,5896.383018754897
1.288,-0.482645402364477,5905.243807080514
1.292,-0.4857727327698365,5895.262510467279
1.296,-0.47625978285959153,5894.737216925571
1.3,-0.45181370332759846,5899.129737307524
1.304,-0.4111292282123045,5902.9739646601165
1.308,-0.3565001390676862,5905.888828610059
1.312,-0.29577401088061406,5892.777467367326
1.316,-0.24199408699466285,5904.250307011185
1.32,-0.21029029112114223,5904.709822473948
1.324,-0.2130260119321377,5899.301530440175
1.328,-0.25512029425084104,5909.729926612791
1.332,-0.3314411522028674,5911.350569904924
1.336,-0.4273927004029445,5902.984743695023
1.34,-0.5227710338873971,5898.730349886053
1.344,-0.5978551735436147,5884.418697875698
1.348,-0.6396802721774103,5900.574458596508
1.352,-0.6460519163955631,5891.609472098806
1.356,-0.6255926954861188,5897.898405844058
1.36,-0.5937161734720311,5904.903044005479
1.364,-0.5661250806096847,5899.244105769355
1.368,-0.552504971003808,5906.281135084119
1.372,-0.5530283243358384,5893.081489358682
1.376,-0.5589795973917615,5892.726785240046
1.38,-0.556875734698989,5900.388805881431
1.384,-0.5340514660632604,5892.255707950002
1.388,-0.4835224150255293,5900.635458514283
1.392,-0.4066634778844741,5888.506158763282
1.396,-0.31308269122069593,5894.206517575755
1.4,-0.21783797541100533,5899.975105049517
1.404,-0.13698930541066928,5897.608304796622
1.408,-0.08315179507774349,5906.116844145651
1.412,-0.06267021508720187,5902.515259636505
1.416,-0.07516717760958436,5896.439678090295
1.42,-0.11507436849531338,5901.382795249703
1.424,-0.17401672809348265,5898.445035027089
1.428,-0.24289690406440678,5895.405558248051
1.432,-0.31310735879655055,5908.699824203863
1.436,-0.3770444846933373,5904.637754756908
1.44,-0.42851083364656256,5907.938924405268
1.444,-0.46345902848413795,5895.329085372467
1.448,-0.4809975133838744,5905.122085006194
1.452,-0.48399601088199795,5899.8150493488565
1.456,-0.47845422584104486,5907.864519540212
1.46,-0.4712785194519214,5905.95746137073
1.464,-0.46700530539064894,5902.921125801177
1.468,-0.46483367466255004,5911.543619831113
1.472,-0.4576452132512283,5899.050326937117
1.476,-0.43408090948758643,5896.977834951861
1.48,-0.3832108065227851,5895.498393697131
1.484,-0.29980905331757934,5895.873338319566
1.488,-0.18788127359138737,5886.245084656728
1.492,-0.060945851420006594,5896.013999167495
1.496,0.061122541465792,5907.245663807487
1.5,0.1576045837937503,5902.454770142663
1.504,0.2127649845366541,5904.891906466245
1.508,0.2198814871349843,5893.397573255059
1.512,0.1823304978377242,5897.5971828001
1.516,0.1119006414364894,5896.8506197077895
1.52,0.02536219893472104,5900.766912954673
1.524,-0.05947481742725136,5905.110994729341
1.528,-0.12726680688228367,5889.888051844732
1.532,-0.1677728875176097,5895.804328226094
1.536,-0.17753857071675738,5908.164154141325
1.54,-0.16048855821050453,5900.006983844826
1.544,-0.1270513801658726,5891.997310644796
1.548,-0.09150979668450217,5896.729692420629
1.552,-0.06788619095939835,5904.976517482457
1.556,-0.06550718293009551,5897.792775959581
1.56,-0.08581694576532609,5902.550301488705
1.564,-0.12165820122770366,5894.63207622394
1.568,-0.15928163938005382,5908.11391002441
1.572,-0.18232031602214646,5894.727647856373
1.576,-0.1764579079483308,5898.3385657938925
1.58,-0.13367496045328586,5896.316100549775
1.584,-0.05529850066022165,5899.318070534702
1.588,0.04685356769331832,5905.20760079501
1.592,0.15194436566681038,5903.417015104527
1.596,0.23447346081852985,5899.444442025161
1.6,0.2708137991336077,5915.986409725138
1.604,0.24617726979170704,5908.133804795014
1.608,0.1596865300571136,5897.115618886195
1.612,0.025556297392204996,5907.951022023425
1.616,-0.13030311041030782,5895.496117278188
1.62,-0.27716470095855694,5899.662935012222
1.624,-0.38746542522344735,5899.936685969541
1.628,-0.44336427799088496,5902.841666467564
1.632,-0.44019777984500386,5901.990510325249
1.636,-0.3863892205335638,5892.2989017384825
1.64,-0.3004281944016777,5893.3607332426245
1.644,-0.20607439973870853,5901.841196373078
1.648,-0.12696503271789483,5899.652474801278
1.652,-0.08159139518090598,5902.110972480274
1.656,-0.07941472595053611,5894.900113865078
1.66,-0.11884705799331895,5895.583593030848
1.664,-0.18783151833323772,5899.591612540156
1.668,-0.26740596070665623,5906.693367808611
1.672,-0.33761524581455277,5904.046080618225
1.676,-0.3838356219348381,5897.656402220028
1.68,-0.4009651151585543,5903.711673639783
1.684,-0.39372399028646654,5891.209539983653
1.688,-0.3731634409443744,5903.823364096833
1.692,-0.35117930814859777,5899.9139472962215
1.696,-0.3353615788406653,5906.661707409767
1.7,-0.32596894949884636,5903.469559531517
1.704,-0.3159476319714901,5896.387594753768
1.708,-0.29404777346527294,5904.90805299656
1.712,-0.2500771513828474,5900.935981002171
1.716,-0.18031591315262577,5898.768433057516
1.72,-0.09076814475542534,5895.588643367085
1.724,0.0032275615116273194,5892.015051781305
1.728,0.08084420785065309,5898.844708917315
1.732,0.12153013880004498,5899.449709471608
1.736,0.11082817145228702,5896.828171509357
1.74,0.04480063713676182,5910.780529756665
1.744,-0.06785571489665469,5901.759508084913
1.748,-0.2064886685467725,5898.50235174675
1.752,-0.34207726621957724,5903.661874623338
1.756,-0.4434263320702998,5893.235896648426
1.76,-0.48497791504754556,5900.484156000589
1.764,-0.45425923416960634,5900.1877166752
1.768,-0.3563480025305498,5894.90015272372
1.772,-0.2133210500428695,5904.424495166404
1.776,-0.058484089404640636,5889.378424799618
1.78,0.07277565807925279,5888.010145026283
1.784,0.15251269760664557,5900.924937498112
1.788,0.16718994725214212,5897.536778068954
1.792,0.12019674523800451,5903.048444343073
