时间(s),电压(V),幅值(高频80K)
0.0,0.0926558953114215,5898.105945151592
0.004,0.14771123261550223,5899.496852868867
0.008,0.1889625645259966,5898.2741189938
0.012,0.20107801805583506,5896.859320095991
0.016,0.1696822292516804,5905.595942583749
0.02,0.0844057397794869,5908.381619609896
0.024,-0.05685265239477913,5893.197228605083
0.028,-0.24393667665718985,5906.399636313638
0.032,-0.4530893071987162,5897.570834711317
0.036,-0.65005070216074,5903.0197667235725
0.04,-0.7972877882127591,5894.419331687178
0.044,-0.8629146543390254,5904.090335342372
0.048,-0.828325609447804,5884.9681086636965
0.052,-0.692678733273574,5908.380733431737
0.056,-0.4737931068779694,5904.597965815292
0.06,-0.20564839515891137,5900.782623408903
0.064,0.06730820799231257,5905.341049404748
0.068,0.29853904138573417,5903.904723712428
0.072,0.44909022228416534,5889.461200667856
0.076,0.49635418148797905,5904.001583334367
0.08,0.4395963964168722,5901.075302314431
0.084,0.30055993459492225,5896.719854126237
0.088,0.11859305084902362,5895.944071690018
0.092,-0.05882406688165202,5892.160840114303
0.096,-0.18782596667171203,5907.854347734588
0.1,-0.23897087814580859,5902.849654610554
0.104,-0.2041486444783569,5901.640702184189
0.108,-0.0979077970059437,5913.37030390602
0.112,0.046887861066617874,5911.312742955501
0.116,0.1878667945121818,5900.152396642625
0.12,0.2842687225196735,5890.951928964262
0.124,0.3075367014304977,5903.561918013987
0.128,0.2483724940418539,5900.853920600591
0.132,0.11807490102644272,5899.985509472224
0.136,-0.056078849802129634,5902.025248290189
0.14,-0.23937370505787667,5901.188336951753
0.144,-0.39882879534311466,5893.495671683441
0.148,-0.5102068100884849,5896.955310957867
0.152,-0.5616117557091563,5901.9263795775605
0.156,-0.5537389558454195,5906.1050744994845
0.16,-0.4975075972967939,5890.601291239474
0.164,-0.4101516665709174,5891.929712641376
0.168,-0.3109171619212972,5905.110352062595
0.172,-0.21721012149390484,5896.502995438775
0.176,-0.14165964738986314,5902.586062110436
0.18,-0.09040792663010894,5899.855197274448
0.184,-0.06291918801668492,5903.562650948851
0.188,-0.05346763246727594,5899.690144875306
0.192,-0.05403644849058137,5897.575358955159
0.196,-0.05766685912509649,5895.371350555372
0.2,-0.060867084403661995,5908.465451505209
0.204,-0.06416089059080504,5897.608164577737
0.208,-0.0709916581697911,5905.56887014874
0.212,-0.08595460895896925,5895.594748154721
0.216,-0.11311238684849094,5901.211051037721
0.22,-0.15447279715188644,5899.245266705892
0.224,-0.2084811173887152,5892.050943663282
0.228,-0.26887706722085863,5904.485519680167
0.232,-0.32484250179783547,5895.273469310241
0.236,-0.3631718092847129,5905.329881448384
0.24,-0.3721791224006827,5893.712295862252
0.244,-0.34598840563638006,5897.827333829964
0.248,-0.28743997144137035,5902.076511303379
0.252,-0.2082361680766574,5903.335393493745
0.256,-0.1259699807453751,5898.468251672077
0.26,-0.05898468638978713,5901.579128208993
0.264,-0.02101974124427072,5901.882535665653
0.268,-0.0177643065297427,5901.169572474705
0.272,-0.04663114531862089,5898.005016376872
0.276,-0.09960582718585229,5898.118682831221
0.28,-0.16756261155512628,5891.933929318825
0.284,-0.2437323246403363,5902.000536963403
0.288,-0.3245871042717548,5895.070589107554
0.292,-0.4081028756446122,5911.296052729791
0.296,-0.49110591571412493,5892.232163691849
0.3,-0.567835464146607,5895.401353349767
0.304,-0.6306010208252738,5898.149690659955
0.308,-0.6717372078944813,5899.092183584851
0.312,-0.6855409175388518,5898.879020098028
0.316,-0.6696204002228819,5904.850911637264
0.32,-0.625823896735443,5906.7026251165935
0.324,-0.5607723793953565,5904.357700982528
0.328,-0.48547054032613385,5897.548711101517
0.332,-0.41343496447948513,5893.467056109977
0.336,-0.35745981512810965,5899.757814877221
0.34,-0.32599716407723317,5899.549791264277
0.344,-0.32055522606427295,5902.706547801602
0.348,-0.3352661397138548,5895.455112128886
0.352,-0.35892266234607545,5910.06598183941
0.356,-0.3786664748202283,5896.424254668873
0.36,-0.38379603188984346,5902.47171892904
0.364,-0.3684336842676702,5893.575217885633
0.368,-0.33275078164900124,5902.912157339832
0.372,-0.28305881266936395,5908.122992094771
0.376,-0.23081269182307748,5900.091899175648
0.38,-0.1901473276222249,5893.058343262835
0.384,-0.1740211410140906,5892.957542181918
0.388,-0.1902161351105094,5897.1227389549695
0.392,-0.23898310381116256,5905.154806080701
0.396,-0.31326509904181876,5897.794745173384
0.4,-0.4010345885804714,5905.847412763927
0.404,-0.4885620477007699,5896.774379973062
0.408,-0.563595654855638,5897.678598462558
0.412,-0.6178633183068619,5900.751398357084
0.416,-0.648513003483281,5907.588372730239
0.42,-0.6581543580006765,5898.031620428255
0.424,-0.6534377841602668,5903.395298779858
0.428,-0.6426639634969024,5912.025041872754
0.432,-0.6333227663583179,5903.469122162229
0.436,-0.6303765915952827,5889.794116350526
0.44,-0.6356457067547192,5897.050803047717
0.444,-0.6481035110346559,5899.877969287711
0.448,-0.6645205494254199,5896.23257903753
0.452,-0.6799883080576256,5888.66161322754
0.456,-0.6883437238087863,5907.054144791033
0.46,-0.6828694373101561,5902.833523572351
0.464,-0.6575138514349532,5897.933866819805
0.468,-0.6084702750528337,5900.410627528888
0.472,-0.535623398542668,5897.016095390324
0.476,-0.4432898506168159,5899.373152024817
0.48,-0.3398859553748133,5903.807609613468
0.484,-0.23651180301629748,5899.4489009798135
0.488,-0.14471531922000636,5906.5507463858585
0.492,-0.07385853226887701,5896.2117660430895
0.496,-0.028723768285602257,5896.409603219331
0.5,-0.008255579048777679,5902.406869892723
0.504,-0.006247596865419412,5901.47160017785
0.508,-0.014050348753478596,5913.344685467109
0.512,-0.024286953686993185,5896.506587156694
0.516,-0.03383888054609606,5896.9971962345135
0.52,-0.04455976705604605,5889.961222024919
0.524,-0.061260939844507006,5902.460197513541
0.528,-0.08788901516123308,5893.907249443795
0.532,-0.12374046519389229,5902.948523291843
0.536,-0.16161673472053784,5905.883966587615
0.54,-0.18904226264820145,5901.920861593799
0.544,-0.19231646713137054,5896.028973097065
0.548,-0.1617544382881675,5903.276235690405
0.552,-0.09581704382396462,5888.690992552473
0.556,-0.002489617803283526,5898.700716330407
0.56,0.10232600319092285,5895.8388028784
0.5640000000000001,0.1986482028124739,5895.153434785866
0.5680000000000001,0.267449854607876,5899.022758271554
0.5720000000000001,0.29567344557601,5901.073507150898
0.5760000000000001,0.2796769831867698,5899.549574680735
0.58,0.22570652622130266,5899.317599991324
0.584,0.14705971025964507,5896.397450271756
0.588,0.059078881341743265,5901.420118702943
0.592,-0.025917170713393327,5898.789219641895
0.596,-0.10166032234235672,5904.164277987874
0.6,-0.1677965647638907,5895.887600578516
0.604,-0.2270621990461421,5896.091872839308
0.608,-0.2816128930867652,5895.43027827579
0.612,-0.3305584875537167,5909.125746994472
0.616,-0.36976562613709313,5899.481748198506
0.62,-0.3936558607152344,5894.115662784981
0.624,-0.3979004942728046,5895.947856935993
0.628,-0.38178656244308395,5902.097002732313
0.632,-0.34933527665588476,5898.071360817117
0.636,-0.30875514832811496,5891.105696327835
0.64,-0.2703677190461673,5905.003413486881
0.644,-0.24361487607260698,5904.190451137978
0.648,-0.23412699583517807,5891.888749618486
0.652,-0.24205657450611898,5900.944235239556
0.656,-0.26255394185545605,5893.247907391416
0.66,-0.2881455256997455,5909.186094750655
0.664,-0.3116032043999541,5900.089092434977
0.668,-0.3277545507298496,5890.941385389173
0.672,-0.3337048394215334,5902.909000318806
0.676,-0.3281697825450151,5888.058281397194
0.68,-0.31105610085185825,5903.814733564174
0.684,-0.2838758384293078,5892.966677102506
0.6880000000000001,-0.25065316750156486,5896.473720388409
0.6920000000000001,-0.21845805352390082,5905.183006552375
0.6960000000000001,-0.1968290022498057,5903.109052159007
0.7000000000000001,-0.19585192922796665,5895.401955600478
0.704,-0.22326536588719878,5892.059947414032
0.708,-0.2814898430537267,5904.832554577841
0.712,-0.3656524149329336,5900.518513405656
0.716,-0.4633770937190235,5900.375087914874
0.72,-0.5566373778012974,5908.476389804096
0.724,-0.6255336255043544,5903.508300230167
0.728,-0.6532740248089117,5904.041943289646
0.732,-0.6309177831244378,5903.139921552654
0.736,-0.5601843065518055,5892.397672193702
0.74,-0.4533288599486829,5901.68143327382
0.744,-0.33034160711915367,5894.578357733487
0.748,-0.2146317882939149,5910.52154205639
0.752,-0.12848130063713584,5899.63455828227
0.756,-0.08914606473883054,5901.7246212145965
0.76,-0.10595751043805764,5889.199859976298
0.764,-0.17851031685412538,5907.287210453554
0.768,-0.2962263855322265,5897.9656699618
0.772,-0.4398883057228745,5896.85596664174
0.776,-0.5854654810846712,5906.890026242059
0.78,-0.7095999803769645,5891.510499086244
0.784,-0.7951119798223568,5892.008103323881
0.788,-0.8345767392429915,5904.516992052711
0.792,-0.8306854391698447,5895.19395891868
0.796,-0.7934302280440647,5899.393240127783
0.8,-0.7355156691770891,5905.096053513725
0.804,-0.6681100073848377,5889.142578214208
0.808,-0.5987065638052348,5893.699159459373
0.812,-0.5316297899163644,5902.588560285087
0.8160000000000001,-0.4702516600578422,5906.554223091551
0.8200000000000001,-0.4190875066277855,5896.449513051256
0.8240000000000001,-0.3841729802476618,5901.1284402696565
0.8280000000000001,-0.37136032635239735,5894.513919437334
0.8320000000000001,-0.38353117612879334,5897.768752793108
0.836,-0.4183088034801679,5889.816349978517
0.84,-0.46752394346324605,5896.686867458805
0.844,-0.5188584545918689,5896.186209904663
0.848,-0.5591344163785421,5904.231705924694
0.852,-0.5779485889107158,5899.624860587236
0.856,-0.5702064708141529,5900.501611727576
0.86,-0.5367663501039991,5893.721421298706
0.864,-0.4833799957626084,5895.935196326211
0.868,-0.4186695738562854,5899.504363540507
0.872,-0.3517980804764124,5903.5325559214725
0.876,-0.29023383256779967,5900.479216673585
0.88,-0.2380211229130819,5902.3651009586565
0.884,-0.19506701192554854,5900.570277162075
0.888,-0.15770247556591974,5899.762516517827
0.892,-0.12028797793661147,5905.2463087544265
0.896,-0.07743468830645668,5907.225753244617
0.9,-0.026519456992011674,5894.9607958746765
0.904,0.029984037561546724,5897.405389625023
0.908,0.08337301887153044,5898.2547197418335
0.912,0.1199632990726632,5904.905257363548
0.916,0.12504373254141252,5900.251648660054
0.92,0.08835576337519373,5907.613093680287
0.924,0.008769321640952697,5895.554135134843
0.928,-0.1041542202982653,5899.820049131366
0.932,-0.23265713451274966,5897.983935557426
0.936,-0.35621843741022463,5893.703531581768
0.94,-0.4573574814073312,5896.824116203576
0.944,-0.5253909424641195,5895.032338222639
0.948,-0.5571813287490185,5908.803129745663
0.952,-0.5555159676180985,5900.06564375564
0.956,-0.5265420549036625,5892.749413153582
0.96,-0.47745772229956435,5901.564596527857
0.964,-0.4149685014037636,5902.225224466275
0.968,-0.34457514204395084,5888.559595768669
0.972,-0.27069461418631185,5897.1511317391705
0.976,-0.19757678047937907,5900.331536198422
0.98,-0.13077208355691383,5886.710501030076
0.984,-0.07862900735283537,5910.846179800099
0.988,-0.0530727084375367,5899.744050567407
0.992,-0.06878387041315828,5903.273505068128
0.996,-0.1399586045294204,5906.097804869737
1.0,-0.27435449279186597,5901.311601711321
1.004,-0.46550763243695203,5890.990479452685
1.008,-0.6854619440903748,5897.258703478435
1.012,-0.8811722095337869,5910.346467801116
1.016,-0.9772928311400746,5902.687746108366
1.02,-0.8865666844293567,5902.71895636944
1.024,-0.5270838995054189,5892.839751350864
1.028,0.15642794790720987,5899.821158850194
1.032,1.172227527684416,5895.759667492174
1.036,2.468504023998116,5909.819565992255
1.04,3.933780998272654,5900.59706953864
1.044,5.413917989102411,5900.799598652087
1.048,6.743065220913495,5899.375485203736
1.052,7.779608108647094,5898.507709836146
1.056,8.43540339456803,5899.814037959347
1.06,8.689673481478419,5902.124588853036
1.064,8.585430864546773,5897.974714648919
1.068,8.212050257894457,5898.5514272615255
1.072,7.68059122962318,5900.657302490309
1.076,7.09897497128957,5898.635240479189
1.08,6.552796077075617,5898.966610711788
1.084,6.095044134506421,5899.043042606341
1.088,5.74520217170878,5900.758716963816
1.092,5.495849301289024,5899.25139993934
1.096,5.323417630326523,5897.58352361789
1.1,5.199351249861852,5906.674936199389
1.104,5.098668874117606,5902.107602471515
1.108,5.004502353283422,5902.084169438522
1.112,4.908784973215687,5905.11841387127
1.116,4.8102441014220085,5897.440741027594
1.12,4.711141811212371,5901.642846670353
1.124,4.614042025778776,5906.560899373292
1.128,4.51945799536833,5893.375069022888
1.132,4.424740630237495,5894.655309833085
1.136,4.324173925856756,5899.204675900958
1.14,4.209977344885753,5902.236975412559
1.144,4.073809222247823,5901.504563192017
1.148,3.908498444681627,5905.912666480394
1.152,3.709924301456458,5893.515192046386
1.156,3.478828612543561,5910.22734162347
1.16,3.221890437711586,5897.715614379017
1.164,2.9512131937211468,5903.317891045864
1.168,2.6819384857468185,5892.563510586544
1.172,2.4286981228243922,5903.718726252416
1.176,2.2022503613539812,5900.605949671786
1.18,2.0075130040002462,5910.134693440799
1.184,1.8435564258948327,5902.855928967303
1.188,1.7053511949330618,5892.386612250364
1.192,1.5864189905436847,5906.282705747098
1.196,1.4812834688373793,5902.597093161797
1.2,1.3869780943728391,5896.015317290857
1.204,1.3035785608442843,5893.420965939949
1.208,1.2341230565012136,5892.699186460087
1.212,1.184036634142514,5898.470986924901
1.216,1.1597458819100153,5906.957503072475
1.22,1.166291025637873,5899.911313338178
1.224,1.2045176394322303,5892.614604672421
1.228,1.2691485349291247,5897.927319841976
1.232,1.348924782759037,5894.811490022044
1.236,1.4290046268347079,5901.538187940399
1.24,1.4946151992185626,5901.182501652745
1.244,1.5344172132310845,5895.887507387511
1.248,1.5424849547534882,5903.486111857776
1.252,1.5187236372120632,5893.254255367184
1.256,1.4681051616754737,5897.045834826793
1.26,1.3990403803305378,5899.544963388007
1.264,1.321059719145108,5898.335700128519
1.268,1.242240410433218,5892.721148958125
1.272,1.1672469697205172,5895.612223073779
1.276,1.0968109658121985,5889.746882998749
1.28,1.0287818687988899,5887.35888854496
1.284,0.9600302323082494,5895.109536826206
1.288,0.8881396762739708,5881.282721975922
1.292,0.8122151988417474,5887.1188468096525
1.296,0.7329053194319394,5890.296109350019
1.3,0.6522351076328442,5889.724499158876
1.304,0.5737137813907209,5884.863695966439
1.308,0.5026733730134296,5884.7334976792745
1.312,0.44637404703714145,5888.554671200077
1.316,0.41323338206499566,5881.304212627157
1.32,0.4106897973823071,5885.670134791139
1.324,0.44191966283797474,5879.77090075516
1.328,0.5026996218983929,5879.539842889583
1.332,0.5802658417578846,5872.251751721489
1.336,0.6553634116741007,5880.654706683109
1.34,0.7071222113995251,5873.429967987721
1.344,0.7189847423541016,5875.695513481705
1.348,0.6834501705206294,5873.596826098716
1.352,0.6039540946708393,5872.821527537164
1.356,0.49335478190714777,5872.468132808929
1.36,0.3697666236500675,5874.504003421232
1.364,0.25141140193959755,5868.206259956523
1.368,0.15231285517487486,5865.603379519608
1.372,0.08000283524043288,5878.823896422327
1.376,0.03544560759450806,5865.32849837473
1.38,0.014642475761978765,5869.407392072811
1.384,0.010992797927902954,5867.484994926425
1.388,0.0174554322392779,5864.47599023538
1.392,0.02794044062760986,5870.377226242604
1.396,0.03802264816673561,5860.394318836118
1.4,0.04542678318491814,5869.686568202086
1.404,0.05033231003243349,5852.918028467572
1.408,0.05489453045692462,5860.368166153236
1.412,0.06154142357977159,5854.68121181434
1.416,0.0707060941706846,5864.220674521345
1.42,0.07952708165609089,5854.247811723305
1.424,0.08268919202981286,5862.861579698095
1.428,0.07526734730240553,5860.183244932825
1.432,0.056174135540811826,5858.407502396199
1.436,0.030304623199681576,5849.640532534623
1.44,0.007948831331721825,5862.34804854117
1.444,0.0013677882100256989,5855.328802895802
1.448,0.01995637119386248,5849.946326969881
1.452,0.0662042763395001,5848.859530481635
1.456,0.13424861634225568,5858.314216061111
1.46,0.21154313279176482,5860.63057277506
1.464,0.2827757704646045,5853.589312506656
1.468,0.3342639036164044,5849.045675391784
1.472,0.3570130873859977,5862.241915262779
1.476,0.3474516347350816,5855.640197640183
1.48,0.3061372348053036,5848.938242041379
1.484,0.23580112803112757,5858.978029440518
1.488,0.14030605261537868,5860.997492713387
1.492,0.025243472393021528,5851.446452763632
1.496,-0.10044489229045205,5851.162530468267
1.5,-0.2233072557925568,5852.730143461064
1.504,-0.3260881460817412,5848.138720421374
1.508,-0.39086655115806324,5856.75658824981
1.512,-0.40402206630633153,5851.224303070553
1.516,-0.3614120254768286,5848.08891498498
1.52,-0.2717632004595917,5839.995117804914
1.524,-0.15665326685176578,5841.855699616709
1.528,-0.046381180740784844,5849.796088278285
1.532,0.027614709224460063,5846.689338024945
1.536,0.041607978664425144,5848.1659436956925
1.54,-0.013343919211672427,5832.727694966568
1.544,-0.12862732446280617,5842.7301773841045
1.548,-0.28047048964437327,5839.473576183445
1.552,-0.4365921080156396,5837.996890333563
1.556,-0.564924229211967,5842.85775422279
1.56,-0.6417100885972938,5847.737102188189
1.564,-0.656618815414661,5844.13085605856
1.568,-0.6136686897684545,5840.829586485796
1.572,-0.5281973116512727,5844.725187500004
1.576,-0.42125857579110454,5846.728609440619
1.58,-0.3134144429930971,5840.111539820884
1.584,-0.21992930161602495,5849.656156788918
1.588,-0.1488022826916651,5843.233262768661
1.592,-0.10182871521006333,5835.593128509348
1.596,-0.07740738818547244,5838.842608075036
1.6,-0.07306412740213293,5836.92491894715
1.604,-0.08623836008964068,5848.142986330828
1.608,-0.11333818641926587,5839.068596665946
1.612,-0.14832735623910512,5841.242261556457
1.616,-0.1823435666790458,5845.755129875204
1.62,-0.20507322564310596,5840.849727595194
1.624,-0.20748710461371453,5844.233441089923
1.628,-0.18478086513666597,5829.0048600622085
1.632,-0.13830769059666861,5836.438563256969
1.636,-0.07580129056827589,5837.461679744208
1.64,-0.009821423265433383,5832.781178253158
1.644,0.04516271154333481,5836.564094673948
1.648,0.0762656220633385,5843.388849064869
1.652,0.07527263605618019,5834.127397057649
1.656,0.04049475858264132,5835.90689513294
1.66,-0.023028902394766015,5829.957518016801
1.664,-0.10497012169503449,5837.821778563229
1.668,-0.19232968589843105,5838.820590443705
1.672,-0.2724045220988641,5840.557114296569
1.676,-0.33529373585723005,5845.895142281287
1.68,-0.37548233356196603,5848.006948488648
1.684,-0.39231868270065295,5835.385936024908
1.688,-0.38933274516076166,5841.540532813248
1.692,-0.3725712008704072,5845.460943233565
1.696,-0.3484682066475373,5840.185564451462
1.7,-0.32195484793206586,5833.625911025225
1.704,-0.2953635915178615,5834.92015891515
1.708,-0.2683355603331614,5835.362103196147
1.712,-0.23862359955835777,5837.140358875498
1.716,-0.20348604735940284,5839.762825970626
1.72,-0.16126135122084212,5831.630315014976
1.724,-0.11268898812083106,5831.374923317757
1.728,-0.061562483075349055,5842.7071375177175
1.732,-0.01435931667053024,5838.128574829148
1.736,0.02131215468311967,5845.698294780551
1.74,0.039191862140020794,5840.7324186881815
1.744,0.03698093733440864,5838.325459444332
1.748,0.017979423919815562,5840.105612681525
1.752,-0.009119926426999436,5834.63068707248
1.756,-0.03240994545753569,5840.066480917968
1.76,-0.0402567309263399,5837.560590548522
1.764,-0.024971528633855638,5835.2496015952265
1.768,0.014521145063231024,5851.2939081414925
1.772,0.07188607262433944,5845.492430249064
1.776,0.13464014900010712,5844.132899837781
1.78,0.18691690696478117,5833.434843233762
1.784,0.21282277661159357,5840.834228488649
1.788,0.19964905083101855,5835.9852993267305
1.792,0.1405391906324253,5836.284718087526
1.796,0.03634334919062103,5830.796762883664
1.8,-0.1036715981471077,5830.885828117528
1.804,-0.26262869499230895,5840.744451084343
