时间(s),电压(V),幅值(高频80K)
0.0,-0.06070385329696904,5902.084064792673
0.004,0.0019549242229030934,5899.1507615367
0.008,0.07328880700492621,5896.622459972255
0.012,0.15886001239127925,5895.5639090377945
0.016,0.2540718325353585,5899.159864778188
0.02,0.34375705596255335,5899.0734899869885
0.024,0.40608195136683906,5901.4771645444725
0.028,0.41969862606638075,5896.962375376003
0.032,0.37145468518803865,5897.327123245418
0.036,0.26146542537391426,5903.986986424432
0.04,0.10352441533738074,5901.091433425226
0.044,-0.07907771137131957,5905.032567145009
0.048,-0.2604880294141762,5894.418856334286
0.052,-0.4194022576506127,5895.6256655706975
0.056,-0.5439928023440556,5900.503628655558
0.06,-0.6331662992579534,5892.414314947725
0.064,-0.6941294346521117,5898.936940006679
0.068,-0.737973788788663,5902.117869033737
0.072,-0.7757912486486188,5912.720250773745
0.076,-0.8167294868417293,5904.288244687694
0.08,-0.8673385024346568,5900.246293439821
0.084,-0.9307410839390466,5903.749202437067
0.088,-1.0053100408670603,5899.483858466528
0.092,-1.0839831387849668,5902.547538868249
0.096,-1.1553107512074685,5895.314304222771
0.1,-1.2060701096309185,5910.69035026268
0.104,-1.2243386481009968,5891.516941440339
0.108,-1.202076711691846,5904.178427389729
0.112,-1.1369314457320785,5896.339547088807
0.116,-1.0332206191854159,5904.645886583295
0.12,-0.9017718107729856,5894.84098354914
0.124,-0.7581639267333609,5889.682770595819
0.128,-0.6194973690000035,5904.3239311619245
0.132,-0.5007795380329126,5902.77031473151
0.136,-0.4123999013522776,5902.343335083811
0.14,-0.3594364937990795,5899.663278637851
0.144,-0.3422551092726515,5899.18270569788
0.148,-0.35721434565613036,5905.225112497178
0.152,-0.39681963111579216,5899.82968216323
0.156,-0.4497434402847186,5899.793291515119
0.16,-0.5016967390750244,5908.373619739486
0.164,-0.5377973190766127,5904.062661298109
0.168,-0.5462156566879957,5907.469142820421
0.172,-0.5220184909113765,5893.7488035379165
0.176,-0.46959376441604467,5907.515289587285
0.18,-0.40214111809902536,5896.98399590142
0.184,-0.3377707273345689,5907.124722650548
0.188,-0.2934882930508945,5902.889559488937
0.192,-0.27963338483622685,5900.528704091643
0.196,-0.2971706118038819,5900.585961590401
0.2,-0.33870186881040126,5897.740604098909
0.204,-0.3922347354988173,5898.106386375017
0.208,-0.44572752052498926,5889.38092994892
0.212,-0.49052228553827787,5907.50426536345
0.216,-0.5224625784638606,5902.947319332936
0.22,-0.5404321663385578,5908.5515564466605
0.224,-0.5432832179399636,5900.507844205975
0.228,-0.5272004735623499,5898.570898738558
0.232,-0.48549510172654464,5905.547760588281
0.236,-0.4113210545352499,5896.048482976428
0.24,-0.3018825582727507,5909.28468798298
0.244,-0.1618189353678995,5904.435411337685
0.248,-0.004072825990824188,5901.910403564169
0.252,0.15209297975901873,5895.538836088716
0.256,0.2851176859974089,5897.681217903408
0.26,0.37583041032309533,5899.706509877247
0.264,0.41138946774529556,5902.764122259517
0.268,0.3874024030668295,5902.44913744376
0.272,0.30780713190044573,5908.704952649136
0.276,0.18294433084148987,5888.908934274603
0.28,0.026976620384880634,5892.763436817755
0.284,-0.1441137191396865,5897.624713336942
0.288,-0.31350693454497386,5897.51609532448
0.292,-0.46412504780048297,5899.5898042612425
0.296,-0.5798058152422167,5905.285403196279
0.3,-0.6475584685252788,5899.127689617998
0.304,-0.6605614034873423,5891.715392672012
0.308,-0.6208672997632938,5900.465532193263
0.312,-0.5404472704644105,5897.021270822053
0.316,-0.4396254360083408,5904.551399066731
0.32,-0.34309708232705344,5894.711952913762
0.324,-0.2747697053820519,5903.699280615335
0.328,-0.2529217811367025,5895.110175663899
0.332,-0.28666313576144137,5899.744898970021
0.336,-0.37391927271522507,5897.243359419185
0.34,-0.5008825213306936,5896.9787186182575
0.344,-0.6433091587938217,5907.451801126463
0.348,-0.770376541087855,5903.01212004954
0.352,-0.8511724114901317,5899.828707201658
0.356,-0.8625320035867713,5903.063105683897
0.36,-0.7958850085663569,5902.554113942998
0.364,-0.6607363831433812,5896.775746882446
0.368,-0.4833616182838942,5901.203909086201
0.372,-0.3007801386509421,5906.515763265765
0.376,-0.15159540331684707,5892.424605050142
0.38,-0.06636998153106703,5901.9066080916655
0.384,-0.060352734482660354,5896.208283830811
0.388,-0.13051568065833566,5900.673600301579
0.392,-0.2574067943134354,5900.536254587554
0.396,-0.41082165542937993,5907.988194063994
0.4,-0.5572704726935911,5899.555142950279
0.404,-0.6670932434980682,5901.524843132208
0.408,-0.719798714719722,5900.963486191585
0.412,-0.7071623979864529,5907.862464357142
0.416,-0.6341665997047927,5898.07315049071
0.42,-0.5178641765604483,5915.077066667657
0.424,-0.3841352697441111,5900.4097569831465
0.428,-0.26257214929432565,5895.995076373756
0.432,-0.1803381182976882,5909.066168397594
0.436,-0.15634599187056797,5888.450775213064
0.44,-0.19714312540278384,5900.219810789793
0.444,-0.29548011941592167,5895.0911924527945
0.448,-0.4319083592298802,5894.088660483856
0.452,-0.5790661589631985,5900.450997458418
0.456,-0.7076022824948558,5887.36067368678
0.46,-0.7921670177957586,5890.017358320637
0.464,-0.8160213118921995,5907.491607316095
0.468,-0.7735824583827691,5900.489516747465
0.472,-0.6709793806403384,5901.639272993493
0.476,-0.5249095266250154,5899.942630818265
0.48,-0.35993740032429766,5901.907679013956
0.484,-0.20427955019447633,5895.622619906234
0.488,-0.08436935145462729,5896.154279193292
0.492,-0.019178387381020314,5904.90515733896
0.496,-0.01603264495719954,5897.014124204743
0.5,-0.06971827999145555,5898.926294518399
0.504,-0.16556701103127092,5891.137677415808
0.508,-0.2854040715078389,5904.8873279122645
0.512,-0.413829468115479,5899.137944469345
0.516,-0.5421784244597074,5902.634482940201
0.52,-0.6686715186348635,5906.778989288982
0.524,-0.7950159441109895,5906.3703700252745
0.528,-0.9213236448056041,5902.258567490166
0.532,-1.0420377334764872,5907.758984941822
0.536,-1.1450421479661181,5901.010927940105
0.54,-1.2143753123659455,5898.113130791563
0.544,-1.235050189211548,5901.039351090329
0.548,-1.1976220083152782,5901.782811932337
0.552,-1.1007600078205777,5898.385147531305
0.556,-0.9515746625802992,5903.892353383115
0.56,-0.7646218265734307,5898.2073369551945
0.5640000000000001,-0.5604509442204753,5904.983535298309
0.5680000000000001,-0.3635758257018355,5902.350023993172
0.5720000000000001,-0.1991209598027981,5898.853004462217
0.5760000000000001,-0.08810935601272933,5896.924837651916
0.58,-0.04286110989117086,5898.477298617081
0.584,-0.06463719542053119,5914.139313880099
0.588,-0.14464488694118072,5898.262392750017
0.592,-0.26767953129564415,5903.182216844923
0.596,-0.41644216712761384,5892.167196867627
0.6,-0.5746190668287121,5907.02881124238
0.604,-0.7279158715111492,5902.208800343023
0.608,-0.8635922475407697,5907.029455402826
0.612,-0.9697191079072471,5903.843525964491
0.616,-1.0351281437965612,5903.981142215973
0.62,-1.0503491296166982,5900.189395103863
0.624,-1.0092401771300599,5903.302659641016
0.628,-0.9107213685865195,5902.093855588499
0.632,-0.7600664895770982,5899.471489041059
0.636,-0.5693051660268849,5899.60401053444
0.64,-0.35617449392990164,5898.6306838029095
0.644,-0.14122164183074146,5904.081823427584
0.648,0.056323868997876024,5892.60520295276
0.652,0.22211332349220037,5900.436097121913
0.656,0.3479593689168208,5895.682278574225
0.66,0.43058804385798755,5898.551611255384
0.664,0.4690947398334688,5907.7537669038375
0.668,0.4627241602051159,5903.664454358958
0.672,0.4101031715267371,5901.275092520157
0.676,0.3103114360927743,5896.180991976443
0.68,0.1654018269467716,5893.105532777181
0.684,-0.016688939339664057,5890.320480237403
0.6880000000000001,-0.22019974978722434,5905.307308924902
0.6920000000000001,-0.4217496722211374,5908.464687578658
0.6960000000000001,-0.5932605772597223,5901.490473591846
0.7000000000000001,-0.70724105007768,5906.739981985849
0.704,-0.7430685213653464,5898.804112043963
0.708,-0.6923494863142321,5893.055352449671
0.712,-0.5617691132016492,5897.423542168848
0.716,-0.3728160317458838,5891.115872540709
0.72,-0.15854758879709635,5897.171810393532
0.724,0.04218384042225831,5896.413868819227
0.728,0.19226187494427563,5906.39749386493
0.732,0.263995986595347,5912.223117520994
0.736,0.2448369121476212,5906.995695446099
0.74,0.13946430523221473,5895.333425521363
0.744,-0.03217515115218502,5896.897799456451
0.748,-0.24004760247455983,5906.563181781346
0.752,-0.4508125934385387,5894.96938789088
0.756,-0.6344519183532822,5895.744946732384
0.76,-0.7693800190727861,5896.104718944313
0.764,-0.8452117307351675,5901.307638268694
0.768,-0.8628280773800046,5906.671069057444
0.772,-0.8318357529954539,5903.960421296249
0.776,-0.7660942055652173,5902.791918266903
0.78,-0.6786076093069842,5901.125755132294
0.784,-0.577475539904254,5902.182422487964
0.788,-0.46446972128147224,5895.490670821434
0.792,-0.336917202882569,5893.575593901347
0.796,-0.19205160989382777,5907.363238327195
0.8,-0.031700208218196906,5890.287126028195
0.804,0.13493708144110678,5904.540262075784
0.808,0.2916613529375669,5899.9636521715975
0.812,0.4187947022785916,5899.794233737907
0.8160000000000001,0.4987715548645945,5894.932206881004
0.8200000000000001,0.5218200088319422,5890.572019860571
0.8240000000000001,0.48938518848981766,5917.251399693195
0.8280000000000001,0.4136744797055601,5898.645774204469
0.8320000000000001,0.31336828775552344,5906.954079151405
0.836,0.20730613773618653,5908.111947475658
0.84,0.10891543956669159,5900.488373642351
0.844,0.02365046248508596,5899.64885195101
0.848,-0.050090619026186015,5904.901805287832
0.852,-0.11788082498482855,5903.556602495962
0.856,-0.18574668383348839,5902.5589157650575
0.86,-0.2572669253539974,5907.264295283028
0.864,-0.3317919282294596,5900.144499394369
0.868,-0.40423015555319247,5901.30331002135
0.872,-0.4665683506608179,5897.970689663712
0.876,-0.5105302563027068,5892.48040837041
0.88,-0.5301909134544553,5904.596741932858
0.884,-0.523512336390651,5902.322367760649
0.888,-0.49241673915749057,5902.100385097311
0.892,-0.44162478281284134,5897.32475384848
0.896,-0.37690373381570996,5893.16833913314
0.9,-0.30364794424531044,5899.502222370266
0.904,-0.2266184801091735,5893.54633921891
0.908,-0.15095064929829488,5899.903081036246
0.912,-0.08356263539499541,5906.023253633638
0.916,-0.03364377758649602,5896.95730569456
0.92,-0.011329988768567544,5895.911813834968
0.924,-0.024665287958973634,5895.347170736408
0.928,-0.0759057346476955,5909.385560445392
0.932,-0.15870234806955372,5906.849277846445
0.936,-0.25761601427003533,5909.163921392445
0.94,-0.3508557701465886,5901.647954002709
0.944,-0.416052344978422,5902.989152104317
0.948,-0.43742344973991876,5899.650007657724
0.952,-0.4116206819130126,5900.106828092977
0.956,-0.3497353162960558,5900.275773462225
0.96,-0.2744092288308128,5899.648519838919
0.964,-0.2129217685833043,5912.540609666223
0.968,-0.18857755630505188,5900.072221883572
0.972,-0.2132140906555979,5902.864052535042
0.976,-0.2832428525528255,5906.798787313753
0.98,-0.3806532680636225,5909.887075555451
0.984,-0.478911660825041,5901.185177205787
0.988,-0.551762260742074,5897.457816639273
0.992,-0.581479842586967,5897.45565045268
0.996,-0.563330178004591,5899.737363334012
1.0,-0.5049151388528671,5914.618273206163
1.004,-0.4214439515650815,5902.954598097006
1.008,-0.329439509784071,5897.194623223184
1.012,-0.24150410144829623,5902.972372238992
1.016,-0.16383452347418265,5908.837195237507
1.02,-0.09674040080188226,5894.981374675708
1.024,-0.03712149226429803,5900.14348213011
1.028,0.0186487575526446,5902.1289572488695
1.032,0.07251430610631408,5898.917286961957
1.036,0.12345104086463987,5901.716439466667
1.04,0.16700918679311602,5900.679998718315
1.044,0.19579149847465102,5902.047251828665
1.048,0.20102473503024826,5895.746238308646
1.052,0.1749614833826422,5900.204319715351
1.056,0.11348159781073389,5895.772647422953
1.06,0.01831021146293507,5895.018097471093
1.064,-0.10163288829565732,5908.871773751608
1.068,-0.23031257645825434,5894.61032418413
1.072,-0.3465732110613964,5896.169429167374
1.076,-0.42812718036214353,5905.619227390281
1.08,-0.45689049257884623,5894.944139901598
1.084,-0.4240257113992299,5891.050169337293
1.088,-0.33246084664130715,5906.361917235474
1.092,-0.1955121344573531,5900.359310063789
1.096,-0.03238862858646501,5894.446173994842
1.1,0.13691446886293948,5906.552709351733
1.104,0.29493458398678557,5899.893288177959
1.108,0.427462712569955,5891.02807721908
1.112,0.5225291020364846,5898.278520690827
1.116,0.5693397831365548,5904.53848985131
1.12,0.5586708259452705,5900.915406144092
1.124,0.48519897583324983,5893.00708545712
1.128,0.3508572228514816,5908.350942460451
1.132,0.16741022034997777,5896.32293451438
1.136,-0.043390987433494246,5906.124274337025
1.14,-0.2526447628805558,5907.960378427614
1.144,-0.4293085428966013,5908.970475688028
1.148,-0.5457103165630466,5901.131997809192
1.152,-0.5822065620701354,5898.797809834535
1.156,-0.5306242297687876,5892.199016915705
1.16,-0.39653794310092955,5911.215146263112
1.164,-0.1999372366204202,5905.682546266014
1.168,0.026638010272893503,5909.854758711624
1.172,0.24306917664944344,5903.697782193975
1.176,0.40928430971275254,5900.421839184695
1.18,0.4939522312481769,5904.213764115295
1.184,0.481871056385143,5909.043008738692
1.188,0.37762150019419904,5903.3972453843335
1.192,0.2040952554987793,5895.738575918983
1.196,-0.003567040392363358,5901.46004940022
1.2,-0.20636070990034414,5899.741269084328
1.204,-0.36945712912005274,5897.154899985221
1.208,-0.46821065903500136,5898.956932852083
1.212,-0.49170370904312644,5905.109774642596
1.216,-0.4439148269132628,5901.275929889953
1.22,-0.34242796684753063,5903.741108909127
1.224,-0.21456324021117118,5902.391108465542
1.228,-0.09136392013567793,5895.59386973351
1.232,-0.000710473969756212,5902.934456596422
1.236,0.03863770468483432,5898.943135077093
1.24,0.020378074049147748,5903.595446555552
1.244,-0.04953689673856032,5894.88960427221
1.248,-0.1562763288866694,5904.883872527909
1.252,-0.28105944971619506,5890.759794472327
1.256,-0.40552566620612873,5900.979361961085
1.26,-0.5141285814782605,5904.612513497532
1.264,-0.5945753297612203,5908.419168410689
1.268,-0.6374511616235464,5914.154892783366
1.272,-0.6362046475344728,5892.884474102766
1.276,-0.587913745503646,5901.619741687823
1.28,-0.4945260972168136,5900.564406088547
1.284,-0.36388762552438164,5899.7069573544
1.288,-0.20973352284250277,5896.503142462692
1.292,-0.05001938555416009,5896.217818601807
1.296,0.09631019500524107,5904.333297712675
1.3,0.213115760491663,5902.512571664822
1.304,0.2900344632982316,5895.442882178048
1.308,0.3236516953447964,5895.07967046978
1.312,0.3167137086603217,5897.198765142687
1.316,0.27598082034513965,5897.6015832855255
1.32,0.20976263001042966,5893.410051844017
1.324,0.12611936706451954,5899.556385734852
1.328,0.032186805080793364,5902.786312929973
1.332,-0.06556561497869381,5904.340784852279
1.336,-0.16075478979524271,5895.053402395649
1.34,-0.24684822471893322,5902.361572004305
1.344,-0.31762893646184537,5896.864356419052
1.348,-0.36821479388365264,5891.4278863278405
1.352,-0.39611653274642855,5897.772600130091
1.356,-0.40183305846886574,5905.935598900975
1.36,-0.3888537362164216,5905.833129499465
1.364,-0.3633181664309533,5900.886229413913
1.368,-0.3336039572190028,5899.302560399268
1.372,-0.30982261426924346,5893.701271886017
1.376,-0.3029444796618557,5903.741959006788
1.38,-0.323233257996727,5896.53852404983
1.384,-0.37788827392218965,5896.544599812186
1.388,-0.46824921878970854,5905.965357517248
1.392,-0.5874411193029349,5899.2400358247605
1.396,-0.7196723689478493,5896.644230719025
1.4,-0.8422236271783677,5913.890295277253
1.404,-0.9302108571091953,5899.842830083109
1.408,-0.962858203187974,5897.368000705504
1.412,-0.9292316990438638,5917.692566640705
1.416,-0.8315817048535038,5898.495247069492
1.42,-0.685239861776387,5895.643761319139
1.424,-0.5150503646126093,5902.159337736746
1.428,-0.34942455782829474,5893.424495301879
1.432,-0.2138604847096615,5905.291996204162
1.436,-0.12564680944369938,5893.296445633448
1.44,-0.09068587167484837,5898.490052643973
1.444,-0.10280568223831693,5895.556864843758
1.448,-0.14585303446060066,5909.793137422469
1.452,-0.19848759951965317,5898.026995699797
1.456,-0.24048316014413845,5894.41862577279
1.46,-0.25830454897478183,5903.491918635538
1.464,-0.24782349633550269,5889.983804253761
1.468,-0.2132947419663364,5894.458485992086
1.472,-0.16332579599398644,5901.767340639888
1.476,-0.10577496681184681,5901.985873223338
1.48,-0.043862470557123424,5905.440148681662
1.484,0.024880604918285396,5897.499285332424
1.488,0.10651998184684784,5894.04721266576
1.492,0.20642645084115227,5904.344851622795
1.496,0.3244407259263663,5892.385138409187
1.5,0.45130217888773594,5902.5061691177625
1.504,0.5678250378329611,5894.606613229322
1.508,0.6475632452874767,5902.376115377853
1.512,0.6626824402399882,5900.783285840439
1.516,0.5917306829445365,5895.705888295909
1.52,0.42726722923065164,5903.461334394922
1.524,0.18105132109377595,5903.24320546318
1.528,-0.11518268010312928,5892.902275367575
1.532,-0.41435349342856087,5901.501762494623
1.536,-0.6635121632937544,5901.459786944488
1.54,-0.8159515108315012,5902.006809498444
1.544,-0.8426611785166148,5901.152639034324
1.548,-0.7399995080267316,5901.059064581019
1.552,-0.5316852107233851,5906.344251481498
1.556,-0.2647158188878694,5908.814875734827
1.56,-3.76381097916415e-05,5901.465832242731
1.564,0.2002704033515232,5900.344367967835
1.568,0.28691316579581744,5901.418889283002
1.572,0.23596709468810614,5905.498434776195
1.576,0.058115719397630446,5903.180423605771
1.58,-0.19725097616308584,5895.830524414187
1.584,-0.44495002258129607,5901.791619400731
1.588,-0.5755221011712826,5892.518578054846
1.592,-0.4754493101930753,5904.689670343892
1.596,-0.05339015211120542,5897.375862594599
1.6,0.7334518303175688,5893.501306974785
1.604,1.8608165047218583,5909.63297957619
1.608,3.2342708876306574,5895.091067306025
1.612,4.705214474986878,5897.108034456484
1.616,6.103025355541227,5894.678667184931
1.62,7.2734012715738485,5896.490321626309
1.624,8.109973492631093,5902.895731663639
1.628,8.569657098533426,5895.274933529641
1.632,8.669770032310765,5904.4363700967615
1.636,8.471956926337688,5901.32915895162
1.64,8.061071438908817,5896.325805226274
1.644,7.526163388224685,5903.6708800359
1.648,6.947418052118515,5893.369358115223
1.652,6.389420423312613,5889.602557135802
1.656,5.898823967174366,5906.141469825537
1.66,5.503987317683313,5902.281810452168
1.664,5.215237161938561,5896.65759691713
1.668,5.025968388357525,5908.635160945823
1.672,4.915428962286771,5906.72546350859
1.676,4.853511288965248,5888.124499958741
1.68,4.806966730226511,5894.699787594842
1.684,4.745767257313076,5896.136825041126
1.688,4.648032537743184,5902.578554895988
1.692,4.502308934023431,5897.872316321577
1.696,4.307102231912608,5900.929998805387
1.7,4.068708571915571,5896.889070251106
1.704,3.7986908602591565,5896.492673840485
1.708,3.5118062494268893,5893.167528173275
1.712,3.224454640034306,5906.638620417303
1.716,2.9532812423007213,5904.517784998572
1.72,2.713543453167029,5902.471661676559
1.724,2.517130488550488,5897.836689826146
1.728,2.370484327610054,5898.13252241076
1.732,2.272981056013761,5896.224906262211
1.736,2.216550863558173,5897.397940429021
1.74,2.1872038014869593,5894.378379917092
1.744,2.1684025118918457,5906.311811736384
1.748,2.1452088399596962,5903.272178479394
1.752,2.1076552330919185,5902.956759355879
1.756,2.052185736330661,5902.358977564722
1.76,1.9808650705187159,5895.5914673457255
1.764,1.8989160684484896,5899.317073419084
1.768,1.8117542336326047,5897.452300996976
1.772,1.7227554853903853,5907.469292550978
1.776,1.6324649318847617,5896.762317523422
1.78,1.5392577016082816,5900.111072228326
1.784,1.4410317266352166,5907.548072685577
1.788,1.337337289735793,5901.110232166699
1.792,1.231242240882445,5901.248771334198
1.796,1.1302015780145696,5895.966855551683
1.8,1.0453700754694661,5903.368703229092
1.804,0.9892343401995778,5896.574524780141
1.808,0.9721102264827046,5900.1840956075
