时间(s),电压(V),幅值(高频80K)
0.0,0.1489940683153168,5906.599137882717
0.004,-0.16584755283127012,5906.92467948662
0.008,-0.4354063143416269,5906.413380522468
0.012,-0.6192082752823752,5901.573663450628
0.016,-0.6925366172217579,5908.073181995684
0.02,-0.6515512885916762,5902.587682865563
0.024,-0.5137596654617043,5901.560535299881
0.028,-0.31335206103964397,5898.146171092938
0.032,-0.09312488313964257,5908.908198940134
0.036,0.10407256287659715,5895.500712694992
0.04,0.2422384530677735,5895.927204588286
0.044,0.296963173482772,5907.438889503
0.048,0.2582010260772791,5893.679287167762
0.052,0.1309164021010199,5896.511114095137
0.056,-0.06661869634064103,5899.8066324954025
0.06,-0.30635307908474957,5903.078007091839
0.064,-0.5546969409303862,5895.925458722526
0.068,-0.7768144484947009,5888.177643075589
0.072,-0.941146516257005,5906.077011348363
0.076,-1.0243134589017855,5903.034240185291
0.08,-1.0155720839962399,5902.302341902283
0.084,-0.9192109337957879,5900.34859184026
0.088,-0.7536306035859893,5894.934271480748
0.092,-0.5471840889919454,5902.106097076982
0.096,-0.33209610384139504,5898.257628859284
0.1,-0.13817508072873164,5911.178329307956
0.104,0.012257341444675201,5899.909277941752
0.108,0.10722456482082347,5910.745372551584
0.112,0.14522274828476403,5895.870443160056
0.116,0.13285218759001985,5894.939197963577
0.12,0.08106628736764256,5901.071188536998
0.124,0.0016114398335256921,5892.241658679908
0.128,-0.09501489386472192,5898.272414732205
0.132,-0.19948779441317255,5893.827797865876
0.136,-0.30180260959920646,5898.188754035087
0.14,-0.3890614486132279,5896.738136197265
0.144,-0.44504008958808966,5899.123530573767
0.148,-0.4530977902213901,5895.521598816585
0.152,-0.4019339447644896,5899.96832461074
0.156,-0.2915428248134023,5896.427274397428
0.16,-0.13612490288716164,5899.906274553575
0.164,0.037950245356743004,5900.525126846168
0.168,0.1986609447583704,5907.814318717523
0.172,0.31681501230623105,5900.346918782541
0.176,0.37338849581955863,5892.33116040506
0.18,0.3635838099023227,5895.918653536624
0.184,0.29697630920141643,5903.5985231747045
0.188,0.1941663673942847,5906.387132011103
0.192,0.08093961215671713,5899.998689283539
0.196,-0.01850969671472415,5903.363752279773
0.2,-0.0873225253980258,5899.578803046541
0.204,-0.11896123699416927,5901.675832258609
0.208,-0.11678562029906334,5906.683060156447
0.212,-0.09093283186795671,5899.533065185443
0.216,-0.05403667029872355,5902.363234724075
0.22,-0.01726048759663795,5906.363169540056
0.224,0.012399321671793594,5904.661707840039
0.228,0.033037020825859735,5898.41096623129
0.232,0.046872366207311174,5908.230011156938
0.236,0.057851612407629524,5897.096525356577
0.24,0.06890550630314814,5898.837685729824
0.244,0.08012611981151768,5899.172608345412
0.248,0.08854192629022087,5900.124650907191
0.252,0.08920402198353608,5903.070009642408
0.256,0.07671658244684053,5900.012591500647
0.26,0.04658541235562322,5898.896497743936
0.264,-0.0036973527297488227,5899.271857438743
0.268,-0.07385308197854708,5905.404649224889
0.272,-0.16051445134574094,5896.991259934268
0.276,-0.2573739576777737,5903.473249319932
0.28,-0.35536197464542885,5905.754970409345
0.284,-0.44280817048178,5910.266953823955
0.288,-0.5063527089685352,5903.384499419957
0.292,-0.5333835361740474,5901.118248607765
0.296,-0.5156148880897546,5891.366169615269
0.3,-0.45222538761206893,5905.4037468559445
0.304,-0.3510129784971537,5900.218764056514
0.308,-0.22715291658018943,5896.043095568964
0.312,-0.10017354416529073,5896.121916525259
0.316,0.009892325404285855,5897.296991642548
0.32,0.08619742678617169,5904.578285077375
0.324,0.11770869650714472,5903.085867611713
0.328,0.1003138204935751,5897.119363675201
0.332,0.03667189035547131,5896.48201018746
0.336,-0.06448641423116172,5899.861415974531
0.34,-0.1891031638617492,5907.779604487071
0.344,-0.31871969491073965,5898.177788532377
0.348,-0.43230168486604703,5899.972563340905
0.352,-0.5096119829972462,5897.901485988664
0.356,-0.5358010777808695,5905.622481675253
0.36,-0.5055224558478081,5898.090218831062
0.364,-0.4243515572188983,5901.382395329383
0.368,-0.30646191077555973,5896.766934555214
0.372,-0.16974788210205669,5902.878859122754
0.376,-0.03102278573844905,5899.996029300469
0.38,0.09661797642535987,5894.3328409438445
0.384,0.2039863800217979,5899.99286384772
0.388,0.28470907451826294,5912.41611233836
0.392,0.33423306521197316,5903.090385326334
0.396,0.34958305892956537,5902.915172906888
0.4,0.3296413854438979,5901.010742858417
0.404,0.27535727407095256,5903.371914170399
0.408,0.18962416578142607,5896.3040878403735
0.412,0.07709845380181439,5909.29172400258
0.416,-0.05570376614536812,5902.599215630189
0.42,-0.2001393448815961,5896.943418028372
0.424,-0.34542022706839476,5907.980678535121
0.428,-0.4790153749243595,5897.504977413048
0.432,-0.5872460772362488,5900.649220523396
0.436,-0.655994289942869,5900.431557692861
0.44,-0.672026350391784,5902.853700056991
0.444,-0.6256025732135515,5893.934544425345
0.448,-0.5142899671834968,5906.884959715691
0.452,-0.34664465528933347,5897.823579927659
0.456,-0.14365151110480034,5892.103193631479
0.46,0.06373446570855916,5909.274536694866
0.464,0.24095208716190517,5901.12182661319
0.468,0.35815330879395,5897.536569604762
0.472,0.39740743417037755,5898.160055655211
0.476,0.3561432389708245,5897.454347430967
0.48,0.24593306963625272,5904.790329944009
0.484,0.08771871311331916,5903.408223887606
0.488,-0.0943200948604283,5904.025338705061
0.492,-0.2781429026802288,5899.492963263192
0.496,-0.44706685560829884,5895.698085112667
0.5,-0.5902333366973476,5900.934999393508
0.504,-0.7007792671010299,5904.57547849188
0.508,-0.773386365077276,5903.851683378307
0.512,-0.8032679555345316,5890.30370885531
0.516,-0.7874831341537593,5904.34441628151
0.52,-0.7275814964362961,5901.055451550759
0.524,-0.6315267351832337,5899.214460816898
0.528,-0.5133117873162337,5907.365104605296
0.532,-0.3901738792216275,5892.048189518559
0.536,-0.2787525838164173,5893.348088757355
0.54,-0.19193547120156468,5894.498088519978
0.544,-0.13738252871770434,5900.942337459716
0.548,-0.1176129073990227,5900.00463095763
0.552,-0.13090191859737113,5898.583112001105
0.556,-0.1722360692768718,5900.408724280855
0.56,-0.23395635237761966,5909.471546654782
0.5640000000000001,-0.30617493193137163,5893.399532839445
0.5680000000000001,-0.37728645618994516,5899.877166014993
0.5720000000000001,-0.43483085006837435,5900.346380616204
0.5760000000000001,-0.46685030387570897,5905.04182326172
0.58,-0.463919862627018,5891.92265077678
0.584,-0.4218832181376212,5895.212314996844
0.588,-0.3445520885420377,5903.644861588986
0.592,-0.24475628570193234,5894.844943352059
0.596,-0.1423779106167869,5899.654123836619
0.6,-0.0595349166172505,5893.763036475701
0.604,-0.014635707766782725,5892.384884405701
0.608,-0.017547958257028252,5898.717344269455
0.612,-0.06763471826900268,5892.035525480281
0.616,-0.155255245375429,5901.799847094265
0.62,-0.2658139267634849,5902.996358774973
0.624,-0.3842993858061451,5892.821548708462
0.628,-0.49828656197016635,5891.315023622401
0.632,-0.5984993283429098,5901.958008109853
0.636,-0.6774757311738796,5905.687632887568
0.64,-0.7279714712111801,5893.016015188075
0.644,-0.7429388482895721,5898.371174913286
0.648,-0.717834373398429,5889.294199600169
0.652,-0.654112841143764,5900.479499514206
0.656,-0.561476902715995,5906.344091453897
0.66,-0.45686679346144293,5895.149281687804
0.664,-0.36000607009139995,5899.899251055326
0.668,-0.28728380916710244,5898.91067100103
0.672,-0.24666492764622452,5896.530995303124
0.676,-0.2357521188972322,5904.0920806780805
0.68,-0.2435199929018612,5900.062322442907
0.684,-0.25459386324003963,5895.772682124044
0.6880000000000001,-0.25415136686345624,5898.501713344074
0.6920000000000001,-0.231833894955881,5904.064493160343
0.6960000000000001,-0.18395805464360857,5896.509594748878
0.7000000000000001,-0.11404462226671887,5897.793197984213
0.704,-0.031893595330697855,5903.22593145148
0.708,0.04864583882375596,5894.093133221484
0.712,0.11307628545504006,5898.640771403932
0.716,0.15045362162536904,5889.485221733603
0.72,0.15748144094519856,5903.952575847268
0.724,0.14093888332496976,5902.366231837372
0.728,0.1167502576203656,5897.554211521804
0.732,0.10506596866483318,5904.830334723511
0.736,0.12273646155956458,5896.520725477211
0.74,0.17622227143017052,5900.723780466793
0.744,0.2580803204160616,5893.525940907894
0.748,0.34861776869503275,5899.964374955451
0.752,0.422014445897453,5907.561801787191
0.756,0.45435105786594937,5892.826779732797
0.76,0.430421373267311,5895.499506645399
0.764,0.347121164621449,5899.506693956945
0.768,0.21291977292359257,5898.099499187837
0.772,0.04441835472979932,5896.085498610717
0.776,-0.13834724182145586,5898.552934973389
0.78,-0.3163505673884452,5903.375477597201
0.784,-0.4747079020294372,5902.604405351507
0.788,-0.6038664421568408,5899.656203065644
0.792,-0.6988512654700977,5895.955066743149
0.796,-0.7575049044073809,5901.383878806356
0.8,-0.7791332256748053,5903.456520211955
0.804,-0.7643964527350954,5900.560739831955
0.808,-0.716185326761055,5899.971922374024
0.812,-0.6405587772415471,5898.9660433148665
0.8160000000000001,-0.5468809530624893,5897.491826276546
0.8200000000000001,-0.4467689044618542,5908.650415506401
0.8240000000000001,-0.35201593706882306,5904.34624626946
0.8280000000000001,-0.27207337993569275,5897.183062844473
0.8320000000000001,-0.21178195020603705,5903.7068843439065
0.836,-0.16989151451698878,5897.659519080955
0.84,-0.13883806371902116,5897.347141440881
0.844,-0.10640819532044114,5891.110783504225
0.848,-0.05980533871129479,5902.8807845893725
0.852,0.0084245233489861,5900.384296064338
0.856,0.09484292474206861,5899.371724489345
0.86,0.1830615838641682,5899.569901893893
0.864,0.24717362049566982,5898.345814617973
0.868,0.2600069884980435,5897.305995229265
0.872,0.2030641391309587,5890.707929994251
0.876,0.07418323229908456,5899.997349455701
0.88,-0.10998270432269583,5900.738243907941
0.884,-0.3173890542840989,5902.881601593535
0.888,-0.5085296936478652,5899.557601863635
0.892,-0.6463324796694342,5902.180954422123
0.896,-0.7053757327616733,5903.068162889062
0.9,-0.6781668502793747,5907.600150581108
0.904,-0.5767457070420382,5901.327169753785
0.908,-0.42883939007882704,5903.846824421689
0.912,-0.2695139905649714,5897.733725995631
0.916,-0.13111158455995106,5903.719926528408
0.92,-0.034990657146540344,5905.692940253291
0.924,0.012334280986594554,5895.689630949634
0.928,0.01800215001560004,5908.175562160078
0.932,-0.0022310369906894376,5907.6122143553375
0.936,-0.030610560006318,5887.118581078023
0.94,-0.05314430554008299,5893.062904224114
0.944,-0.06266376242715109,5904.16022083107
0.948,-0.058614525506904984,5890.174872362127
0.952,-0.04452679420588865,5895.162630894736
0.956,-0.02506162854541991,5906.496367866098
0.96,-0.00432935781555858,5903.99334643388
0.964,0.013943621585653262,5896.40925228288
0.968,0.02508458914753753,5895.41693142108
0.972,0.022368931986052956,5901.594609536428
0.976,-0.002596462408237634,5905.211474740695
0.98,-0.05754407272723821,5901.083601711116
0.984,-0.14589436378644624,5894.472647532713
0.988,-0.26328481271042864,5903.635744829479
0.992,-0.3960665294682396,5907.682073775149
0.996,-0.5229869404310867,5907.191941893332
1.0,-0.6199172472473633,5897.692704046583
1.004,-0.6659548030160404,5910.799892027407
1.008,-0.648514683252204,5896.651742369935
1.012,-0.5656681753793958,5899.124865114255
1.016,-0.4255057006929077,5893.101650435709
1.02,-0.2436155549582586,5905.858951046552
1.024,-0.040143044364952966,5890.101270939295
1.028,0.1626360950703735,5904.261061381528
1.032,0.3421629232609544,5904.833600628651
1.036,0.4773783165693274,5898.828324149075
1.04,0.5509334802081997,5890.823587698131
1.044,0.5518194444475787,5906.070538359717
1.048,0.4778358314296075,5905.302074042132
1.052,0.33704026553809907,5888.831899578639
1.056,0.14745310121753574,5893.145384634306
1.06,-0.06526921716905376,5896.753353764908
1.064,-0.27192843249111137,5904.158811287742
1.068,-0.444860103709673,5899.062438654251
1.072,-0.5628152462068243,5900.683123969385
1.076,-0.6144114696345169,5908.206717111571
1.08,-0.5993703302323183,5908.549066595448
1.084,-0.5275760111394924,5902.707380734799
1.088,-0.41663118989095393,5902.261451519229
1.092,-0.28864335877579506,5898.454351210272
1.096,-0.16667914557203903,5906.725533699083
1.1,-0.07118382718170442,5885.144341180965
1.104,-0.01678549656091948,5895.836900587431
1.108,-0.010048043290259661,5903.859009277568
1.112,-0.04872696901345709,5906.723069023403
1.116,-0.12282019232537539,5894.253316497866
1.12,-0.21718193273208425,5893.102437838383
1.124,-0.3149454154519023,5903.735004908045
1.128,-0.4008246642853851,5909.566194079908
1.132,-0.46355694176218926,5896.374358764223
1.136,-0.49708546479978205,5893.511767906701
1.14,-0.5004604173918014,5900.209776291742
1.144,-0.47680582253804416,5897.547205647828
1.148,-0.43184007599437213,5911.04454940806
1.152,-0.3722334530212222,5899.180986836528
1.156,-0.3039049287119284,5907.214342609967
1.16,-0.23061383535390165,5889.630015720233
1.164,-0.15362100063917764,5900.171585357769
1.168,-0.07307230086058612,5899.493097546606
1.172,0.009160905671637009,5897.752370446102
1.176,0.08660669998656831,5905.762206056481
1.18,0.14718450792851048,5897.794575809882
1.184,0.17529389239464208,5898.942476119953
1.188,0.15675625389470052,5900.346212382616
1.192,0.08486993008185456,5901.777679678312
1.196,-0.0349737206498548,5899.048403169543
1.2,-0.18433929558372944,5892.764334986963
1.204,-0.335256708485229,5899.726397862435
1.208,-0.45717057694431656,5898.289873873112
1.212,-0.5250887388849858,5894.359314620267
1.216,-0.5265347923169612,5902.757849692951
1.22,-0.46545999502756363,5905.838226628698
1.224,-0.361913257743483,5898.262166950408
1.228,-0.24703166117014563,5903.2745044846
1.232,-0.15427866222548445,5895.15388499345
1.236,-0.10959102245746688,5904.3828312388105
1.24,-0.12398088603615935,5900.771691918031
1.244,-0.19123898333014921,5905.38387532604
1.248,-0.2911641823412627,5900.068132718628
1.252,-0.39660112588707885,5897.895008334821
1.256,-0.4815229013734311,5906.96337968964
1.26,-0.5275691487982198,5909.348935382756
1.264,-0.5274893121204649,5891.886873574983
1.268,-0.485300269815986,5901.573305511255
1.272,-0.41388339184236783,5887.4421750361225
1.276,-0.3308536215760466,5902.594048019134
1.28,-0.2534803283290516,5895.336639841281
1.284,-0.19391312429316684,5907.754214101959
1.288,-0.15640045521965604,5898.713753289134
1.292,-0.13751654191210863,5908.83996887534
1.296,-0.12879514074041115,5886.452079897266
1.3,-0.12003912764317701,5899.988247898817
1.304,-0.10192968619764671,5911.08381742394
1.308,-0.0677881720324356,5910.713820318084
1.312,-0.01502497489989385,5900.437568219518
1.316,0.05362838167269504,5904.940467414179
1.32,0.12979396389889317,5894.236789343765
1.324,0.2008371173173921,5895.8629290785175
1.328,0.25308563001677575,5892.792761692246
1.332,0.2760139021867204,5912.8596879958295
1.336,0.2657606499030145,5901.071060721837
1.34,0.2263237294753844,5902.025329766887
1.344,0.1679425111741584,5906.785665736056
1.348,0.10390064342363829,5901.1468002227775
1.352,0.04764744055719871,5904.300943397794
1.356,0.011090490550963483,5893.350411452149
1.36,0.0033857079599643753,5903.25925227356
1.364,0.02917639692544008,5899.714665802389
1.368,0.08632689924825292,5895.415818345139
1.372,0.16459815854086288,5899.57644614918
1.376,0.24693303833862265,5902.0348652432185
1.38,0.3137010801016053,5897.968201339169
1.384,0.34851340528944635,5891.410563258552
1.388,0.34336554820833276,5895.347809867916
1.392,0.30119583715662407,5897.057907106345
1.396,0.23502447963344741,5899.589405228598
1.4,0.16410385840100583,5895.825135490195
1.404,0.10832689449145191,5893.912742901154
1.408,0.08224301685460508,5898.960741452587
1.412,0.08996519988093253,5899.037000912154
1.416,0.122455718516998,5895.886393860902
1.42,0.15865679869927454,5903.031689181363
1.424,0.17103051694123586,5899.584555133172
1.428,0.13435817890038124,5897.924095750404
1.432,0.034887370640318154,5908.358548055871
1.436,-0.12378621008565664,5900.11643373914
1.44,-0.32062857537283634,5904.620031451724
1.444,-0.5229533214567408,5899.010975531547
1.448,-0.6957518834782306,5902.952990101023
1.452,-0.8110981003397509,5905.423710070698
1.456,-0.8545847556792937,5897.544784378691
1.46,-0.8271974063606065,5899.59042988907
1.464,-0.7427687538036816,5900.665618751793
1.468,-0.6225929223621406,5899.824488214621
1.472,-0.4894898489006306,5900.935911928803
1.476,-0.36339961513472624,5903.937243823611
1.48,-0.2594978217194865,5891.794718726338
1.484,-0.1882856171562267,5890.518858329001
1.488,-0.15607627608470112,5908.773426928172
1.492,-0.16458674193856426,5898.740688773419
1.496,-0.20964554718981487,5895.435386350051
1.5,-0.28021153944294486,5902.342873230547
1.504,-0.3591283674707213,5899.9003331209615
1.508,-0.4262238098570813,5901.7356875313
1.512,-0.46302502957667524,5898.634525274858
1.516,-0.4574365501561942,5903.739597494416
1.52,-0.40682776017104927,5907.379317144592
1.524,-0.3187702889607393,5894.29971469381
1.528,-0.20943341205270574,5906.351093703563
1.532,-0.10013985597371206,5893.699802648212
1.536,-0.012929172242084778,5899.557426340019
1.54,0.03385871080374463,5904.186540390264
1.544,0.029090328272099716,5897.354642234541
1.548,-0.02916581344185051,5903.049561933764
1.552,-0.13346823439372163,5900.471157520549
1.556,-0.2686169757745666,5895.672074845842
1.56,-0.4145821196510241,5894.803679901975
1.564,-0.550032063663017,5894.000433326684
1.568,-0.6558455034016145,5906.459323578724
1.572,-0.7181547627524527,5900.429501420963
1.576,-0.7304778016234595,5903.744362045229
1.58,-0.6945353854977916,5903.175383259419
1.584,-0.619551865061548,5899.638854829142
1.588,-0.520083477553666,5901.121458936315
1.592,-0.41272725144211114,5901.007843068059
1.596,-0.312498931813332,5903.337399447662
1.6,-0.2299129273035311,5901.215738258622
1.604,-0.16951556083483635,5903.663222427714
1.608,-0.13004914977979734,5891.083854703564
1.612,-0.1060116209781434,5902.175599765226
1.616,-0.09016286284309138,5894.5349720737095
1.62,-0.07632906274887573,5906.926981181957
1.624,-0.06166888204646884,5910.618625588584
1.628,-0.04753317350477287,5902.459076033097
1.632,-0.03842706547413936,5903.00770153019
1.636,-0.03948978898537629,5899.560333903012
1.64,-0.05377822472616318,5911.049079647756
1.644,-0.08063079239328347,5896.068741581578
1.648,-0.11550651294698407,5905.933727506416
1.652,-0.15084179344674778,5905.890940570053
1.656,-0.17738333159593794,5899.809569950916
1.66,-0.18595321559968428,5897.591490517155
1.664,-0.16983952210327152,5904.956428008683
1.668,-0.12747178301184525,5898.593348185527
1.672,-0.0641832289404924,5901.340337583936
1.676,0.008313974590873803,5896.672085247944
1.68,0.07504890949919554,5894.904117038412
1.684,0.12213748767912103,5905.451132640059
1.688,0.1401170531084902,5898.412724368412
1.692,0.12479518165297147,5898.610911602106
1.696,0.0759172954804914,5901.107192367343
1.7,-0.0046449082952844485,5894.098013028403
1.704,-0.11351593655875789,5902.988310320321
1.708,-0.2449488863682428,5908.476487973312
1.712,-0.38959898515614877,5907.89462136621
1.716,-0.5343030225286237,5897.621894733125
1.72,-0.6633668913860573,5905.291369017871
1.724,-0.7610531525541542,5905.350119591144
1.728,-0.8147642350861125,5893.509306375275
1.732,-0.8183057220353906,5900.22821052912
1.736,-0.7742114663901319,5891.672515678678
1.74,-0.6939559372286151,5905.138215909477
1.744,-0.5955258221400932,5895.600558835456
1.748,-0.49898539846508166,5900.343138570875
1.752,-0.4215761348050605,5895.845971070828
1.756,-0.3739619662464606,5904.655916375847
1.76,-0.3584796778415317,5903.277827584971
1.764,-0.36937592058547586,5894.941489381089
1.768,-0.3947039073468864,5896.331297925507
1.772,-0.41962715841606285,5899.937226730605
1.776,-0.43064706985070994,5898.624657419929
1.78,-0.41965052029025285,5903.522506523347
1.784,-0.38629271078933997,5898.193826785849
1.788,-0.3376216709306469,5892.172496564297
1.792,-0.2849362842315204,5903.400191701089
1.796,-0.23909624741026705,5907.3145355722345
