时间(s),电压(V),幅值(高频80K)
0.0,-0.23476815866880302,5901.6215057605805
0.004,-0.17622441858578425,5899.4925069212
0.008,-0.11742650239991631,5901.532681926299
0.012,-0.057489393152001675,5894.958241569165
0.016,0.0031028841355342477,5900.00986920786
0.02,0.061977967687791305,5899.428483955119
0.024,0.11523464482459339,5891.9242801267765
0.028,0.15888425208835025,5893.440160908667
0.032,0.1905251157273215,5901.356809020218
0.036,0.21012613828737042,5901.687918768836
0.04,0.21970359641090473,5900.800237863137
0.044,0.2224819571234094,5907.416720534363
0.048,0.22187054941840137,5901.652878236509
0.052,0.2199663265265517,5901.515569249866
0.056,0.21551506770908174,5895.1808209470455
0.06,0.20235332682316473,5903.76186765131
0.064,0.1700098934346586,5897.900477934776
0.068,0.10726127962810837,5896.187015855195
0.072,0.007472665371539945,5903.275465580581
0.076,-0.12692350275737235,5899.300080183589
0.08,-0.2832845080129542,5904.2362217073605
0.084,-0.44170166556456897,5908.877743389249
0.088,-0.5807560892386727,5897.362071937209
0.092,-0.6837701015057149,5898.700071072817
0.096,-0.7433940762260914,5903.093891861066
0.1,-0.7630885325084302,5897.765283602475
0.104,-0.7550176926255171,5898.573241177881
0.108,-0.7351540373610957,5902.2859449032285
0.112,-0.7175886902394699,5894.832392605244
0.116,-0.710164625947815,5905.4329672036565
0.12,-0.7124179105854918,5896.8357247367485
0.124,-0.7157375769975266,5906.887208276369
0.128,-0.7057292005994747,5904.533645092036
0.132,-0.6670775481119712,5899.0243090822905
0.136,-0.5901630704939824,5895.643480063296
0.14,-0.47672257092836934,5904.044057459597
0.144,-0.34122377810203447,5895.871715746143
0.148,-0.20658100118237832,5889.755451681877
0.152,-0.09602043122090435,5895.51954324775
0.156,-0.024885156518985835,5893.937112751988
0.16,0.0042404236929185326,5895.479044248436
0.164,0.0017783464913252397,5903.577398467848
0.168,-0.012478338105881854,5909.708049399678
0.172,-0.01520655503853617,5913.261489107058
0.176,0.014066716951441237,5895.438317071045
0.18,0.08746174623932639,5898.812459457005
0.184,0.20528155006275317,5899.161098604165
0.188,0.35530027876898346,5896.467298532997
0.192,0.5149339797992826,5900.918818634134
0.196,0.6560025836046279,5905.362394784218
0.2,0.7514152047611454,5897.8797387424565
0.204,0.7822933013053578,5891.8359411602005
0.208,0.7430459608807007,5889.916042255737
0.212,0.6419723886993718,5905.425760649004
0.216,0.49690211287300445,5893.035083491687
0.22,0.3282407386075117,5893.864836962086
0.224,0.15331438753701526,5900.731441272899
0.228,-0.015333063600577458,5898.260213260707
0.232,-0.1680722750465659,5897.81284827303
0.236,-0.2955297004083518,5904.355033258447
0.24,-0.38799058576300616,5899.618553710024
0.244,-0.4376815404180348,5898.411438063316
0.248,-0.4423515710462757,5902.580608306522
0.252,-0.4076814334035011,5901.251523969892
0.256,-0.34710219782093005,5909.23952990018
0.26,-0.2793196750435627,5894.419663692217
0.264,-0.22467248985203533,5901.694296393313
0.268,-0.2011833317408818,5900.494961326375
0.272,-0.2208145349691852,5898.646567078499
0.276,-0.2865932970548389,5896.993395904968
0.28,-0.3913886024805525,5904.104243979531
0.284,-0.5187575948755123,5897.574407765221
0.288,-0.6457693889901182,5898.37656225865
0.292,-0.7473436989998034,5891.685275453781
0.296,-0.8012880047867947,5904.219899804096
0.3,-0.792904435103984,5907.0639472725625
0.304,-0.7179719332372659,5895.632120231395
0.308,-0.5832073236878257,5904.169857373032
0.312,-0.4041039232525759,5898.021732648127
0.316,-0.20118896163439012,5900.410189291432
0.32,0.0036038867844190438,5902.155742010359
0.324,0.18925155881561573,5900.291390193774
0.328,0.33661139157110526,5898.801856469528
0.332,0.4288543095842751,5895.129783477465
0.336,0.4523787244934274,5887.703318041439
0.34,0.3988526101464015,5899.848756427683
0.344,0.2681277873066804,5904.395746535945
0.348,0.07080344701179582,5894.480295888485
0.352,-0.17100674354183573,5907.0748160617695
0.356,-0.4254962500829635,5902.554151116894
0.36,-0.655556621824252,5896.505828297499
0.364,-0.8252372030452633,5890.3370388098165
0.368,-0.9072734472569352,5892.389650817848
0.372,-0.8898126889306924,5905.767920322406
0.376,-0.779843302977665,5900.506730324907
0.38,-0.6015057300114786,5899.492260296007
0.384,-0.3895452019565089,5905.779247773398
0.388,-0.18049325026483304,5895.26519671209
0.392,-0.005109664740989505,5899.9703770649285
0.396,0.11562760281937923,5900.234135703432
0.4,0.17113960740901754,5898.460648718747
0.404,0.1602245826947687,5899.374213920049
0.408,0.08986686965986444,5908.722271393723
0.412,-0.02596190500195077,5893.612315468375
0.416,-0.1680930299298467,5900.014140712914
0.42,-0.3147848829297808,5898.233119162482
0.424,-0.444873517946893,5901.704931665671
0.428,-0.5410897874616105,5902.352554555185
0.432,-0.5932088848147962,5902.394601827148
0.436,-0.6003839621861408,5903.281310265914
0.44,-0.5717314112450061,5904.936557412925
0.444,-0.5244010379914924,5892.470070818763
0.448,-0.47906237102124083,5900.740875618864
0.452,-0.4538289687778493,5906.749098959353
0.456,-0.45856312681311956,5902.097081679697
0.46,-0.4916744289367739,5901.594158669085
0.464,-0.5409288577808663,5892.9218984572735
0.468,-0.5884507151055721,5901.053414300649
0.472,-0.6180898651615934,5902.538895917914
0.476,-0.6217700779526972,5903.847975044521
0.48,-0.6018744270301426,5903.912094411335
0.484,-0.5690175087797577,5899.083021859505
0.488,-0.5368292427586839,5908.356942261721
0.492,-0.5161851081711393,5894.170487984264
0.496,-0.5108845865240165,5896.821184782509
0.5,-0.516069575298345,5903.419068977001
0.504,-0.5200055950432777,5898.085156147975
0.508,-0.5088695279080673,5901.944107684652
0.512,-0.4728692940093834,5905.680161452352
0.516,-0.41107194270172576,5900.110321456821
0.52,-0.3326190147349685,5909.217805982896
0.524,-0.2537870525571225,5897.217357297424
0.528,-0.19265735567349787,5891.970340637854
0.532,-0.16427843048572202,5893.262930868624
0.536,-0.178193099752281,5907.484249168999
0.54,-0.2380246611210542,5886.300607899402
0.544,-0.34146913872914436,5896.985301467663
0.548,-0.47955647775730614,5895.943697858866
0.552,-0.6356319249651078,5903.195135923071
0.556,-0.7856091161446268,5902.074685583597
0.56,-0.900889194359873,5895.011028988771
0.5640000000000001,-0.95417507313569,5900.700475505208
0.5680000000000001,-0.9267795022824448,5894.40990420595
0.5720000000000001,-0.8147380565209225,5905.824056464525
0.5760000000000001,-0.6311005759861292,5900.8757313580745
0.58,-0.4032313690972354,5901.788091359666
0.584,-0.16574725281991895,5893.370333197618
0.588,0.048766708145407185,5902.840599090921
0.592,0.21799231584688833,5902.202095351443
0.596,0.33379783659864315,5912.837806768887
0.6,0.40046196912564214,5894.181367523466
0.604,0.42871171429230276,5907.299456543945
0.608,0.42902836646244724,5901.903856752518
0.612,0.407473849055721,5909.208661369398
0.616,0.36529091267008573,5892.829868611959
0.62,0.30129308611213546,5905.264374678257
0.624,0.2151411978983476,5890.089013717067
0.628,0.11015553993829733,5896.5933612447725
0.632,-0.0048720186363410516,5902.193242969865
0.636,-0.11531624205040952,5901.573533332629
0.64,-0.20254325009007038,5894.40325033808
0.644,-0.2482505283385423,5897.146193702217
0.648,-0.24033416819056783,5900.067671115875
0.652,-0.17809062433309839,5897.004663247943
0.656,-0.0744784361255841,5897.065256408297
0.66,0.04578624331364325,5910.756215814566
0.664,0.1519834796174239,5905.403328141409
0.668,0.21531326559578842,5896.643878105897
0.672,0.21665597268529438,5905.963818818242
0.676,0.15201943990019426,5902.668645878143
0.68,0.03419666340211791,5904.711598569359
0.684,-0.11000291311673074,5904.98260924992
0.6880000000000001,-0.24653587793534995,5899.65481102847
0.6920000000000001,-0.34318854195614157,5906.338044422664
0.6960000000000001,-0.3781152277811308,5901.793002118315
0.7000000000000001,-0.34509665797583566,5892.2064386146
0.704,-0.2540726816856831,5895.63847315466
0.708,-0.1271802885942601,5902.130654870461
0.712,0.008125474357402419,5895.846813982911
0.716,0.12634716832749182,5896.344402281699
0.72,0.2089860885341319,5898.9471326027415
0.724,0.2460531021231512,5897.348091344588
0.728,0.23486232592406273,5908.370540612178
0.732,0.1780995541545409,5902.535689346915
0.736,0.08267924769887573,5909.255927665099
0.74,-0.04038238139906801,5892.972727885634
0.744,-0.17587038016821147,5893.613704191301
0.748,-0.3052240764660616,5898.123374762214
0.752,-0.4091964256994809,5903.174275733865
0.756,-0.47210992006841984,5900.206919556731
0.76,-0.48619064207680274,5902.6816575055045
0.764,-0.45400570904910187,5899.286005404691
0.768,-0.3879215787655731,5902.205449727942
0.772,-0.30694621928445076,5901.29070621307
0.776,-0.2321978271795729,5902.120860672368
0.78,-0.18230617589546508,5909.419278013207
0.784,-0.16976045095182776,5894.431521364808
0.788,-0.19883216244715826,5892.790386184691
0.792,-0.2651804974778615,5902.255846062823
0.796,-0.3568103665955562,5906.781482575073
0.8,-0.4560553600721163,5901.010895977616
0.804,-0.5425521397740344,5902.317814367607
0.808,-0.5972070142164347,5908.030452777196
0.812,-0.6066619339150249,5901.576661198494
0.8160000000000001,-0.56708170880929,5903.151741140633
0.8200000000000001,-0.4858104720922682,5896.9450023062855
0.8240000000000001,-0.3799162502721607,5901.986967881046
0.8280000000000001,-0.2717287997571739,5899.991550394437
0.8320000000000001,-0.18271958252663162,5903.061231217829
0.836,-0.12782872213069893,5899.444912557416
0.84,-0.11206875190447327,5897.097713935108
0.844,-0.13004401539623806,5901.393667572635
0.848,-0.16781057711248096,5892.999700240724
0.852,-0.20608646004151276,5897.898089552605
0.856,-0.22411054319700116,5903.542810075066
0.86,-0.20373836099231118,5891.9947786170105
0.864,-0.13329767408541718,5904.032993266714
0.868,-0.010574110023748468,5900.956277545371
0.872,0.15566151121573268,5901.507200772703
0.876,0.34605964476625867,5905.680174612598
0.88,0.533381962614044,5908.161471095497
0.884,0.687318715983983,5898.413693764875
0.888,0.7802906308372137,5908.266569791209
0.892,0.7924198807123565,5894.773148160444
0.896,0.7143688401384806,5899.49175737559
0.9,0.5481140564703199,5905.946465666783
0.904,0.3066540961989129,5899.689335476804
0.908,0.013386903142495183,5888.333374790742
0.912,-0.29910458370932336,5899.048240263621
0.916,-0.5918352522095154,5899.579695405051
0.92,-0.8244911666206254,5899.042856851306
0.924,-0.9624140913736542,5896.391021664074
0.928,-0.9839746106459019,5898.903416591674
0.932,-0.8863158759143942,5902.90953818923
0.936,-0.687628206706754,5899.561661347557
0.94,-0.4247569085111811,5905.18558662854
0.944,-0.1461193143359849,5901.455008149319
0.948,0.09847669690167526,5900.244795898214
0.952,0.2682612662077778,5905.029529961038
0.956,0.33929372761148746,5904.1130936027885
0.96,0.30782826956765597,5901.151785475037
0.964,0.18888938102847733,5903.282974472188
0.968,0.01095335472447926,5897.296870269111
0.972,-0.19138881921499312,5899.044810948014
0.976,-0.3845355931898314,5897.913750371797
0.98,-0.5410323370313521,5905.59037298868
0.984,-0.6422011030548749,5902.005972559611
0.988,-0.6785955075220488,5898.532089101026
0.992,-0.6489343615224374,5900.617354160863
0.996,-0.558191984092561,5899.158326242528
1.0,-0.41571633569034605,5906.5631920494025
1.004,-0.23425712399853732,5892.132056517526
1.008,-0.030026418425914123,5900.40795928443
1.012,0.17721326457734823,5898.816874278868
1.016,0.36537482823326745,5902.512430405516
1.02,0.5129810061995802,5906.0663752563805
1.024,0.6027679360469985,5897.2184032666455
1.028,0.6242641668663979,5888.252786522273
1.032,0.5743163020821593,5899.615218294167
1.036,0.4559493135345878,5899.608442434444
1.04,0.2770130988238015,5895.8670323615725
1.044,0.04991159274414976,5895.699524584682
1.048,-0.20767882761702575,5889.601154937186
1.052,-0.4726725537590084,5896.896208699607
1.056,-0.7186459127418656,5902.824712406879
1.06,-0.9201960036631922,5891.670840942756
1.064,-1.0579677615892382,5902.779214281091
1.068,-1.1222217363335107,5907.658669924441
1.072,-1.1135237509206324,5905.008356568001
1.076,-1.0404326948865232,5900.025607288297
1.08,-0.9154818101433664,5898.179558719827
1.084,-0.7517014176326408,5897.074516368474
1.088,-0.5615305309861859,5897.277903484292
1.092,-0.35810883999591814,5906.291843160261
1.096,-0.15700079451676163,5898.770850312018
1.1,0.02399165162663352,5901.252542383545
1.104,0.1678152348852112,5902.93593430952
1.108,0.26271376882138303,5900.650711747442
1.112,0.30589517257940707,5916.046984328248
1.116,0.3042389879259373,5893.160357373865
1.12,0.2713573912219739,5908.847196607233
1.124,0.22195635914529965,5902.157144089563
1.128,0.16581868647988146,5896.281974642501
1.132,0.10420614246959982,5897.783455684196
1.136,0.030472586903179177,5900.110237945127
1.14,-0.06536783155637911,5891.7723287513245
1.144,-0.19013483548192067,5900.082529315574
1.148,-0.3416856902959303,5900.388140317787
1.152,-0.506125836472439,5910.430385670779
1.156,-0.6593443828087088,5911.99498121434
1.16,-0.772704840112176,5903.692560315339
1.164,-0.8210095132200521,5895.529074212668
1.168,-0.7896502659675282,5902.22651086003
1.172,-0.6780772863836576,5898.778314802401
1.176,-0.49856976916602636,5892.860860272006
1.18,-0.27160975743275245,5908.542533551447
1.184,-0.020393225670418205,5910.334412317164
1.188,0.23321188629224887,5890.359591914875
1.192,0.47003405710315577,5894.975451363512
1.196,0.6725428251395245,5907.662515869118
1.2,0.8231088802033483,5893.072328815382
1.204,0.9040082065390065,5892.747619742239
1.208,0.9006955355875081,5905.991908154147
1.212,0.8076262174389169,5906.535306162083
1.216,0.6337772061220193,5899.043012999096
1.22,0.4044722856829348,5899.865122430891
1.224,0.15748196688685162,5901.7182881025
1.228,-0.0660332766126047,5903.0472026278585
1.232,-0.232588765952327,5899.208106091633
1.236,-0.32526189841163944,5890.780089938775
1.24,-0.3473546999947238,5896.965183840357
1.244,-0.32004325636218933,5891.874818471408
1.248,-0.27507673374410924,5898.77066611982
1.252,-0.24470652143311625,5896.774760621374
1.256,-0.25176684644330993,5891.338414072302
1.26,-0.3030439941995381,5896.853803834259
1.264,-0.38822904958940047,5892.606905829929
1.268,-0.4847472361617524,5889.370979973797
1.272,-0.5663726490829994,5901.840923573908
1.276,-0.6121024686669841,5899.35867297159
1.28,-0.6120631906119766,5900.824816187756
1.284,-0.5687909626498976,5909.33951650896
1.288,-0.49409042147510224,5902.089257917744
1.292,-0.40328235885070557,5897.467519309243
1.296,-0.30962733025372535,5894.679829623461
1.3,-0.22142525023712903,5897.986032484656
1.304,-0.1425574192534004,5902.36175766188
1.308,-0.0751431125606401,5898.453839774437
1.312,-0.02212923310979692,5893.720508342224
1.316,0.011592169274941081,5907.564908984568
1.32,0.019726062804290425,5899.698133366698
1.324,-0.0036189797708474233,5900.466511113232
1.328,-0.061474006905156545,5891.06384009244
1.332,-0.15190039537970548,5895.672173737934
1.336,-0.26734079817197137,5899.570328848737
1.34,-0.3958805226053057,5904.5713433493
1.344,-0.5239227496722252,5905.812544800752
1.348,-0.6392658115670958,5903.539326243344
1.352,-0.7335171118935284,5897.623818828448
1.356,-0.8030577821771621,5896.024122797494
1.36,-0.8484271386576915,5906.122974080202
1.364,-0.8726931321854741,5914.327563556516
1.368,-0.8796278278701805,5901.016806276407
1.372,-0.8723437561396982,5904.916033068407
1.376,-0.8526860539994886,5900.641920178015
1.38,-0.8212028547992064,5898.01017291972
1.384,-0.7772952532546882,5898.506818999429
1.388,-0.7195271666652513,5899.9603885109
1.392,-0.6465012840349371,5902.992069413026
1.396,-0.5583136479997802,5902.508600262652
1.4,-0.4577920035878031,5902.268732658748
1.404,-0.3507599213857077,5896.242474661971
1.408,-0.24545601139969608,5897.077521645253
1.412,-0.15167683140924376,5905.697264279576
1.416,-0.07971661089564065,5901.761358344762
1.42,-0.03866994311068087,5903.511299384611
1.424,-0.03394849716998869,5902.019512005732
1.428,-0.0646718462046012,5896.707804756066
1.432,-0.12219123780607383,5899.447323229659
1.436,-0.19099052793429186,5900.400311138159
1.44,-0.25249474990285153,5899.780745317641
1.444,-0.29095321618499687,5896.639214009128
1.448,-0.29913890629135687,5904.270382269941
1.452,-0.2812120607924168,5907.554508981209
1.456,-0.2512079051354798,5900.904744837738
1.46,-0.22757735429225295,5894.7346169896455
1.464,-0.22604546044135365,5903.39811063306
1.468,-0.2539039333576438,5898.2463976406725
1.472,-0.30811630634147097,5904.860583781392
1.476,-0.3775729998197528,5896.221867208122
1.48,-0.4477767141040317,5899.378705176393
1.484,-0.5053563798425827,5896.992838339298
1.488,-0.5403519459213183,5897.787163638587
1.492,-0.5457406275203053,5897.901873639502
1.496,-0.51547899001254,5895.147108146924
1.5,-0.44343633707390456,5907.219106987283
1.504,-0.32504937366452413,5897.153909013054
1.508,-0.16143785983104297,5901.62028498899
1.512,0.03641562982969127,5902.692096891533
1.516,0.2463921121051465,5896.612641599413
1.52,0.4385311762738545,5901.203358933099
1.524,0.5822465607163965,5897.206716907584
1.528,0.6547754654448017,5903.727424023698
1.532,0.6475819895869679,5902.386203090125
1.536,0.568644501276858,5895.322631193905
1.54,0.44056668001526644,5891.752821975708
1.544,0.2958217475067362,5902.905648202385
1.548,0.1706295421531153,5912.216306128431
1.552,0.09839202781260818,5902.850233321226
1.556,0.10301862982221201,5898.254554736117
1.56,0.19257979745222137,5892.964164561818
1.564,0.35473266972472234,5893.475152517911
1.568,0.5563060949215446,5899.517344074726
1.572,0.7488001346113692,5902.434004255902
1.576,0.8791791189893027,5901.245285880569
1.58,0.9029222359679742,5901.190869216845
1.584,0.7954935593925943,5896.186206787247
1.588,0.5592104802880112,5896.110099171715
1.592,0.22390368572196248,5903.339234971158
1.596,-0.1588983990560709,5899.026721768939
1.6,-0.5271616366704829,5895.472409169104
1.604,-0.8222790129027394,5904.843496624447
1.608,-1.0019621754011767,5896.744481851729
1.612,-1.0483981666681335,5896.000966011902
1.616,-0.969488271124372,5904.489614797988
1.62,-0.7933419330345981,5893.489088339843
1.624,-0.5585530649913756,5896.381750504951
1.628,-0.3042324592054675,5899.651354818296
1.632,-0.06348491538624107,5900.706983321242
1.636,0.13812828503093696,5898.088135006838
1.64,0.2804651125894975,5903.770286142797
1.644,0.34606136946715926,5898.0344898877365
1.648,0.3194848872781344,5900.80887812992
1.652,0.18994427316733756,5905.818209253775
1.656,-0.04315488969669409,5903.575145287979
1.66,-0.3630235477016708,5894.952427058135
1.664,-0.7288633410251885,5905.8573002644525
1.668,-1.0727965470013814,5894.767825675306
1.672,-1.3035315165575798,5896.550436261751
1.676,-1.318703765975993,5901.0376737693305
1.68,-1.0250875657348848,5898.719271388092
1.684,-0.3627291104275537,5905.190751559082
1.688,0.6731882551271774,5902.608257214536
1.692,2.0197443522132095,5897.165447210926
1.696,3.549002699370174,5900.696622125628
1.7,5.088601903680586,5903.325857033043
1.704,6.456601398989518,5902.316657811555
1.708,7.5006535599024655,5901.483200677645
1.712,8.129239523843411,5888.743442405103
1.716,8.326079186104026,5900.374602256066
1.72,8.145419921800107,5901.621122701315
1.724,7.691861790966331,5898.476624628705
1.728,7.091819725025172,5907.341212137961
1.732,6.464761842502969,5898.1798392806
1.736,5.90134453395224,5896.8676631540775
1.74,5.4527760732833865,5900.188932088943
1.744,5.132041390282249,5906.65012695659
1.748,4.924160269796822,5904.598381626077
1.752,4.800347313230018,5898.310372810825
1.756,4.730556013881924,5901.828342342862
1.76,4.690712384782653,5894.930329944062
1.764,4.664095088344067,5904.115576982794
1.768,4.639002998165855,5899.817781758395
1.772,4.605696153616614,5901.040657726273
1.776,4.554651285351966,5903.827738048063
1.78,4.476553046803618,5895.610792968408
1.784,4.363323658006209,5893.872815939319
1.788,4.209373041327477,5898.0794620644265
1.792,4.012627031579633,5908.250137143427
1.796,3.7749906042540906,5894.227398583184
1.8,3.501929051782408,5895.111642604709
1.804,3.201445026378294,5898.690507578988
1.808,2.8833971386654467,5885.704714031836
