时间(s),电压(V),幅值(高频80K)
0.0,0.5200374295755943,5895.413312828863
0.004,0.1788787833286638,5907.42378930664
0.008,-0.1172898916138572,5903.874555537052
0.012,-0.33115929000497074,5900.5541445106455
0.016,-0.44072412837310304,5896.219351999601
0.02,-0.44333700797102604,5900.3067180940825
0.024,-0.3552295825165127,5894.891365311708
0.028,-0.2064347789267334,5904.332626926953
0.032,-0.033152001483036625,5905.394545701261
0.036,0.12961965736335143,5896.794996930286
0.04,0.25347769831639505,5900.212267728795
0.044,0.319994802032473,5895.940943337007
0.048,0.3226509738602301,5904.140147177896
0.052,0.26739677247172255,5899.960753263408
0.056,0.17134721623193477,5899.7189615107245
0.06,0.05927351272304875,5902.515231731715
0.064,-0.041627943433658686,5897.239569774088
0.068,-0.10757445373248167,5912.953753492946
0.072,-0.12354191136608689,5906.509383944495
0.076,-0.08716122667646549,5909.036223052324
0.08,-0.010010629730097035,5899.800335630559
0.084,0.08474832171816542,5902.663690159638
0.088,0.168217966631312,5900.211779501656
0.092,0.21327265089141795,5897.025940382772
0.096,0.20139249112690788,5904.217700648124
0.1,0.1272983938784308,5895.140070041912
0.104,0.0006954169303551107,5901.524253645358
0.108,-0.1553968125719562,5891.346360942961
0.112,-0.31001683265294,5893.274356649884
0.116,-0.4326011572850129,5901.571015942392
0.12,-0.5021013963393524,5897.163953010958
0.124,-0.5138757683480367,5901.175617583899
0.128,-0.481851258758134,5911.97855836513
0.132,-0.43503637705624887,5906.386229262344
0.136,-0.40934963100915595,5898.708566832404
0.14,-0.4371002214062862,5896.925815520191
0.144,-0.5369638695679116,5901.492050093834
0.148,-0.7072121272065778,5906.994307684591
0.152,-0.924444566607886,5898.431853169952
0.156,-1.1487140199243684,5898.480723895652
0.16,-1.3337148490442674,5905.07034702803
0.164,-1.438812142364157,5898.050004360145
0.168,-1.4393143825725003,5906.108489292637
0.172,-1.3323605826419473,5897.450332922647
0.176,-1.1371647864256178,5897.9508712457055
0.18,-0.8897199239140631,5892.794962180456
0.184,-0.6334958977503271,5900.606070389965
0.188,-0.4088783123049699,5905.908692757663
0.192,-0.24435271245592527,5907.735099072365
0.196,-0.15152241817603745,5899.581125249638
0.2,-0.12461500683710898,5898.393661949612
0.204,-0.14393223220387485,5901.565230176496
0.208,-0.1819619834263754,5887.959646538036
0.212,-0.21053022599739754,5899.9899419155845
0.216,-0.2073503926231097,5904.621161932033
0.22,-0.16061074709216813,5893.920416306901
0.224,-0.07083810488800858,5903.998005882239
0.228,0.04992502595888973,5905.082630118741
0.232,0.18091647484718174,5903.576840178438
0.236,0.2965562137378926,5898.289090374888
0.24,0.3710599820398491,5894.893962538227
0.244,0.3838061087840342,5898.735056759947
0.248,0.32492699183480833,5897.1793669195085
0.252,0.19932593760038797,5892.723393812127
0.256,0.027022528660309193,5902.813211067584
0.26,-0.1608279992504844,5902.27409356561
0.264,-0.3289499817719312,5905.442068393729
0.268,-0.44573115926504797,5903.304778037613
0.272,-0.4897065712454956,5894.715993803314
0.276,-0.4534441556322117,5900.740574286452
0.28,-0.34435108136739334,5897.227437228324
0.284,-0.1825976804052182,5901.364744923859
0.288,0.003150116027790664,5893.495083626231
0.292,0.1813614732974197,5901.709470895781
0.296,0.3240114203079513,5902.210549515194
0.3,0.413004510002534,5905.296162645954
0.304,0.4451511250490527,5905.267075514487
0.308,0.43337181601917396,5895.3900109656215
0.312,0.4024268186505764,5893.498916945336
0.316,0.3798802922061635,5908.38549389667
0.32,0.3856375403334775,5892.008301140452
0.324,0.42426740694239623,5901.888365766996
0.328,0.4830366983662065,5906.18204150672
0.332,0.5362044613947882,5904.183409428716
0.336,0.5538147864368189,5891.784713794164
0.34,0.51172143626726,5898.062822108504
0.344,0.39933879019361007,5906.713908311242
0.348,0.22270715381665343,5909.81958580742
0.352,0.002375265407150419,5899.357949751273
0.356,-0.23252897003769227,5897.9824760015335
0.36,-0.451624108388326,5895.039205179898
0.364,-0.6296912812632469,5906.657386947135
0.368,-0.7508141303735961,5896.648306758991
0.372,-0.8098398445586019,5901.336757665012
0.376,-0.8112849918102811,5901.824648454172
0.38,-0.7662757215693349,5901.790268341324
0.384,-0.6887876847829388,5904.716097595311
0.388,-0.5926657377418766,5899.797978356951
0.392,-0.4901422242220648,5894.4651652689445
0.396,-0.39153320315377355,5893.408054838215
0.4,-0.30537967362693896,5898.345386227653
0.404,-0.23855388824648205,5898.552849345018
0.408,-0.19631876201421547,5898.480841610426
0.412,-0.18251819822291165,5893.523865935245
0.416,-0.1997256141430629,5897.199858840801
0.42,-0.24882969343019867,5895.444030671124
0.424,-0.32797061239758557,5897.596021361573
0.428,-0.4315254325324105,5902.215024431778
0.432,-0.5498907964114348,5898.524224436335
0.436,-0.670243593966338,5893.274334828188
0.44,-0.7781587905193681,5904.758043820977
0.444,-0.8598823054882953,5896.862992662733
0.448,-0.9047466066828026,5900.170480790927
0.452,-0.9070437705465358,5903.694246436821
0.456,-0.86701204612429,5888.5624942084
0.46,-0.7909245295804015,5901.361369704231
0.464,-0.6900977316350845,5898.925718905704
0.468,-0.5784555054544968,5903.123966283737
0.472,-0.46887426570599894,5895.103971967686
0.476,-0.3696653322738126,5907.148240223759
0.48,-0.28297665184424337,5904.22350113511
0.484,-0.2058975649398825,5902.540033682744
0.488,-0.1334619154889451,5902.967864081244
0.492,-0.0620056781896759,5909.340735818091
0.496,0.008213613931596012,5899.272518221272
0.5,0.0715603644926081,5900.333662985206
0.504,0.11709121087255472,5898.912992965737
0.508,0.1306893266738798,5902.3475701267525
0.512,0.0993938262486764,5899.364652158825
0.516,0.01702798899812244,5898.89810221007
0.52,-0.11076424874507179,5889.614471349094
0.524,-0.2643386170182972,5890.543014951096
0.528,-0.4124329410104571,5904.030402328454
0.532,-0.5193002852175324,5899.677821838788
0.536,-0.554825235350405,5896.085591915284
0.54,-0.5043537650843621,5913.162703339568
0.544,-0.37462320127893756,5899.70941464034
0.548,-0.19323350632812794,5905.8806091993465
0.552,-0.0013472398562020772,5898.238614499563
0.556,0.1580143288044279,5902.970932568434
0.56,0.25191636935406553,5902.850042639362
0.5640000000000001,0.26570833907630215,5904.814043866141
0.5680000000000001,0.20536197944181955,5897.076388488231
0.5720000000000001,0.09408523611230998,5900.521910851745
0.5760000000000001,-0.035059380980687165,5900.0238277530525
0.58,-0.1481654819074904,5902.421943561096
0.584,-0.21892798505282907,5903.229589599209
0.588,-0.23478748896279758,5910.849021437428
0.592,-0.19945848304913005,5892.341460701315
0.596,-0.13126677896383737,5906.347369157531
0.6,-0.05789717094442016,5897.1285000629205
0.604,-0.009020200038836764,5904.635725616032
0.608,-0.008434160635566786,5900.1836761438
0.612,-0.06738261465351282,5888.322687363941
0.616,-0.18081514014441571,5905.905725266893
0.62,-0.32794169511724586,5894.938012383153
0.624,-0.47726205797396026,5898.730630703863
0.628,-0.5949307374422038,5896.631445455045
0.632,-0.6542935265343147,5895.782835473117
0.636,-0.6437123098498813,5906.982074105115
0.64,-0.5697680436927436,5895.286402737991
0.644,-0.4543634786238987,5902.385029395172
0.648,-0.326952043529201,5900.0271125078325
0.652,-0.2154154792026082,5899.756736871888
0.656,-0.1393195442306679,5894.562700435158
0.66,-0.10743924101195172,5898.646322959505
0.664,-0.11911258330160875,5896.936480967125
0.668,-0.16760337158283942,5908.475909480919
0.672,-0.24355353576705657,5896.433120185056
0.676,-0.33724329311967427,5898.428850225662
0.68,-0.439209716274632,5897.015628193478
0.684,-0.5396781079446169,5899.894599646831
0.6880000000000001,-0.6280203862702133,5901.428195431765
0.6920000000000001,-0.6934099555132501,5895.698621071184
0.6960000000000001,-0.7267862603908735,5898.350147988544
0.7000000000000001,-0.7231307059282898,5902.299430214844
0.704,-0.6829304037438604,5896.620054336498
0.708,-0.612388145692657,5900.660105362816
0.712,-0.5224975909534891,5904.313970477361
0.716,-0.42715094924791547,5907.720517724312
0.72,-0.3403695331538528,5890.511749604561
0.724,-0.2729839604538204,5908.0858183882565
0.728,-0.22959336497421814,5899.372898153999
0.732,-0.20698049881114522,5903.046799515679
0.736,-0.19495232260735806,5900.866020333073
0.74,-0.1796962795954496,5897.657904057591
0.744,-0.14853032662902796,5897.357699714038
0.748,-0.09417258029587394,5904.994894602715
0.752,-0.016975861026393042,5899.317147391264
0.756,0.07531840524330838,5905.947650194265
0.76,0.16970574384830217,5887.028419637418
0.764,0.25089809592311735,5899.728289638632
0.768,0.30437523981632925,5903.186730408455
0.772,0.31930882424773294,5905.433434478889
0.776,0.2914241119837591,5896.5385482156325
0.78,0.2253626242862022,5899.011030136054
0.784,0.13531140822221788,5901.75426950044
0.788,0.042592338521655684,5892.852661940823
0.792,-0.02996015830182929,5900.921889547153
0.796,-0.06519567419918956,5886.903328398524
0.8,-0.05749397309057781,5894.947138881934
0.804,-0.014600351360897894,5913.510013784048
0.808,0.04537179529690458,5898.802328453953
0.812,0.10026733962780075,5901.299461107326
0.8160000000000001,0.13062886555987988,5896.377487145621
0.8200000000000001,0.12418527459194198,5900.257553846859
0.8240000000000001,0.07702526967155252,5899.273754352713
0.8280000000000001,-0.0077466250768070425,5897.4874380379015
0.8320000000000001,-0.1221007888342928,5899.244407746207
0.836,-0.25453671822100304,5903.7792622592215
0.84,-0.3907548700600956,5901.023280818306
0.844,-0.5144780059146679,5903.404334435392
0.848,-0.6094952893391197,5904.644827292024
0.852,-0.6630996869482482,5898.938434072121
0.856,-0.6698318343372388,5896.728971329573
0.86,-0.6338111374202932,5902.125707851101
0.864,-0.5683357341507368,5904.913148292227
0.868,-0.4925409722011881,5900.370771209592
0.872,-0.4261155715505181,5903.094891941426
0.876,-0.38386708402285113,5897.445417769216
0.88,-0.37202344758087563,5901.906582587121
0.884,-0.38747767515458315,5903.088102794134
0.888,-0.41992939399398915,5894.964580271304
0.892,-0.45572187784022616,5906.3601648336735
0.896,-0.48183718793953234,5898.739394639167
0.9,-0.48903214191882405,5901.009419553589
0.904,-0.4738445468418666,5901.020238149878
0.908,-0.4394784263800966,5895.207383730358
0.912,-0.3952503034028756,5902.672261439811
0.916,-0.3540517035632911,5895.880702303363
0.92,-0.3279899901038669,5905.708670820018
0.924,-0.32376740345796573,5893.679773450022
0.928,-0.34012682207186606,5899.320729725372
0.932,-0.3688042132345613,5900.310235117918
0.936,-0.3983330408767904,5902.340991674814
0.94,-0.41839581229451456,5894.445039496104
0.944,-0.4224601428724021,5891.417763402678
0.948,-0.407851484637874,5900.059966615555
0.952,-0.373990660722796,5910.730178599906
0.956,-0.32042440056641364,5903.396348416855
0.96,-0.24620175295258065,5910.264046652756
0.964,-0.15116344559200773,5900.539712888414
0.968,-0.03844817692916011,5896.740291610451
0.972,0.08324809361110454,5899.538918901739
0.976,0.19918126554971646,5896.818113830764
0.98,0.2907475467264053,5899.03745361925
0.984,0.3399604554652517,5894.798085160333
0.988,0.3343278670771106,5897.396891807869
0.992,0.26969547162155566,5896.359486673625
0.996,0.1498017364493795,5900.301781356575
1.0,-0.016353112954903604,5899.499044397949
1.004,-0.21638433487834832,5898.570206967398
1.008,-0.4330365526196777,5900.325087931912
1.012,-0.6393006350799828,5896.626728381261
1.016,-0.7931209580200761,5906.857484675322
1.02,-0.8360606359674657,5898.023931895627
1.024,-0.6993061682610959,5904.050684742311
1.028,-0.31761048919195933,5895.259972029645
1.032,0.35169462506608334,5896.978362481253
1.036,1.3102756512025322,5890.860570355557
1.04,2.507606455223379,5904.845781369057
1.044,3.842476158404808,5906.028745719339
1.048,5.179300789642923,5897.451563654717
1.052,6.375972314904232,5894.838706268229
1.056,7.314521699096133,5901.756043078492
1.06,7.92411093227182,5905.413631997859
1.064,8.18967660944266,5906.3047168535895
1.068,8.146151147506997,5892.520608431016
1.072,7.863113851044887,5899.309907199939
1.076,7.42616199862383,5902.484026225268
1.08,6.9202089271280505,5896.577447007167
1.084,6.417662852242195,5900.806073107978
1.088,5.97194853175503,5893.236275185066
1.092,5.6151115498496695,5898.697199956102
1.096,5.3579906568491245,5896.605896789721
1.1,5.192282304547239,5898.130629076966
1.104,5.094704679104161,5900.391332334549
1.108,5.033580707306219,5901.134521342168
1.112,4.977214096998134,5906.94308629787
1.116,4.901894005306111,5897.687492164345
1.12,4.7966234315743685,5903.9719646948415
1.124,4.662901605027188,5903.556817293139
1.128,4.51040196475333,5895.588032640494
1.132,4.351139859908622,5901.656863137372
1.136,4.194685312357896,5899.317845382975
1.14,4.045807720176088,5899.597131574027
1.144,3.9045838348615085,5900.5920822713015
1.148,3.767929287097628,5902.440951272815
1.152,3.6311658617641536,5901.061615794448
1.156,3.488873455252276,5894.640631453952
1.16,3.335327451795896,5898.532418675987
1.164,3.165246940403803,5897.948054704935
1.168,2.9750733033919694,5898.286415100053
1.172,2.7643137139023155,5902.788343655301
1.176,2.5363452324683045,5896.195998726143
1.18,2.2983702424615715,5895.234847044151
1.184,2.0604917676587955,5894.611392643792
1.188,1.8340409198936352,5895.144999579468
1.192,1.6295200453092389,5896.563776243362
1.196,1.4548119683642045,5889.771258239209
1.2,1.3142893424187831,5909.732648944189
1.204,1.2089324931637235,5894.648884527951
1.208,1.136958101733599,5901.418899827887
1.212,1.09439684048894,5895.392195389449
1.216,1.075510416127637,5900.934120643515
1.22,1.0732806630108669,5901.680886831624
1.224,1.080124951685833,5900.131129239072
1.228,1.0888415351846956,5903.848830652025
1.232,1.0937920991197403,5899.981222514282
1.236,1.0921455281268309,5904.939750906663
1.24,1.0844972209978052,5897.024010253214
1.244,1.074005553451546,5899.043337355867
1.248,1.0640014436241567,5899.155972141382
1.252,1.0553313117123004,5899.080787530676
1.256,1.0452159929155744,5896.956212880425
1.26,1.0285449490964782,5904.325326361323
1.264,1.0008579591372175,5896.273362239222
1.268,0.9609368440046699,5892.229377683153
1.272,0.9110001082342796,5894.609415199164
1.276,0.8542072773750115,5890.899536000551
1.28,0.7913098413664409,5886.322859186112
1.284,0.7190232951227639,5892.173617515185
1.288,0.6315139851202689,5891.32651157171
1.292,0.5244128648873025,5889.2148304503135
1.296,0.39940733254585775,5881.045188516587
1.3,0.267325220365983,5873.051613411574
1.304,0.14839706219632767,5886.1960740406585
1.308,0.06935086106949659,5880.04299362864
1.312,0.05771853175681806,5879.821374943683
1.316,0.13430782306237077,5883.307969187012
1.32,0.30548600649682567,5878.247737830556
1.324,0.557651240948085,5874.402738113004
1.328,0.8563937963439011,5865.737369274628
1.332,1.1516893205298222,5875.122166185399
1.336,1.3882430466213964,5871.975907119066
1.34,1.5180193463220588,5875.99292801458
1.344,1.5112040505252111,5864.404245805933
1.348,1.3626422466812986,5871.804308831667
1.352,1.092539780503544,5862.558918110486
1.356,0.7418749491056845,5873.004719835396
1.36,0.3638908084183524,5876.614968334578
1.364,0.013387368590879219,5869.298975055341
1.368,-0.26414496865531056,5866.182503170865
1.372,-0.44106629141108833,5857.013857488843
1.376,-0.5113725804211289,5861.764935208707
1.38,-0.4886099946442165,5865.633778978143
1.384,-0.39911056638765197,5862.918358331905
1.388,-0.27360352590841797,5863.519379385147
1.392,-0.140384527040766,5854.230685210778
1.396,-0.021646886020648893,5862.944803632355
1.4,0.06751866539552197,5853.007542553926
1.404,0.11911885470179429,5856.782633866775
1.408,0.1324379240688723,5859.161580074299
1.412,0.11413916232223283,5865.220746450255
1.416,0.07710542553368299,5863.862648199939
1.42,0.03733919847897251,5857.181670870506
1.424,0.009611962747059912,5853.282147184597
1.428,0.0035212636397331286,5858.534995421684
1.432,0.02145914391192818,5858.910779818747
1.436,0.05901147184628129,5859.374228564561
1.44,0.1073045629288435,5858.332286830465
1.444,0.15631678921472877,5848.396287892972
1.448,0.19810555169039137,5859.154624515485
1.452,0.22902313321010034,5851.802107195797
1.456,0.25030919660367457,5858.03194683821
1.46,0.2669719131674353,5856.862501339217
1.464,0.28541973536848153,5850.479428101336
1.468,0.3106913230705754,5853.018373532314
1.472,0.34422226427015107,5843.990909302054
1.476,0.38277145195547896,5844.455562526909
1.48,0.4185831521577516,5850.78597809505
1.484,0.4405935116202586,5847.031483449529
1.488,0.4366351102176671,5839.401259175973
1.492,0.396508551149921,5847.998461646242
1.496,0.31506864566028925,5841.847379248632
1.5,0.1938756746171954,5849.780743441099
1.504,0.04046290619951384,5843.656059385114
1.508,-0.13436407739453401,5844.534517856084
1.512,-0.31971123605485824,5849.373660596694
1.516,-0.5067548551129141,5842.175447129762
1.52,-0.6891251338340786,5846.345722770876
1.524,-0.8616050827819951,5843.526305153021
1.528,-1.0178561287916874,5846.074098590168
1.532,-1.1483222196193832,5841.116811649375
1.536,-1.2395845116958144,5835.25868758164
1.54,-1.2760382777848855,5839.152229080044
1.544,-1.2439271739802955,5833.931556104521
1.548,-1.1367262000375402,5846.983157893835
1.552,-0.959889660976429,5840.693184755707
1.556,-0.7326152752385559,5846.050869257304
1.56,-0.48512459562315763,5842.269047976325
1.564,-0.25190101742125326,5830.212179385335
1.568,-0.06322010425286045,5835.365175272213
1.572,0.06202085769281961,5834.979279857484
1.576,0.11980694150511002,5843.225802944608
1.58,0.11975595832052652,5840.891764986029
1.584,0.07955113972709443,5841.960546441233
1.588,0.01712729525537513,5840.175121312759
1.592,-0.05615504103188959,5837.92427379996
1.596,-0.13831408843716203,5839.11512240644
1.6,-0.23431684112231244,5836.918445196218
1.604,-0.34977769733901715,5831.497392481425
1.608,-0.4840052208615291,5837.436813826947
1.612,-0.625729475631804,5830.005974011527
1.616,-0.7533852436797889,5837.201420581406
1.62,-0.8398433236347753,5836.144133577159
1.624,-0.8599471846809433,5831.314012454009
1.628,-0.7985167321001965,5839.677594179089
1.632,-0.6564386958013191,5833.553557222723
1.636,-0.45274712057476535,5842.033957176787
1.64,-0.2213991848026876,5837.524882873536
1.644,-0.0031573891647602263,5839.246508919848
1.648,0.16492770857736289,5828.769584722236
1.652,0.2587749815871204,5833.2951607932655
1.656,0.27214311613175257,5840.434213761796
1.66,0.21592791948485926,5827.869142002921
1.664,0.11301245083276892,5843.32450925709
1.668,-0.008764569410160168,5832.557521977877
1.672,-0.12302184916987566,5841.786680569081
1.676,-0.20927182736467204,5826.285872491435
1.68,-0.25529063786696143,5831.338181957683
1.684,-0.25801687701509113,5831.110225508237
1.688,-0.2234901588905556,5833.835971613561
1.692,-0.16581407960635366,5827.668888663082
1.696,-0.10473618100095942,5839.156689008061
1.7,-0.061586685526357446,5838.137099529858
1.704,-0.054002843330710204,5835.055519378863
1.708,-0.0906903904490357,5830.593157114341
1.712,-0.16791002037183528,5824.442895570428
1.716,-0.2691173743986544,5829.618956688138
1.72,-0.36827152276343295,5838.572533664163
1.724,-0.43610837675751274,5835.793081506161
1.728,-0.447720407430654,5833.003249103371
1.732,-0.3895110374293704,5837.757292727331
1.736,-0.26391226512093546,5827.254490317557
1.74,-0.0907912238617988,5827.067499671758
1.744,0.09504952900879982,5827.21931112616
1.748,0.25041683330303555,5835.209509497698
1.752,0.3335707731337195,5832.817782456631
1.756,0.3151164350905676,5838.323329804462
1.76,0.18655095289470175,5837.953864215861
1.764,-0.036413778011091094,5832.047754844406
1.768,-0.3166161965114922,5839.027067143713
1.772,-0.6030687355330395,5828.85916237338
1.776,-0.8411664029237286,5833.18113101357
1.78,-0.983302386060377,5833.241328187532
1.784,-0.9982909543039099,5822.963294424237
1.788,-0.8782814537181892,5837.205116857471
1.792,-0.6416921343799832,5830.316920074298
1.796,-0.33076173139993903,5830.828824568279
1.8,-0.0033163428777020472,5844.91330574629
1.804,0.2797826675938706,5832.5815014216005
1.808,0.46823860257434236,5833.8019122021215
