时间(s),电压(V),幅值(高频80K)
0.0,-0.22722701176526136,5899.957839296861
0.004,-0.15240312693965205,5905.816453633399
0.008,-0.07975436807626092,5889.462529971483
0.012,-0.012148854016216203,5900.099504629375
0.016,0.04712190365772754,5908.245112844106
0.02,0.09500095706852775,5895.627374781494
0.024,0.1297705655495919,5902.786097560591
0.028,0.1519704694912023,5896.832271096898
0.032,0.16423951145592053,5905.8596457164085
0.036,0.16987994498384534,5896.632793784052
0.04,0.17107135178229033,5905.551962900219
0.044,0.16813438137560008,5897.136901050852
0.048,0.16049507248248066,5904.633869317145
0.052,0.14860207217267218,5892.002081598615
0.056,0.13527262316014516,5890.955026278116
0.06,0.12549957461782893,5901.546844789576
0.064,0.12501374880902044,5895.650828213055
0.068,0.1386016906111464,5898.646438267949
0.072,0.16882609533882426,5905.100942789748
0.076,0.21508479762199278,5896.7697198465
0.08,0.2728184462554666,5910.815737255204
0.084,0.3331743018186037,5901.523473810078
0.088,0.3837513903389638,5899.737339304254
0.092,0.4106869377471949,5901.6741470295365
0.096,0.4016807688551893,5893.352027202796
0.1,0.34915217499913387,5902.781285309647
0.104,0.2526081899416766,5897.5460950632605
0.108,0.11934693349573616,5900.845485096451
0.112,-0.036953920283437816,5904.223054820963
0.116,-0.19925933283716896,5893.359338559319
0.12,-0.3503915596277349,5909.935192088661
0.124,-0.47510323194877774,5899.215465570454
0.128,-0.560916113536092,5905.664581940507
0.132,-0.5988362353543412,5891.612527007659
0.136,-0.5848714968246452,5907.419313258101
0.14,-0.5218922213373082,5905.955450351607
0.144,-0.42037608594242776,5916.46408245571
0.148,-0.2970413488978052,5899.719610176216
0.152,-0.17167160328589612,5906.514226037625
0.156,-0.06325117003956508,5907.034579813076
0.16,0.01349818726123253,5906.045732128407
0.164,0.05039355418527534,5899.410002815632
0.168,0.046445108218853635,5896.225683579213
0.172,0.007065378332811751,5890.255881000735
0.176,-0.05741574069062516,5894.025278668932
0.18,-0.13330175486647214,5895.62935794164
0.184,-0.2052308862582211,5903.305541434695
0.188,-0.25854045100847556,5902.120938812268
0.192,-0.28241875956531787,5901.043338820676
0.196,-0.27310440850194,5895.141292036567
0.2,-0.23577421214109837,5896.565566874091
0.204,-0.18389067896726433,5903.412027464883
0.208,-0.13567293285156656,5900.818957849258
0.212,-0.10857538674822574,5899.653307385806
0.216,-0.11361488632901443,5894.721803857109
0.22,-0.15163437113928446,5900.478626463331
0.224,-0.21295870939030806,5902.577088888149
0.228,-0.2805812183607286,5891.650626325432
0.232,-0.3355938325767929,5902.091704803012
0.236,-0.36275221870047186,5889.992492088239
0.24,-0.3542799236571256,5897.098139395557
0.244,-0.31107079718759145,5902.662725603866
0.248,-0.24160637194050347,5907.587236648398
0.252,-0.1595102665152751,5900.050393837676
0.256,-0.08066631832057335,5907.433375979615
0.26,-0.020523703867377015,5900.731076229481
0.264,0.008206655265610596,5898.628924635712
0.268,-0.002419235754893841,5902.730354022766
0.272,-0.053816230295535596,5890.541993149925
0.276,-0.1398654256383022,5896.750298871556
0.28,-0.24743745593576041,5904.426009832818
0.284,-0.3588131997177471,5909.105963776372
0.288,-0.4555779487758255,5904.136920923228
0.292,-0.5229052792224571,5902.309613891034
0.296,-0.5528161667877725,5896.927438586047
0.3,-0.5451621040709543,5904.995833830519
0.304,-0.5059835730067521,5905.552939412795
0.308,-0.4442266557349431,5892.822213743768
0.312,-0.36861411280440814,5887.924898680176
0.316,-0.28609955178905283,5903.127014924522
0.32,-0.20207571246962863,5885.689115873697
0.324,-0.12136428447427548,5898.522320372165
0.328,-0.04885745283666306,5894.291557162222
0.332,0.010615267843404769,5907.503044052595
0.336,0.05299060700000254,5893.157262322413
0.34,0.07594278011240418,5900.311645028177
0.344,0.07981156139064877,5904.259033323331
0.348,0.0679566278701835,5903.354555128288
0.352,0.0459922696522591,5896.057281502543
0.356,0.019929336227967255,5900.618028850528
0.36,-0.005942796502405768,5907.752857269453
0.364,-0.030286028949875567,5904.871594096058
0.368,-0.05432383534872299,5897.79387858614
0.372,-0.07987511114354291,5899.502971346793
0.376,-0.10659963374575379,5894.996115737604
0.38,-0.12977205700462635,5895.263244282925
0.384,-0.13993567964390638,5893.037130329059
0.388,-0.12509072607598568,5891.556062478017
0.392,-0.07486454686161413,5896.591812868521
0.396,0.014974474758643986,5910.8199108898425
0.4,0.1395945866704306,5899.404503425779
0.404,0.28495618936878087,5907.299906927895
0.408,0.430339335700469,5897.983299153974
0.412,0.5525196659153359,5900.862340022227
0.416,0.6304137754464918,5894.462670886815
0.42,0.6492172679542618,5901.300243865282
0.424,0.6032242241505789,5898.859061669828
0.428,0.49679664701958,5891.21565003098
0.432,0.3435087527672052,5910.182023589798
0.436,0.16396694691980176,5901.541364512903
0.44,-0.01719632090140572,5895.089585402256
0.444,-0.17493760647223375,5898.333748313938
0.448,-0.28785770158408164,5893.132059943851
0.452,-0.34218803056867597,5904.576711306818
0.456,-0.33476122494371635,5901.902070567577
0.46,-0.2739170840273948,5908.8064247468565
0.464,-0.17780854291312861,5900.760200108926
0.468,-0.07051339888504103,5895.501931698308
0.472,0.022909775374411617,5907.732832971435
0.476,0.08120690418930668,5902.123179939578
0.48,0.09072249810039937,5905.186725666442
0.484,0.04774199698703476,5892.498521353835
0.488,-0.04093148876122548,5904.754555403078
0.492,-0.15945893115983628,5900.323253563531
0.496,-0.28660537300383004,5903.068060529607
0.5,-0.40096278829185283,5900.330797515711
0.504,-0.4861777311750821,5892.417080677359
0.508,-0.5341322838898799,5899.579571795369
0.512,-0.5448522346151523,5900.415218363298
0.516,-0.5236710487098516,5890.030381226758
0.52,-0.4775878809488559,5901.706626152752
0.524,-0.4128499296537526,5904.049675639941
0.528,-0.33460594846920083,5900.348006036378
0.532,-0.24796077895401109,5897.314866333651
0.536,-0.1590563209259787,5900.330374183815
0.54,-0.07525981811335504,5897.935255001473
0.544,-0.004428204354329756,5908.263449464521
0.548,0.04630977308582714,5899.231968612909
0.552,0.0718419588252255,5899.787605412089
0.556,0.07017295145385231,5904.742322570798
0.56,0.04315548114809865,5898.917239452688
0.5640000000000001,-0.003315711902561987,5904.378121319366
0.5680000000000001,-0.05985809282889123,5904.20849841581
0.5720000000000001,-0.1151026802664656,5903.7396456918295
0.5760000000000001,-0.15809584592664888,5901.006938151886
0.58,-0.1811020314564228,5900.599707247216
0.584,-0.1819284100039855,5895.936368436375
0.588,-0.1648727423715121,5896.087517530514
0.592,-0.13980747790012188,5907.572298085387
0.596,-0.1195553280105659,5896.924123423002
0.6,-0.11625945500000802,5893.596606780192
0.604,-0.13770817277404002,5897.26499886498
0.608,-0.18459073073682558,5903.161006929774
0.612,-0.24957604719188234,5902.177095869204
0.616,-0.3188503048899681,5905.104794809224
0.62,-0.3760879122694187,5908.8227898678215
0.624,-0.407806170605377,5897.013478103145
0.628,-0.4082041100869546,5902.304317459553
0.632,-0.3815407836444445,5901.248651183636
0.636,-0.3409790710312242,5899.8604136847325
0.64,-0.30413589810605823,5895.218888575158
0.644,-0.2868021365404472,5901.340844172551
0.648,-0.2971052832492859,5907.192578933714
0.652,-0.3324571207292134,5906.634691948436
0.656,-0.3806170230302726,5897.212199478468
0.66,-0.424324328596891,5896.957614795802
0.664,-0.447306346930821,5897.410005088988
0.668,-0.4392240802671597,5897.0505760839405
0.672,-0.3982361538157929,5894.739250300873
0.676,-0.3311231426223766,5897.5839212172
0.68,-0.25142831957887446,5894.981358106875
0.684,-0.17612537927660366,5901.352405075286
0.6880000000000001,-0.12154042922326647,5899.08122989518
0.6920000000000001,-0.09960780791013739,5895.210032807262
0.6960000000000001,-0.11555832551642442,5894.727547563338
0.7000000000000001,-0.16763433631516536,5894.809903794115
0.704,-0.24866512248833983,5887.8222574136535
0.708,-0.3486985322941694,5902.473409925475
0.712,-0.45759911098497946,5903.4187980128245
0.716,-0.5666863719002447,5892.903485847555
0.72,-0.6690846367134132,5903.433938715391
0.724,-0.7592033439974543,5892.436577225395
0.728,-0.8321554788703585,5899.029601006617
0.732,-0.8836965390447253,5892.66080970325
0.736,-0.9106943156491344,5896.135238971428
0.74,-0.9116836536742947,5908.183455544249
0.744,-0.8870030177863387,5916.120502603032
0.748,-0.8383388071694053,5892.215756736158
0.752,-0.7679448480798982,5903.848318634309
0.756,-0.6780509217000518,5886.441345019952
0.76,-0.5709013609868951,5894.062907557582
0.764,-0.44949079034013617,5893.581300392088
0.768,-0.31854029823749924,5892.642909166832
0.772,-0.1849633378547549,5901.503163144605
0.776,-0.05736165660539005,5899.369513976332
0.78,0.05521244018615075,5896.73722055698
0.784,0.14455369240201812,5906.778482628724
0.788,0.2041919675422876,5908.273030762906
0.792,0.22992287483654117,5909.029238561411
0.796,0.22032923586995753,5900.250280310385
0.8,0.17753106609611574,5896.272067326547
0.804,0.10801194553246468,5905.821388586504
0.808,0.022906356198532308,5903.227629753753
0.812,-0.06307698331852121,5907.182158474672
0.8160000000000001,-0.13450345667021726,5903.806294764043
0.8200000000000001,-0.1792337669214612,5900.837064880247
0.8240000000000001,-0.192102168975761,5902.06415716271
0.8280000000000001,-0.176688834706721,5905.789667031998
0.8320000000000001,-0.1444950759706817,5902.076145268478
0.836,-0.11187447975826302,5906.1903824863975
0.84,-0.09564266263283056,5903.254906038407
0.844,-0.10846743184001752,5897.882107218255
0.848,-0.1552643964958487,5908.456182700006
0.852,-0.23174238922915316,5893.2987532251855
0.856,-0.32558779711727204,5908.444238781933
0.86,-0.41978597503720244,5899.446219145453
0.864,-0.4969482328149441,5889.981833654045
0.868,-0.543440632815541,5898.334139731726
0.872,-0.5522736931994814,5904.602195522453
0.876,-0.5240427715962025,5900.418747418041
0.88,-0.46585316706460167,5899.046747834788
0.884,-0.38889913829170897,5903.404751985166
0.888,-0.30573225764115913,5901.790927609464
0.892,-0.22807771296935908,5905.537132896728
0.896,-0.1655243337615361,5893.757498447751
0.9,-0.12487061850569653,5889.850778344601
0.904,-0.10968406863052109,5899.856087312539
0.908,-0.11982245399237142,5893.907412124193
0.912,-0.15106233934535426,5902.349098997677
0.916,-0.19527114414052624,5897.393826399427
0.92,-0.24153795534357195,5900.775064576934
0.924,-0.2783024627060992,5901.857175586628
0.928,-0.29597594219824463,5899.161132560307
0.932,-0.2892209273028684,5894.832297300982
0.936,-0.25821448014231546,5900.554728719805
0.94,-0.20869941158930103,5899.7693097770725
0.944,-0.15098892722822663,5900.3282778153625
0.948,-0.09808493658295177,5898.829133826145
0.952,-0.06294350910365368,5905.157791907009
0.956,-0.05515955064933671,5900.826855914615
0.96,-0.077963793541747,5899.090404366847
0.964,-0.12677708078077815,5888.387695481212
0.968,-0.19010592968168077,5904.259034774313
0.972,-0.2525492080031635,5900.220547890138
0.976,-0.2988788081773634,5910.64610102278
0.98,-0.31798501324781764,5900.152685551328
0.984,-0.30574926461943336,5905.650226809004
0.988,-0.2662782071281744,5895.245167560676
0.992,-0.21124691044155983,5906.687789913242
0.996,-0.1573513939073364,5903.553541771559
1.0,-0.12222270555687162,5899.446699400846
1.004,-0.11974735144762588,5903.779977542394
1.008,-0.1562663434689772,5897.677764763139
1.012,-0.22900325062788943,5902.356743520899
1.016,-0.3271715960468959,5893.667286353607
1.02,-0.43512721609706495,5894.987946273574
1.024,-0.5363761849039669,5907.788159586761
1.028,-0.6173066752441941,5892.628073970336
1.032,-0.6697509395157052,5884.6538643865015
1.036,-0.6917442365436289,5887.769309120974
1.04,-0.6863667462220333,5894.648320176345
1.044,-0.6593033510984904,5899.188928408303
1.048,-0.616274363096998,5891.328960854004
1.052,-0.5614170080462906,5906.984163248852
1.056,-0.49708571699896553,5896.434786663664
1.06,-0.4247258943520717,5902.235909603402
1.064,-0.345966289665492,5892.717045684921
1.068,-0.263275135579189,5905.633182134971
1.072,-0.18016631610234882,5911.157955151348
1.076,-0.10123692552116144,5892.880341748555
1.08,-0.032031998155130144,5890.8488465882
1.084,0.021552730200306465,5899.27883542695
1.088,0.05445259984164896,5907.282603291634
1.092,0.06389058712106319,5900.68117767288
1.096,0.05049381129122567,5904.90673208214
1.1,0.018493560203151783,5902.566774983117
1.104,-0.025169805669177786,5900.933664927457
1.108,-0.07245926011231009,5901.118919809532
1.112,-0.11586480665073988,5898.882625582343
1.116,-0.1494947775205337,5894.708950821905
1.12,-0.16957705811294677,5899.15721352355
1.124,-0.17468442301789647,5905.187911016675
1.128,-0.1659873891696845,5900.265866993619
1.132,-0.14756290895907032,5896.287145825635
1.136,-0.12654081352812668,5901.046064292467
1.14,-0.11273992155514494,5896.5930401460855
1.144,-0.11737784962731475,5904.3377906783935
1.148,-0.15062079266159958,5895.542083610591
1.152,-0.21836284387210395,5908.335835865954
1.156,-0.31931742631931614,5899.127700112862
1.16,-0.44368418401405313,5893.32354840356
1.164,-0.5742538671161497,5893.953491449857
1.168,-0.6900703748465721,5894.85920770891
1.172,-0.7718057611596439,5897.07593997328
1.176,-0.8071219414974893,5893.030098880082
1.18,-0.7940802358692802,5891.005850414208
1.184,-0.7413625700836262,5907.077199314202
1.188,-0.6652649477169639,5898.562473078254
1.192,-0.5845283867846899,5899.688055852783
1.196,-0.5147883319723865,5901.710495010242
1.2,-0.4645619001122346,5894.308487659951
1.204,-0.43404381635586425,5900.61642887578
1.208,-0.41675087293749735,5905.4084640058645
1.212,-0.40298173745663063,5901.184406249951
1.216,-0.3836751016742229,5904.701488486932
1.22,-0.35340303094438336,5901.724727593552
1.224,-0.3116506572033064,5900.800246981022
1.228,-0.2622390592795872,5905.116067570561
1.232,-0.21159492995144544,5905.486806791553
1.236,-0.16692887196001388,5901.003127937385
1.24,-0.13487882750571137,5894.055426883154
1.244,-0.12037976705875682,5898.498927681408
1.248,-0.12538743608139793,5901.140548945983
1.252,-0.1477559314345016,5900.313391362001
1.256,-0.1812183088865236,5899.174643264943
1.26,-0.2172331522810098,5896.973570063062
1.264,-0.24838828001853136,5905.046593361167
1.268,-0.27180013332912295,5902.905789462967
1.272,-0.2905630755048091,5905.468850894065
1.276,-0.3123150235281506,5896.484762838922
1.28,-0.3456816639439272,5891.084974957991
1.284,-0.39642339377938013,5902.084122609094
1.288,-0.46495929810409237,5900.734028087692
1.292,-0.5460027977378406,5899.522532235067
1.296,-0.6300009571747651,5905.003158634167
1.3,-0.7054206421237863,5904.319834827134
1.304,-0.7608987664462138,5896.160914378346
1.308,-0.7867439284820956,5899.974469102494
1.312,-0.7758608834387836,5900.260815096531
1.316,-0.7244904408784486,5898.906042344967
1.32,-0.6330394319923199,5893.020318804569
1.324,-0.5068853377972435,5895.855049238327
1.328,-0.3567106189225473,5897.710373350924
1.332,-0.19780666568447153,5898.066105373643
1.336,-0.048004555113082055,5905.121354929346
1.34,0.07543410748261056,5901.913967856227
1.344,0.15892183096108808,5892.937148649864
1.348,0.1946185103697138,5898.301268834781
1.352,0.18119759708922145,5892.760246121316
1.356,0.12371570451282751,5894.056543828475
1.36,0.033025962030213615,5900.697105415495
1.364,-0.07533523379803575,5895.818252879449
1.368,-0.1832609927207759,5895.234340832211
1.372,-0.2733374988739045,5898.071526247279
1.376,-0.33252890954233644,5901.39192494551
1.38,-0.3549880475173597,5900.644397151766
1.384,-0.3429745198903166,5902.511104529986
1.388,-0.3056390042110348,5902.801079047702
1.392,-0.25613647024772757,5898.879262744691
1.396,-0.20796423010020335,5896.120949451562
1.4,-0.17159241875906753,5900.87919147063
1.404,-0.15233299011603732,5896.663248542712
1.408,-0.14999394096793434,5898.193510448249
1.412,-0.16027966313806932,5902.357297472312
1.416,-0.1772245782355432,5899.244260997735
1.42,-0.19543605761929714,5905.21539328966
1.424,-0.21101298453598005,5897.982311228496
1.428,-0.2208511591800855,5895.525084907736
1.432,-0.22116893814509153,5894.27905469078
1.436,-0.2067421106998834,5895.640954593007
1.44,-0.17202415646061528,5893.938967849637
1.444,-0.11407660789454474,5902.749550264034
1.448,-0.0357899166313782,5901.0709129573725
1.452,0.05266098699157099,5890.38613125436
1.456,0.13531506091585907,5900.335000425199
1.46,0.19443223387196576,5903.217491989892
1.464,0.21535271328630542,5902.1360469497695
1.468,0.19042816638721746,5890.063153903046
1.472,0.1209160741223782,5906.047224125428
1.476,0.01654394438570976,5900.795968322025
1.48,-0.10687259161810703,5906.303351301855
1.484,-0.23084871748582605,5909.963742443937
1.488,-0.3376072192118341,5899.230234756936
1.492,-0.4126851891073452,5906.240041023894
1.496,-0.4466042821984323,5897.926013306413
1.5,-0.4357726871929928,5898.764085109552
1.504,-0.38284276485703345,5901.894302864575
1.508,-0.2966509688386408,5904.172501024376
1.512,-0.19164126871632878,5909.580818426197
1.516,-0.08643870790931289,5902.8802494920255
1.52,-0.0012712444277184862,5887.411019659
1.524,0.04565479321416023,5897.446485198118
1.528,0.042147187716905385,5893.57051449762
1.532,-0.014711829234069253,5898.422815878915
1.536,-0.11716677175651875,5893.33076400842
1.54,-0.2478796698439729,5896.397675153493
1.544,-0.3832187250708222,5895.755661867288
1.548,-0.49766323892074443,5905.150279001897
1.552,-0.5682024278800053,5901.5309900409775
1.556,-0.5782055560240408,5905.665280652077
1.56,-0.5206371428781793,5902.219813085496
1.564,-0.400188941329498,5896.172956385261
1.568,-0.23338692402198477,5901.66826561224
1.572,-0.04581963541260319,5905.567063689568
1.576,0.1334011248909272,5907.508912267804
1.58,0.27845141895996045,5898.629543202347
1.584,0.3724810334278744,5892.234309961982
1.588,0.4101230896803781,5908.215822603819
1.592,0.3962892302863063,5898.623002654753
1.596,0.3424020772561162,5900.2994086474655
1.6,0.2620321354253815,5902.74362787633
1.604,0.16756509083469115,5902.418013086959
1.608,0.06856324559528099,5907.444305995186
1.612,-0.028331464573505476,5904.3900286436365
1.616,-0.11847131257666647,5896.549606684079
1.62,-0.19789983500715658,5894.9369765724805
1.624,-0.26236298840043387,5903.873785693369
1.628,-0.30718599369680777,5901.226406897183
1.632,-0.32819037007891444,5903.378188883088
1.636,-0.3233022323813651,5895.4405705321
1.64,-0.29403004546743305,5910.499482206472
1.644,-0.24591219644066822,5907.68988541387
1.648,-0.187597912620926,5901.7850168007
1.652,-0.12910368521790283,5901.227224100107
1.656,-0.08019830072723444,5897.314507003844
1.66,-0.04943103081280703,5899.558502081453
1.664,-0.0435418939609768,5906.230927139654
1.668,-0.06666570114844439,5901.463754436079
1.672,-0.1190820921756208,5897.289750083944
1.676,-0.19592070690024574,5907.163421984527
1.68,-0.2867253989817996,5900.461699230643
1.684,-0.3767201051652919,5901.237917746581
1.688,-0.44987856775120444,5898.638016111221
1.692,-0.4928999413123604,5896.659614932493
1.696,-0.49869179523510754,5906.441094653548
1.7,-0.4682842610839031,5900.308461610789
1.704,-0.4107751968411496,5902.843296982608
1.708,-0.341354243926061,5901.0217988932345
1.712,-0.2776827271800351,5907.024824449024
1.716,-0.23525012168423617,5904.079016694983
1.72,-0.2228383222102355,5895.269827561883
1.724,-0.23959060628207302,5904.983920319884
1.728,-0.27497497736817395,5902.313558680926
1.732,-0.31194010735135436,5894.768102473216
1.736,-0.33221074579702,5894.774679929415
1.74,-0.3218687601934909,5897.878076094431
1.744,-0.27556184688193286,5900.237311446693
1.748,-0.19840684280176257,5898.513134036601
1.752,-0.10527054983334665,5902.525139902939
1.756,-0.017536237281327905,5892.20687768782
1.76,0.042054713290747656,5910.236669925282
1.764,0.05536865056129178,5904.319051986552
1.768,0.01424230821481931,5911.810696459527
1.772,-0.07613803957695972,5902.715012027135
1.776,-0.19698220823685977,5891.653051980847
1.78,-0.3193476752628553,5903.894749168532
1.784,-0.4108398242967222,5907.32474198819
1.788,-0.4439587896490038,5912.082187785999
1.792,-0.4039087373956737,5901.793656936489
