时间(s),电压(V),幅值(高频80K)
0.0,-1.0723204687683494,5899.723832060608
0.004,-0.7053439480941242,5903.942730911803
0.008,-0.38348756184788907,5898.874688494299
0.012,-0.14319079435853807,5897.856895581636
0.016,-0.005829795617518441,5901.575485469804
0.02,0.025419575910445667,5906.409390043799
0.024,-0.03486740468725459,5894.179426901393
0.028,-0.1581571329444647,5897.451607723126
0.032,-0.3086993171810866,5898.873279007037
0.036,-0.4518907454464106,5892.321565394526
0.04,-0.5617353457839779,5902.252498168065
0.044,-0.6248447849795568,5900.0170152926175
0.048,-0.6399930525152138,5899.787714225671
0.052,-0.6143400210005585,5899.458531311791
0.056,-0.5586442991580011,5905.741241457094
0.06,-0.48345566676770263,5895.485180479263
0.064,-0.39699252629625326,5897.89553713517
0.068,-0.3044370962148774,5898.437441349783
0.072,-0.2083399268058489,5900.31776055345
0.076,-0.11005104506566118,5905.616344581813
0.08,-0.011723958897060795,5906.158214226155
0.084,0.08224029322873015,5902.000904962436
0.088,0.16530811383860017,5904.601791353372
0.092,0.23024005213459023,5894.1902688917
0.096,0.27047420341740824,5898.888378343087
0.1,0.2804659120702371,5897.381138236451
0.104,0.2553793719263067,5896.142094150294
0.108,0.1913573348276933,5897.74487876639
0.112,0.08716974355628346,5902.349712009613
0.116,-0.05296784192299795,5900.597758720753
0.12,-0.21653208804585036,5907.081636618728
0.124,-0.3815543926955865,5906.341738092521
0.128,-0.518947868012722,5898.936523436304
0.132,-0.598766017785035,5897.2905229520165
0.136,-0.5986487418302578,5903.781579517833
0.14,-0.5110782296075393,5900.129463839041
0.144,-0.34643740981885357,5900.88619538418
0.148,-0.13098499984289066,5900.710679411773
0.152,0.0989886413877118,5904.774879961385
0.156,0.30475110853411097,5891.047314110045
0.16,0.4527819589847222,5901.243487604611
0.164,0.521359471269677,5902.087125699961
0.168,0.5049592737775527,5896.61307431384
0.172,0.41513422360540997,5899.537247589246
0.176,0.27703702376853195,5902.824581168561
0.18,0.12224802308446045,5895.426567951621
0.184,-0.019852568466688543,5902.135919192783
0.188,-0.12943244085441083,5900.912213054751
0.192,-0.2002362294159907,5907.888639012915
0.196,-0.23946952263318647,5896.425838546428
0.2,-0.2639486805164219,5895.7967181303975
0.204,-0.29395676251171604,5896.607755525791
0.208,-0.34668964536174457,5905.565853631527
0.212,-0.43087952163257126,5895.269889129817
0.216,-0.5436460516094321,5899.256227235331
0.22,-0.6703128553166218,5897.577328133655
0.224,-0.7875810681509795,5894.861053651182
0.228,-0.8696484865363876,5904.871246731185
0.232,-0.8957329978687176,5901.0558860561
0.236,-0.8565834891587379,5897.985453931197
0.24,-0.7575544553048187,5898.124316318818
0.244,-0.6170114235887492,5903.051760931445
0.248,-0.46086786442279276,5898.547418404896
0.252,-0.31568006466277404,5893.870269569826
0.256,-0.2027257971825513,5904.324748465438
0.26,-0.1341874814703548,5906.115613817006
0.264,-0.11150454032345944,5899.416612143487
0.268,-0.12589870518994986,5895.822188740888
0.272,-0.16122115027839784,5899.430014724729
0.276,-0.19870406480541664,5909.200652071094
0.28,-0.22219312041453806,5896.619025022963
0.284,-0.22208246616495583,5901.547378744621
0.288,-0.196959537518884,5903.750296688223
0.292,-0.15315145512631914,5892.416831144506
0.296,-0.10289997485858554,5905.097628912716
0.3,-0.0615897126672673,5896.110052766687
0.304,-0.04406482560249111,5902.457948038156
0.308,-0.060396862872113426,5903.976624173337
0.312,-0.11237170203411236,5895.294287076105
0.316,-0.19233151853114752,5907.416788044608
0.32,-0.2850940822344552,5898.513146174771
0.324,-0.37218209850616785,5902.670748141782
0.328,-0.4367493043086606,5900.910313871526
0.332,-0.4675844586445769,5902.625185822185
0.336,-0.4609259433718218,5903.255259148055
0.34,-0.41959602993891215,5910.211100260987
0.344,-0.350317332730437,5898.44087592048
0.348,-0.2610897388386971,5911.481927646444
0.352,-0.16006989839649366,5896.911544561042
0.356,-0.05588262874967945,5902.743942540102
0.36,0.041848790789324776,5908.497863658845
0.364,0.12291626391720606,5901.916106551851
0.368,0.17812134903600943,5903.506984965166
0.372,0.20135978939701352,5904.855851642663
0.376,0.1912817251619118,5900.068569511372
0.38,0.15197702551907127,5892.675388575929
0.384,0.09238180886822955,5909.445708942677
0.388,0.024154244852493827,5901.846887874767
0.392,-0.04165507816056093,5896.478348035469
0.396,-0.09768422544349643,5899.949120252012
0.4,-0.14121634857361326,5894.520956934317
0.404,-0.17233204817085276,5898.27476586504
0.408,-0.19054327166376325,5907.241719984237
0.412,-0.1922575919748015,5891.361328558649
0.416,-0.1708505707382772,5905.946182932484
0.42,-0.11944633413776429,5899.816284486808
0.424,-0.03483783524238356,5907.553389787384
0.428,0.07957283303549019,5893.952026051944
0.432,0.21302700789281567,5903.475656734286
0.436,0.3486252970703453,5903.923789378166
0.44,0.4655812645343013,5909.460471657278
0.444,0.5419227747266524,5901.707864286069
0.448,0.5577200043541725,5903.979288505847
0.452,0.4991608237791892,5901.830438005858
0.456,0.3632477746420657,5898.308556002661
0.46,0.1617981379452976,5899.095716480286
0.464,-0.07729373353225584,5902.381953721594
0.468,-0.31311289333460135,5890.695278616592
0.472,-0.499267222744295,5896.834380647031
0.476,-0.5945521518470397,5891.004967681611
0.48,-0.5741435308310766,5900.717288012847
0.484,-0.43798316782903535,5898.663371423875
0.488,-0.21324127816072136,5899.604202382594
0.492,0.050743716422447,5900.396854618652
0.496,0.2942429791322619,5901.8946626779325
0.5,0.46245895511348917,5893.655840434233
0.504,0.5197995862510267,5908.40480362695
0.508,0.4586650422438576,5902.521773268179
0.512,0.3001069647522953,5883.444335163116
0.516,0.08648535182750644,5898.614609592118
0.52,-0.13119811452432797,5898.119866621891
0.524,-0.3072117872059662,5889.190950634928
0.528,-0.4122195344088914,5904.04236234556
0.532,-0.438822576407318,5885.108525702198
0.536,-0.40059864095936654,5904.619831907253
0.54,-0.32568642169579654,5899.561615073716
0.544,-0.24745237668556372,5897.110886710514
0.548,-0.19521018601818108,5905.2335688408575
0.552,-0.18728546119536937,5900.18562618109
0.556,-0.22762144783706456,5898.314779550009
0.56,-0.30620280321988125,5908.531200232994
0.5640000000000001,-0.4027809803413873,5894.645778603675
0.5680000000000001,-0.4926317278137093,5899.305272241349
0.5720000000000001,-0.5526806510313762,5903.267434336408
0.5760000000000001,-0.5665408822754453,5896.526942506818
0.58,-0.5276347683014513,5905.220310008669
0.584,-0.44021770142055283,5889.641618214097
0.588,-0.3184562994098889,5898.41253152873
0.592,-0.18371736793668098,5901.412992098805
0.596,-0.06025009009385349,5899.971521092992
0.6,0.030183386316893736,5893.923964882496
0.604,0.07357003429288445,5900.968878048172
0.608,0.06724034052234502,5907.954901249368
0.612,0.02041081798228145,5898.171650474571
0.616,-0.04881680467094859,5891.99904380314
0.62,-0.11908299862253695,5885.337622107938
0.624,-0.1718723480549683,5905.0180016086015
0.628,-0.19578470330513661,5914.784955490296
0.632,-0.18784524936270894,5897.552850589993
0.636,-0.15232724064422676,5903.992901008053
0.64,-0.09841649706966066,5900.471335819436
0.644,-0.03787077638324229,5905.411737923992
0.648,0.0168356646813535,5902.226699754594
0.652,0.054020075637751214,5896.842702488643
0.656,0.06443749144336082,5898.250460485022
0.66,0.0433736213755847,5897.310383655938
0.664,-0.00729516923347397,5891.533249859181
0.668,-0.07839138212550273,5898.086165476545
0.672,-0.15531125667662818,5899.310947421631
0.676,-0.22241645819898004,5905.109524553486
0.68,-0.26825285448340497,5906.19611993057
0.684,-0.28920940975981096,5899.969237624291
0.6880000000000001,-0.2898674820109594,5897.002635147362
0.6920000000000001,-0.2798679785728489,5902.147495123734
0.6960000000000001,-0.26891701193065465,5893.209940046897
0.7000000000000001,-0.26254400725096744,5901.304942523145
0.704,-0.26067430368575956,5901.757038990686
0.708,-0.25938009525988165,5900.0799971999895
0.712,-0.25450322875473513,5898.42478008618
0.716,-0.24509394852317307,5902.97639772216
0.72,-0.23498155011856883,5894.4497367336135
0.724,-0.23186634304216108,5897.640507360696
0.728,-0.2443762827165011,5890.212019708494
0.732,-0.2781051719645203,5887.474758845336
0.736,-0.3318230753591458,5891.587500964255
0.74,-0.3951473773877471,5905.674856257624
0.744,-0.44901636224358943,5896.2321112417785
0.748,-0.46986853640411874,5897.439687734466
0.752,-0.4371006278743273,5904.349502889646
0.756,-0.34155237143754524,5913.610239161836
0.76,-0.1915813530506036,5894.792749039116
0.764,-0.013691983096062893,5901.048192717391
0.768,0.15334855069291764,5901.275664272955
0.772,0.26936303816940854,5895.403343445267
0.776,0.30495149652043224,5895.639948006704
0.78,0.2506746240512727,5900.891481601003
0.784,0.11999926155336563,5900.477387202996
0.788,-0.05469689355197214,5903.509170345318
0.792,-0.23119398423728788,5897.215723092752
0.796,-0.3684254113483214,5912.862450419093
0.8,-0.43638018270433776,5899.156440483032
0.804,-0.42276111309114234,5896.365671537581
0.808,-0.3353020204824775,5900.823829073908
0.812,-0.19955776585239884,5895.224455485885
0.8160000000000001,-0.052676843474635235,5900.490550267844
0.8200000000000001,0.06560082260358649,5898.310774474571
0.8240000000000001,0.12260754711930691,5891.8269079447455
0.8280000000000001,0.10041444255553991,5904.375903714355
0.8320000000000001,-0.0007845156058487249,5902.247511416123
0.836,-0.16447799930263776,5905.025158923212
0.84,-0.3638535611060787,5902.809399473892
0.844,-0.569508871394337,5894.612668426862
0.848,-0.7559722726930074,5903.969060310546
0.852,-0.9051577428968185,5907.375034845565
0.856,-1.006669154492293,5896.602044332101
0.86,-1.0563716445815665,5891.0853927748585
0.864,-1.0549952524771093,5904.0075087131145
0.868,-1.0076468534418592,5901.5808586880985
0.872,-0.9237673505456278,5890.5422794812885
0.876,-0.8164336432289764,5893.264030303482
0.88,-0.7005251905495318,5902.19282322656
0.884,-0.5903941429448993,5897.63642290484
0.888,-0.49801074493999614,5887.131562866674
0.892,-0.43189254729459214,5903.063327928579
0.896,-0.39643940331434707,5899.231577391103
0.9,-0.3913562572084624,5912.98903908072
0.904,-0.41142622348022556,5893.317317250981
0.908,-0.44728646025428664,5895.847450135007
0.912,-0.4876296823116351,5887.297571446418
0.916,-0.522434883752709,5899.85184150262
0.92,-0.5458223719976301,5889.383496969286
0.924,-0.5567553258434519,5891.71578227347
0.928,-0.5568623279249398,5908.755285195893
0.932,-0.5467260403233852,5899.467859059425
0.936,-0.5233087337742883,5898.157652276925
0.94,-0.48039843149103356,5905.036572957319
0.944,-0.41169292761507587,5896.718319170116
0.948,-0.3143629385170559,5907.390353947088
0.952,-0.19094431630931843,5894.794952660907
0.956,-0.048861178276268014,5906.932478246777
0.96,0.10152814350013212,5901.205439922613
0.964,0.24892366421980602,5896.290119321974
0.968,0.38236333916293985,5901.699560066741
0.972,0.4919672916628437,5892.913938801806
0.976,0.5695236165997768,5889.660288557706
0.98,0.6089839160481336,5899.19039152966
0.984,0.6067999487392893,5896.49021374985
0.988,0.5621096865146274,5902.430643302401
0.992,0.4768527946120681,5901.9581309776695
0.996,0.3559690720005322,5898.509073803152
1.0,0.20776451061504453,5902.374718214271
1.004,0.04410390332014214,5906.11164308932
1.008,-0.12032725009681368,5901.621274040325
1.012,-0.2701735465235323,5894.905022071863
1.016,-0.39250066420633173,5904.971528708917
1.02,-0.47955072851699254,5900.145919715663
1.024,-0.529949292146795,5904.289249262447
1.028,-0.5480106076677476,5887.698463538305
1.032,-0.5417824499748828,5901.195311558867
1.036,-0.5209187761690832,5903.89436173059
1.04,-0.49515073599862164,5905.275320003179
1.044,-0.47342648418685573,5901.681578819873
1.048,-0.46330046636659233,5899.054239505657
1.052,-0.47016502685720574,5902.592626005368
1.056,-0.4963261428536421,5897.185053840637
1.06,-0.5403439865016847,5903.938805630681
1.064,-0.5970387154909922,5893.531260998308
1.068,-0.6581334246159719,5899.81300528557
1.072,-0.7132396456410701,5900.253398733918
1.076,-0.7510403319449535,5903.28348354528
1.08,-0.7607322042993754,5893.838720146245
1.084,-0.7338204230980973,5900.992217852409
1.088,-0.666306533332572,5901.600366038442
1.092,-0.5610225012841729,5910.096451205471
1.096,-0.4291272201308318,5899.398903714361
1.1,-0.28920587399314757,5902.14847062279
1.104,-0.1630840298384544,5905.484036150567
1.108,-0.06936633041750717,5915.446216373356
1.112,-0.01736249330747374,5897.797184085988
1.116,-0.004126578488888115,5894.561869776383
1.12,-0.01585840698145586,5892.023908741561
1.124,-0.032986755276623,5896.174207568852
1.128,-0.03692679872470093,5899.19632047015
1.132,-0.01615903761891106,5903.813889890782
1.136,0.030253434325528367,5903.635722049553
1.14,0.09261195097387932,5898.059803155353
1.144,0.15375324299241772,5894.836863848017
1.148,0.1943330666428915,5905.064208716091
1.152,0.1987595772339246,5897.166018060303
1.156,0.16025451528937046,5901.180204743165
1.16,0.08343555197681372,5903.174735531943
1.164,-0.016945657163671676,5899.038565957886
1.168,-0.12116510974194902,5903.644712014278
1.172,-0.21159539146050543,5911.644217658179
1.176,-0.2785460705364243,5900.973993274433
1.18,-0.3225055023387477,5894.918318119262
1.184,-0.3523093811303565,5894.305028401792
1.188,-0.3804501007844232,5903.967753081792
1.192,-0.4175537949560038,5901.939378888086
1.196,-0.4679778029197209,5903.469245407589
1.2,-0.52787694149221,5903.381658003289
1.204,-0.5862914570353533,5902.799168244662
1.208,-0.6288815519345402,5898.999361178016
1.212,-0.6430078008960325,5893.571486165924
1.216,-0.6223782696380958,5896.800408269982
1.22,-0.5697183026634868,5901.494756710089
1.224,-0.496622818215695,5908.904889669512
1.228,-0.42056684222535917,5901.011837945633
1.232,-0.35986328285023433,5903.76615932325
1.236,-0.3280673728497844,5894.100013736329
1.24,-0.3296304598000009,5896.314154084166
1.244,-0.3582610554210497,5901.428190383578
1.248,-0.39860205965110457,5898.423881669482
1.252,-0.4308357152983782,5899.9445468087215
1.256,-0.4369119228797683,5895.164740506072
1.26,-0.40646624901630146,5904.603304312318
1.264,-0.340472560847398,5901.814886667043
1.268,-0.2513756549759727,5908.355515136801
1.272,-0.15959560840693018,5893.59575308586
1.276,-0.08749777030915888,5889.296934644634
1.28,-0.052793413218721746,5894.057855056778
1.284,-0.06347472239318426,5901.051907540025
1.288,-0.11572376031323106,5899.812768947962
1.292,-0.19522284025988743,5898.09941710083
1.296,-0.2813723190459911,5893.597775573398
1.3,-0.3531184979350866,5897.698925168356
1.304,-0.3945129705015658,5895.742851462626
1.308,-0.39824158153591943,5907.884840917752
1.312,-0.3663501581717114,5907.6289438846015
1.316,-0.3086288744887575,5910.926295028886
1.32,-0.23972984005485432,5901.31210801635
1.324,-0.17586110061215107,5904.029459419197
1.328,-0.13143983770677573,5906.98226108301
1.332,-0.11607127617722568,5892.073906450079
1.336,-0.1324944118704976,5908.81522574277
1.34,-0.17600934563300946,5897.210621580427
1.344,-0.23527151954644915,5899.011095480812
1.348,-0.2939399259544521,5899.068733858005
1.352,-0.3330231307297812,5898.982175989663
1.356,-0.33434351791554917,5903.767815761594
1.36,-0.2852733625810404,5897.468453717379
1.364,-0.18353847735447973,5894.407755062489
1.368,-0.03960789559194758,5900.590959439944
1.372,0.12542307033421304,5912.577157790784
1.376,0.28621511548694367,5902.135694738767
1.38,0.42092154417310224,5897.471689844141
1.384,0.5165306028376444,5909.5029540066025
1.388,0.5697420098202679,5897.332231534284
1.392,0.5840584210409286,5903.891528572082
1.396,0.5655664950908064,5907.24586140154
1.4,0.5198748537311262,5901.28753892214
1.404,0.45133307879234646,5898.960840155304
1.408,0.36399417662937494,5902.17320372438
1.412,0.2628660504149986,5896.227540042674
1.416,0.1542893794088987,5903.860254643081
1.42,0.04523900523995276,5902.228269546563
1.424,-0.05788430566790375,5901.614201438645
1.428,-0.15019460190304387,5897.17841752904
1.432,-0.22855306424526034,5894.87284840536
1.436,-0.29130721453175307,5900.152709514118
1.44,-0.338123534023277,5901.278012120319
1.444,-0.3701531316230746,5908.004665927766
1.448,-0.390176847800978,5899.41785919207
1.452,-0.4021715413795776,5906.064611617876
1.456,-0.4098474568464903,5906.892216538321
1.46,-0.41412637753348847,5913.393059310639
1.464,-0.41061089639508425,5901.073302048095
1.468,-0.3891437719925492,5904.888714551526
1.472,-0.3369734809801901,5895.34122080876
1.476,-0.24467637581108306,5902.763779287028
1.48,-0.11182041341875623,5898.272542982563
1.484,0.050702177356067295,5897.141012865964
1.488,0.22275595537181483,5900.873881491656
1.492,0.38014020427821826,5894.877805637393
1.496,0.5004045053445323,5896.292034648225
1.5,0.5673856439503179,5896.67105613204
1.504,0.5737818655413187,5895.059877146843
1.508,0.5217638189298027,5899.3615151821405
1.512,0.4216606890151431,5897.72103506404
1.516,0.28896189373191833,5903.868744298635
1.52,0.14048117634177926,5898.5189151000095
1.524,-0.009073893237431485,5899.764793041307
1.528,-0.14906568655294833,5892.791672273325
1.532,-0.2729364095586195,5900.862400304625
1.536,-0.3766036833173551,5904.288031653287
1.54,-0.45643195745370885,5896.109233521188
1.544,-0.5081748290589723,5900.751840595238
1.548,-0.5274597823660816,5899.606623571673
1.552,-0.5112562225528082,5899.317778610359
1.556,-0.4594055467928984,5896.567609690616
1.56,-0.37569256825257263,5897.260229268899
1.564,-0.26824443888092314,5901.631479295726
1.568,-0.14897273873482175,5892.662295137082
1.572,-0.03181818231161311,5913.513363361451
1.576,0.06987610322685868,5900.935343826907
1.58,0.14566386952564214,5900.247240220882
1.584,0.18848865357160766,5890.185584142323
1.588,0.19298940466567432,5903.124534031013
1.592,0.1531353123480127,5903.022813456722
1.596,0.06169697086254838,5907.244401553936
1.6,-0.0868954402812233,5904.602770534467
1.604,-0.2910301045092747,5898.339614046044
1.608,-0.5365077635332246,5904.922008869849
1.612,-0.7945991279722594,5898.03264096677
1.616,-1.025596694054571,5893.227240890929
1.62,-1.1874373044678426,5905.895378593982
1.624,-1.2467670728201468,5897.638817580558
1.628,-1.1887658949689761,5898.761290627595
1.632,-1.0222874421704913,5904.522863190829
1.636,-0.7783522926161637,5907.253063262432
1.64,-0.5023891393836031,5901.951850434707
1.644,-0.24285874171587707,5899.429389950917
1.648,-0.04001852584532969,5902.674628470533
1.652,0.08178057383344747,5888.747983445451
1.656,0.11650840061762048,5888.640141672711
1.66,0.0739842158584151,5890.383605434071
1.664,-0.025479965985030807,5893.211452960708
1.668,-0.1570032399269735,5902.150855412623
1.672,-0.296038264124868,5901.304018209451
1.676,-0.4216513739226043,5894.902501538558
1.68,-0.5183278908720474,5902.117707565085
1.684,-0.5769299720592532,5895.775179574191
1.688,-0.5955507601267404,5902.776625702651
1.692,-0.5804336183620504,5904.0406169801645
1.696,-0.5460327263117754,5901.440277432045
1.7,-0.5127845173282559,5899.695552416127
1.704,-0.5021246637765578,5908.242536550005
1.708,-0.5300698443691017,5903.917730349302
1.712,-0.6017706791571823,5891.51866688365
1.716,-0.7091677112487261,5896.68991237321
1.72,-0.8327040499542019,5904.750229879723
1.724,-0.9465711615126041,5901.046355411794
1.728,-1.0256722350529508,5898.053682580349
1.732,-1.051987228016831,5903.583473742957
1.736,-1.0185374218599472,5911.190084722524
1.74,-0.9301712465151174,5892.288755978753
1.744,-0.8013702142994703,5901.1821224406485
1.748,-0.6519980202687223,5906.22099857688
1.752,-0.5022878359058675,5902.376994265288
1.756,-0.3684102695003324,5905.441743754271
1.76,-0.25982004272793124,5907.779536685748
1.764,-0.17908268002573116,5898.569210460661
1.768,-0.12381488110624361,5903.908282587556
1.772,-0.08931031740367508,5901.200805038627
1.776,-0.07045550036195238,5898.545039864087
1.78,-0.06269205986240828,5898.302215645942
1.784,-0.06265074226466193,5897.20699640494
1.788,-0.06871548273604336,5896.146998678431
1.792,-0.08099938269195817,5899.6871722658725
1.796,-0.10030820276237595,5899.266507631322
