时间(s),电压(V),幅值(高频80K)
0.0,-0.7513656365165381,5898.708852103832
0.004,-0.5539200831896655,5904.727908515473
0.008,-0.3717153493213759,5904.765354221086
0.012,-0.21470015753930013,5890.122499273946
0.016,-0.08778640834366702,5887.2095515923065
0.02,0.007643092855551443,5895.600825973053
0.024,0.07109186922338927,5901.553128017443
0.028,0.10132013350709058,5890.447796245538
0.032,0.09665618085300721,5890.444587178075
0.036,0.056653346840968156,5897.532536403866
0.04,-0.01609120373197293,5896.684265632009
0.044,-0.1148718392874166,5901.569253459854
0.048,-0.22916096230215277,5898.536950372724
0.052,-0.34655395769900477,5902.726622531454
0.056,-0.45585843935567455,5906.454772540225
0.06,-0.5497621571214909,5899.397909086772
0.064,-0.6254644255814472,5898.546336680992
0.068,-0.6829597827438323,5904.09335280794
0.072,-0.7221398249304434,5900.51856645061
0.076,-0.7403710788538371,5899.09852654398
0.08,-0.731770925538821,5893.991027634921
0.084,-0.6886612752560679,5901.553069211359
0.088,-0.6048943145702045,5905.7406558341
0.092,-0.4799748181725169,5901.762489129734
0.096,-0.3223792284774936,5892.8308189390345
0.1,-0.15045228763425042,5906.692792791791
0.104,0.010102175832477953,5908.302778746699
0.108,0.13184984318982929,5895.530777341865
0.112,0.19264620374946803,5898.704473860445
0.116,0.1815628043688947,5909.581791252498
0.12,0.10169102331736055,5899.829542629991
0.124,-0.030881593398501616,5901.591064200839
0.128,-0.1912701364114544,5897.034060623884
0.132,-0.3516514392030855,5898.660546424939
0.136,-0.48699532557920433,5898.476776131723
0.14,-0.5792301672910755,5899.952661508062
0.144,-0.6193299558845299,5898.829095733075
0.148,-0.6077641794469887,5902.514665020904
0.152,-0.5539096604499232,5894.2110880119135
0.156,-0.47432337335915686,5895.161785065506
0.16,-0.3892683557280918,5895.047619003077
0.164,-0.31752394315968435,5894.9070196599305
0.168,-0.27094032369896487,5900.994072246053
0.172,-0.25107202175532367,5894.73126898319
0.176,-0.24950930805650237,5901.476041644069
0.18,-0.2515430194222545,5898.579735847817
0.184,-0.24113544358205505,5895.0876752689655
0.188,-0.20515659463327973,5895.215031527006
0.192,-0.13613150925678974,5898.27874065109
0.196,-0.03385860137393752,5893.963676825149
0.2,0.09370643315874409,5896.831380305319
0.204,0.23060668356963696,5907.038025207946
0.208,0.35485378270569523,5902.288028381965
0.212,0.44259094575857383,5906.674368886512
0.216,0.4737542133202464,5902.105313174781
0.22,0.43752170614270647,5892.696370199206
0.224,0.33556979503889983,5896.160375003274
0.228,0.18184012110139955,5896.154564298609
0.232,-0.0011401617044025532,5902.514825633108
0.236,-0.18795022901452366,5898.545605082772
0.24,-0.35576030847484713,5906.797843742427
0.244,-0.48773222421088475,5905.716930220001
0.248,-0.5738366126781472,5903.381208326124
0.252,-0.6099857013560875,5893.444693161985
0.256,-0.5967194209445051,5901.653537554104
0.26,-0.538082275248832,5905.999086388566
0.264,-0.44078068886940047,5894.16027185303
0.268,-0.31365910015805887,5900.39866409534
0.272,-0.1675520984172961,5900.663315884752
0.276,-0.015259480399974169,5903.743900324572
0.28,0.12897754485595928,5905.454133150003
0.284,0.25093420743441597,5904.235244930777
0.288,0.3384335600413099,5902.873916080083
0.292,0.3829544911348909,5905.19992645004
0.296,0.38004749459064197,5896.49076184178
0.3,0.32872172437148145,5897.2084252290615
0.304,0.23079885131101957,5895.285786189549
0.308,0.09123300866139193,5898.644115903527
0.312,-0.08049096471711865,5895.445770289502
0.316,-0.2689135410632834,5895.402856549646
0.32,-0.45275006074507496,5910.010415089839
0.324,-0.6077810046160532,5908.687843358608
0.328,-0.7120674985705683,5894.6148841515005
0.332,-0.7514988187126461,5902.157685473894
0.336,-0.7233869056093364,5907.457327822578
0.34,-0.6368757743428752,5901.771275978113
0.344,-0.5103320467127238,5902.142815011798
0.348,-0.366849471835158,5895.82231506963
0.352,-0.22932868593165723,5893.349059823084
0.356,-0.1163720832461483,5895.978788539916
0.36,-0.03969703301427486,5900.146451609211
0.364,-0.0031653925124748863,5894.950989664988
0.368,-0.0031123681519661032,5902.875074234201
0.372,-0.029684162742962476,5898.979632723733
0.376,-0.06920056099050297,5891.320931454096
0.38,-0.10750118185335666,5904.602462540868
0.384,-0.13358030916112718,5892.719935017129
0.388,-0.14228817439589989,5894.602515684193
0.392,-0.1352008991758372,5901.098477358731
0.396,-0.11968693289380593,5899.3905697051605
0.4,-0.10691701845520175,5905.377321537665
0.404,-0.10956811939470101,5905.655439409879
0.408,-0.13938538848187668,5892.866572929771
0.412,-0.2042920686948541,5896.488411470017
0.416,-0.3050676461378461,5905.519527241608
0.42,-0.43260084164774615,5893.683815021536
0.424,-0.5674107277541929,5892.347023065675
0.428,-0.6827257325958046,5891.634190734789
0.432,-0.7509723834996352,5897.984919279915
0.436,-0.7518007675046153,5897.544493093201
0.44,-0.6787285151654281,5902.859333710732
0.444,-0.5417992146980698,5904.577498109335
0.448,-0.36521011995576147,5901.514593351677
0.452,-0.1807699659916529,5904.03036571921
0.456,-0.019378864203936093,5905.81605703358
0.46,0.09680132464626802,5898.352037257633
0.464,0.15904049607111287,5905.523937033493
0.468,0.17206621105072878,5893.468539026263
0.472,0.14958759663394297,5900.002089193115
0.476,0.10748377585391224,5908.125672005082
0.48,0.057907762772931255,5903.980735865842
0.484,0.006761532824122603,5898.198426888567
0.488,-0.04522680648625227,5903.7791143099175
0.492,-0.09962758264878889,5895.085347243879
0.496,-0.15795160290024027,5905.340745007251
0.5,-0.22106421984128352,5896.895097015834
0.504,-0.28998560585619304,5899.093477954825
0.508,-0.36667494689891783,5900.390894356228
0.512,-0.4536344511871144,5903.179927838521
0.516,-0.5522713750620807,5903.29907553578
0.52,-0.6608349426294474,5897.254985447695
0.524,-0.7727562011937473,5905.123333268018
0.528,-0.8758568948920962,5892.627354466709
0.532,-0.9529148114338404,5895.920149542259
0.536,-0.984281422773718,5902.567088343442
0.54,-0.9528159583789683,5897.5096629332165
0.544,-0.8501060872749162,5895.91727259715
0.548,-0.681565352926235,5898.01041422505
0.552,-0.4676787631247036,5891.606486736848
0.556,-0.24002922153751702,5897.638459653043
0.56,-0.03325590280988035,5905.735223696406
0.5640000000000001,0.12374039656840305,5900.299310693179
0.5680000000000001,0.21373419986703873,5901.702107746822
0.5720000000000001,0.2325144369638219,5907.231677439472
0.5760000000000001,0.1865541130737737,5902.478795247307
0.58,0.08943856493549356,5905.29665670018
0.584,-0.04097515934250584,5910.549640818549
0.588,-0.18423261461072132,5894.585918795756
0.592,-0.31861346750839975,5902.020620961178
0.596,-0.42317276899227974,5895.903674285021
0.6,-0.4807989752990665,5904.056275829521
0.604,-0.4815654196449374,5895.804019116255
0.608,-0.42517802631257773,5893.086746326977
0.612,-0.3216523207283355,5904.941414958897
0.616,-0.1899974941401813,5900.32806066205
0.62,-0.05513228531916429,5906.925792250642
0.624,0.056462156490451325,5891.720674132637
0.628,0.12149235471521032,5893.53908726992
0.632,0.12388240570554705,5907.350945141325
0.636,0.05723101847538509,5908.205214444374
0.64,-0.0743976542610709,5903.014583250418
0.644,-0.25690394191923854,5903.32091410758
0.648,-0.4675524853905869,5898.937287980397
0.652,-0.6775990596293197,5893.604522275513
0.656,-0.8563814935872248,5893.130537330794
0.66,-0.9764443218184018,5893.091001367513
0.664,-1.01866694777991,5899.111397086275
0.668,-0.9762438454138898,5895.683267101015
0.672,-0.8564015437564004,5908.079057779573
0.676,-0.678924279251739,5890.516629133967
0.68,-0.47149764069131755,5908.139460753896
0.684,-0.2634404441959153,5902.804877694653
0.6880000000000001,-0.08031144653271845,5896.969539158871
0.6920000000000001,0.05878223091605215,5902.06149643037
0.6960000000000001,0.14116172750108374,5901.744139753124
0.7000000000000001,0.1595499960023302,5897.193601972527
0.704,0.1121906065835223,5896.275143112674
0.708,0.004958512338920773,5906.133715350369
0.712,-0.14587252173500007,5900.467641061434
0.716,-0.3128824965751066,5902.68482304418
0.72,-0.46083409479901866,5901.469456775779
0.724,-0.5539815650767431,5895.769986006656
0.728,-0.5650712086899791,5901.664238025149
0.732,-0.48286968475859854,5901.831754617673
0.736,-0.3158008994500863,5902.112918056256
0.74,-0.09081809700370788,5899.765503036771
0.744,0.15200713635798543,5910.461499201142
0.748,0.36779095864330696,5895.887088446577
0.752,0.5160752986236344,5899.307482707954
0.756,0.568951178348101,5896.792645536955
0.76,0.5165041677392244,5897.784356938603
0.764,0.36865219230271784,5899.280529355384
0.768,0.15288267717515064,5901.429973632079
0.772,-0.09207104384208183,5904.616686369943
0.776,-0.3254452851750341,5899.526397542508
0.78,-0.5139128996936067,5906.487237847409
0.784,-0.6380571466057354,5897.940477735645
0.788,-0.6938559842719693,5891.584000737698
0.792,-0.6896729369702881,5900.778175620278
0.796,-0.6411225130574835,5893.876560870528
0.8,-0.5661693360432516,5897.01358423552
0.804,-0.4815154976227718,5910.116877525229
0.808,-0.40028763910041787,5907.372177182113
0.812,-0.33091705331736215,5901.643459311897
0.8160000000000001,-0.2772919903954145,5892.633910669519
0.8200000000000001,-0.24015157751165306,5900.568660245368
0.8240000000000001,-0.2193444128182193,5898.188823325975
0.8280000000000001,-0.21611040999924963,5899.2018245140425
0.8320000000000001,-0.23412808852844286,5896.220645475881
0.836,-0.2783343776834957,5912.795702521527
0.84,-0.3518167239602582,5904.01436565826
0.844,-0.4525184191923931,5895.751936573972
0.848,-0.5717180393868155,5906.840187549121
0.852,-0.6950188179225489,5905.766831942279
0.856,-0.8051897150059056,5896.668943803945
0.86,-0.885830918814098,5893.921934949837
0.864,-0.9251334470569189,5904.364074130554
0.868,-0.918971710513392,5905.93200095323
0.872,-0.8723575527771059,5902.070629267718
0.876,-0.7987017526427109,5896.190994403646
0.88,-0.7171843227087367,5900.383871312655
0.884,-0.6489697224066082,5896.56679758436
0.888,-0.6129477090552917,5901.765426984938
0.892,-0.6216268042460138,5892.226269954933
0.896,-0.677750588045549,5905.914326615013
0.9,-0.7720745315840868,5897.010659964779
0.904,-0.8829774243592491,5898.785277344933
0.908,-0.9790556666161705,5894.887296908668
0.912,-1.0253938199947847,5903.810649664754
0.916,-0.9923984010338305,5895.94073609837
0.92,-0.8642688288843524,5895.932743273076
0.924,-0.643960891847075,5892.030126396423
0.928,-0.3530430074041171,5896.725054861338
0.932,-0.026969445595794568,5908.459860791537
0.936,0.29230055977291214,5894.410385317613
0.94,0.5641610416440205,5898.297511026365
0.944,0.7560123956505572,5898.222289538998
0.948,0.8476704787608336,5906.702985640281
0.952,0.8330564619958432,5901.199477705084
0.956,0.7192363069585354,5905.505465725536
0.96,0.5234561128814003,5891.188817139204
0.964,0.2693899227735108,5891.7072172096805
0.968,-0.015866198374198608,5892.98027898617
0.972,-0.30284366686919584,5900.809988946014
0.976,-0.5585707906789315,5900.575757837496
0.98,-0.7442236409995463,5900.705725579897
0.984,-0.8134599238556526,5908.550335543871
0.988,-0.7137648677516863,5907.482998954571
0.992,-0.3927078525378153,5895.798129965977
0.996,0.19052594882349827,5899.118229907348
1.0,1.0503118396218143,5903.222398353212
1.004,2.160870095500932,5907.517105561765
1.008,3.449591757027205,5901.806664222605
1.012,4.802655725370584,5910.269918168815
1.016,6.084219576652867,5909.040918730319
1.02,7.16439419942661,5896.12928131819
1.024,7.946786466607391,5893.611028170691
1.028,8.386601449278706,5911.677016652482
1.032,8.494443893612237,5897.641938118912
1.036,8.326209154182505,5895.21127848322
1.04,7.963758263564465,5894.747643090399
1.044,7.493412891830792,5900.765889799731
1.048,6.988919920633708,5903.679494520297
1.052,6.50263719063901,5900.536190673979
1.056,6.064977723419378,5897.2767290058455
1.06,5.689428157309922,5907.105988730353
1.064,5.379399145901282,5898.377536225225
1.068,5.1336623787211595,5905.281109395509
1.072,4.948780639675786,5897.357589320763
1.076,4.818865969603742,5900.560384770253
1.08,4.734157538353928,5910.053217375058
1.084,4.6799573255097755,5897.315183936848
1.088,4.636871337811243,5910.250257501966
1.092,4.582640554126896,5907.869382028725
1.096,4.495349188909688,5905.040329187705
1.1,4.357397828086064,5897.181305687822
1.104,4.159168886289694,5907.363410170078
1.108,3.901037473475824,5901.849990277278
1.112,3.592870798270166,5902.672415068671
1.116,3.251415499589716,5900.092307545996
1.12,2.897073900420822,5892.772349480623
1.124,2.551557253969867,5906.576142059987
1.128,2.2367905468699414,5902.437345681476
1.132,1.9742042896054077,5902.722209709581
1.136,1.7831771052044383,5898.359309651336
1.14,1.6780865282902433,5897.909150690723
1.144,1.664551899975344,5898.402253757126
1.148,1.7361678721001528,5896.13807205865
1.152,1.873047694829029,5902.1100464088
1.156,2.0431519947400014,5895.443359361952
1.16,2.206869354068572,5896.869883914207
1.164,2.324444566358218,5895.5044475609175
1.168,2.3646290534643306,5897.88566830592
1.172,2.311943728771035,5899.444739984223
1.176,2.1699532625501705,5892.324314406855
1.18,1.9592100147187927,5901.392933919588
1.184,1.7105688475819654,5895.998388777537
1.188,1.4564763803097291,5896.105046473129
1.192,1.223589211028237,5901.449798305439
1.196,1.0291077865824625,5900.716751479567
1.2,0.881052238246962,5903.440384417667
1.204,0.7808393874881877,5911.032567329483
1.208,0.7261432018731052,5910.191026575818
1.212,0.712935913314167,5910.14708991021
1.216,0.7365587902492279,5899.299832448799
1.22,0.7918379549362373,5904.882596548451
1.224,0.872141782892066,5893.218053236185
1.228,0.9677469749029196,5889.031952116466
1.232,1.0647171761800118,5895.253896995396
1.236,1.1456199763955102,5893.966299537223
1.24,1.192400567431251,5892.372992319904
1.244,1.1904044327027576,5889.111471482812
1.248,1.1319568515078422,5901.3057600915
1.252,1.0182320799237325,5900.686205126092
1.256,0.8587676024293908,5886.537224989559
1.26,0.6686172856871085,5887.916894351319
1.264,0.46407592444695195,5889.632012873729
1.268,0.2589033502887189,5884.114604681147
1.272,0.06297901442883679,5887.242569786778
1.276,-0.11613028950228053,5892.098839989627
1.28,-0.2701190558850395,5895.085484263968
1.284,-0.38779666172437255,5886.233345389901
1.288,-0.4556790195549409,5886.684073733222
1.292,-0.4615508289121771,5878.562145068931
1.296,-0.39952926797098465,5890.454643149605
1.3,-0.2741877786710048,5880.761789077536
1.304,-0.10153301735767759,5886.465532171311
1.308,0.09389959669675156,5886.367017243778
1.312,0.28460239131119947,5882.203651327224
1.316,0.4459822661794938,5876.50986797272
1.32,0.5607140416360267,5887.404493293407
1.324,0.6208683068822246,5878.958971973001
1.328,0.6278417657834848,5881.796107185397
1.332,0.5903545774968186,5874.618257784327
1.336,0.5211329788643821,5879.58246164511
1.34,0.4333656270240503,5876.037221473058
1.344,0.3381292317143973,5871.859928884465
1.348,0.24352556155095856,5882.00560526187
1.352,0.15542077601701995,5883.640271027289
1.356,0.07880108340924344,5872.970545724315
1.36,0.01844915869561393,5880.703431904526
1.364,-0.021699036006185304,5876.530856970986
1.368,-0.03999097379451755,5877.150983532106
1.372,-0.03809283908344944,5879.339460113704
1.376,-0.02072568397610609,5874.439173235906
1.38,0.0058979143511386995,5867.249132243848
1.384,0.03605064012303018,5879.031530877263
1.388,0.06568507477228128,5875.935105093289
1.392,0.09222752852275194,5870.090021961775
1.396,0.11339719550745748,5866.858433067535
1.4,0.126122701159178,5881.609605173092
1.404,0.12647499926861866,5877.782514738157
1.408,0.11081386597738381,5868.2213073509165
1.412,0.07748242358913701,5870.800553434986
1.416,0.02788508568086951,5872.847085647126
1.42,-0.03390193695517126,5871.691565671707
1.424,-0.10277442809699489,5882.94918960745
1.428,-0.17423415317585048,5871.858552641658
1.432,-0.24467068585796653,5870.549364351282
1.436,-0.3100619572917862,5867.743568638831
1.44,-0.3642682528076398,5866.548052767298
1.444,-0.3986090779642229,5874.758769526548
1.448,-0.4036711276385619,5873.358531138377
1.452,-0.37290315250187284,5863.6323874096615
1.456,-0.3064346504875943,5867.796302296805
1.46,-0.21326298392940612,5877.252106460504
1.464,-0.11054096054396592,5868.708384516861
1.468,-0.019913797806140648,5868.427673136741
1.472,0.03790913414831915,5869.472742895621
1.476,0.04864296469517658,5867.385040153287
1.48,0.008532421989291729,5871.402989664674
1.484,-0.0739570689877211,5863.122803339981
1.488,-0.17960636908573427,5872.381107512419
1.492,-0.2832291507233294,5868.513189944806
1.496,-0.3607572690348762,5858.431720501365
1.5,-0.39630041072358957,5860.598683393101
1.504,-0.3864206443485776,5865.437383792627
1.508,-0.3398943643479895,5870.980803214869
1.512,-0.27323659931131267,5858.809059566655
1.516,-0.2040323066279503,5879.62028053653
1.52,-0.1448148290835118,5857.100027535656
1.524,-0.09978928471675753,5863.257528911355
1.528,-0.06543800196665416,5870.875236299183
1.532,-0.03442515008417265,5872.379242539582
1.536,-0.0008711886403467219,5855.974778098565
1.54,0.035440034916795926,5873.319190735069
1.544,0.06783048515949465,5866.52782121504
1.548,0.08497448070682895,5858.367581338984
1.552,0.07539852428856769,5863.210051961965
1.556,0.031986111512793555,5868.205201525307
1.56,-0.04534986361611217,5867.033619677757
1.564,-0.14932534839008063,5862.284389111678
1.568,-0.26675947532997063,5864.431201821914
1.572,-0.3811568369935627,5862.601891533786
1.576,-0.47577836138231744,5860.632401198864
1.58,-0.5365446362665384,5862.756927542973
1.584,-0.554202366822657,5863.178522222028
1.588,-0.5255570464573716,5864.693770584991
1.592,-0.45384518695490794,5862.312716695985
1.596,-0.3482052407462206,5863.072970153879
1.6,-0.22206133132714986,5869.060280804408
1.604,-0.09049551145171879,5861.837707965646
1.608,0.03276277809823806,5861.915873209526
1.612,0.1376924625302362,5861.640798459119
1.616,0.2186999629346727,5867.883160708942
1.62,0.2733833078513873,5876.491487656494
1.624,0.3000915351557531,5864.024068888215
1.628,0.29580591505926757,5857.430938224422
1.632,0.25572499915649943,5867.118537978407
1.636,0.17497430915272671,5864.482269207068
1.64,0.05170154132443562,5867.92341715584
1.644,-0.10994062810104444,5866.010692031535
1.648,-0.29836445094253805,5852.9821357153405
1.652,-0.49524627464067644,5854.127903424994
1.656,-0.677942287022136,5862.219541367815
1.66,-0.8228824497509997,5863.602209872601
1.664,-0.9094757207676621,5856.480463337928
1.668,-0.9241269228160172,5855.310281932365
1.672,-0.8635325986142757,5866.177067106209
1.676,-0.7361845168203165,5855.221247682379
1.68,-0.5615501255319749,5856.211892903627
1.684,-0.36725267725763006,5859.398674841113
1.688,-0.18492225136672497,5862.192030316957
1.692,-0.04520908251635998,5850.093299622132
1.696,0.027628631404626392,5865.713524345665
1.7,0.02081386504212181,5861.926085416507
1.704,-0.0633680333857149,5861.382683985396
1.708,-0.2067744687504444,5861.197761930054
1.712,-0.3782656997664872,5856.796882104248
1.716,-0.5401787084085674,5854.282238417869
1.72,-0.6570755908059683,5857.158927948887
1.724,-0.7042528580153846,5857.795599910544
1.728,-0.6732204546387257,5863.720470255948
1.732,-0.5723384328234139,5857.615526329232
1.736,-0.4226772432184009,5863.579976335266
1.74,-0.25107197818615257,5846.88849462279
1.744,-0.08327159465803165,5855.360547159464
1.748,0.06045517524818686,5864.989317847649
1.752,0.16647357015738104,5865.40625781267
1.756,0.22658692251442494,5857.597192441712
1.76,0.2364017479085477,5857.322893258647
1.764,0.19509988103720327,5860.640284745546
1.768,0.10720515205221781,5859.349539115188
1.772,-0.014905901269170048,5865.425782010994
1.776,-0.15016587349670296,5860.155255301752
1.78,-0.271662878156248,5857.213962761398
1.784,-0.35329746307326443,5857.30042428599
1.788,-0.37792114603138466,5854.972742203553
1.792,-0.3430853443166167,5851.8779536983
1.796,-0.26124193152866226,5856.545896967808
1.8,-0.1540638043467812,5850.129770018879
1.804,-0.043636928529465005,5863.619407538437
1.808,0.05537124790693386,5856.581445387888
