时间(s),电压(V),幅值(高频80K)
0.0,1.0584050665907392,5900.896498130128
0.004,0.7231781224290273,5905.037436747133
0.008,0.39358521994169277,5902.212968286598
0.012,0.08289502904632537,5900.005259993487
0.016,-0.19027672282022007,5901.671529706685
0.02,-0.40399922192432847,5899.472586289729
0.024,-0.5376508214350831,5900.509496756806
0.028,-0.5776124422843575,5908.149709407884
0.032,-0.522248882440413,5899.250557180623
0.036,-0.3848142044109323,5902.293191400236
0.04,-0.19336282873041624,5901.486116541369
0.044,0.012874193486071847,5898.051485737514
0.048,0.19052415941545156,5901.615437023648
0.052,0.30129240539248553,5908.690232189942
0.056,0.3210247565909882,5900.069059684508
0.06,0.2458997084228953,5895.851605727742
0.064,0.09369380598791677,5903.02661086738
0.068,-0.10062752552547975,5897.695983526224
0.072,-0.2941110216144797,5903.246967175641
0.076,-0.44720970906412977,5899.075969796381
0.08,-0.5337172065242697,5900.424437928055
0.084,-0.5461238248199991,5911.081003962978
0.088,-0.49538264249166925,5901.397260997342
0.092,-0.40640201063171916,5907.352119325652
0.096,-0.3115167787339636,5896.7968989939
0.1,-0.24352680186025283,5900.882005231988
0.104,-0.2290050675083897,5907.1228755247885
0.108,-0.2825878628336353,5903.091310658549
0.112,-0.4034270262211441,5899.284297972436
0.116,-0.5748947987667938,5897.73440622283
0.12,-0.7678152538048988,5897.987393060294
0.124,-0.9465259952293882,5902.221243179351
0.128,-1.076414440562216,5897.131218305784
0.132,-1.1313020261936517,5896.533354138748
0.136,-1.0990652085944983,5900.097573588035
0.14,-0.9841280618563665,5901.209819032678
0.144,-0.8060590632386155,5904.33595425459
0.148,-0.5945755575098806,5898.113308116403
0.152,-0.3824458829749201,5901.041632185648
0.156,-0.1983013580855483,5898.304065405221
0.16,-0.06097527425808296,5910.909425393634
0.164,0.023645419720429096,5912.546207737561
0.168,0.06258918235759806,5894.153416360539
0.172,0.0723306625917406,5898.767932998847
0.176,0.07264950136637387,5893.914534421666
0.18,0.079833752135603,5899.938451497673
0.184,0.10167437118758442,5908.098268684765
0.188,0.13579849827274884,5893.464388685041
0.192,0.17137824533643084,5901.519030860458
0.196,0.1932601128279491,5906.322172117871
0.2,0.1872836512093327,5894.501443926413
0.204,0.14537181545160488,5907.086391133096
0.208,0.06873879929653798,5900.086049821547
0.212,-0.032094432369025414,5902.7658308787495
0.216,-0.14053004512497913,5897.451017297325
0.22,-0.23890502075621292,5897.441474797888
0.224,-0.31313013257513206,5899.761127171541
0.228,-0.355434660646461,5897.074232332382
0.232,-0.365029863721125,5901.050780036257
0.236,-0.34735948792884525,5888.490276819638
0.24,-0.3125153873685519,5905.545425856828
0.244,-0.273002372058467,5896.239545403517
0.248,-0.24107803321442808,5904.878767799152
0.252,-0.22632013445097876,5907.044485622063
0.256,-0.23425190768080387,5898.152519633113
0.26,-0.2663513748564424,5897.665809508615
0.264,-0.3209236448254511,5901.0753241428165
0.268,-0.3938933849707727,5907.249698044122
0.272,-0.47890598037900495,5896.604651945012
0.276,-0.56692255830084,5900.237272299729
0.28,-0.6462196732097201,5895.509391469164
0.284,-0.703753211885845,5900.474203325928
0.288,-0.727967583919868,5897.499737851169
0.292,-0.7119908122556893,5894.438260704661
0.296,-0.6557863723545366,5903.286564722087
0.3,-0.5663692052968757,5896.610406142122
0.304,-0.45592494213155843,5907.202629573127
0.308,-0.33826933828386435,5907.405259507779
0.312,-0.22476745148853516,5900.420978067002
0.316,-0.12138082599429813,5902.439733041342
0.32,-0.028210362392526025,5896.268928045681
0.324,0.058346485356860295,5900.181358075631
0.328,0.14200448546034852,5909.711252093706
0.332,0.22324034411746416,5902.851483335275
0.336,0.29755535323176363,5904.773317073624
0.34,0.35600863709144315,5897.58440526916
0.344,0.3877511857791813,5895.644873904177
0.348,0.38342684142697353,5898.838661470604
0.352,0.338025643657163,5895.719284049116
0.356,0.2522809306811007,5893.498214958154
0.36,0.13251605039540024,5913.414395825322
0.364,-0.010643055245909567,5898.8827422669765
0.368,-0.16416747940934895,5892.115344878697
0.372,-0.3146606281796747,5898.600032907235
0.376,-0.45009452603594763,5902.240664647153
0.38,-0.5608922178797857,5906.756285734944
0.384,-0.6402340950192557,5898.652889863343
0.388,-0.683837632882282,5900.236159635636
0.392,-0.6897412003804236,5898.868721056526
0.396,-0.6585756543676334,5895.235445225894
0.4,-0.5943645974199758,5899.538395358725
0.404,-0.5052557572356156,5896.449782299814
0.408,-0.40326559903782044,5900.69952765875
0.412,-0.30249907271197907,5891.317452610105
0.416,-0.2161359890844921,5897.623706823392
0.42,-0.15319796930367502,5896.992382510073
0.424,-0.11637075886946201,5892.463837684157
0.428,-0.1017656436227406,5900.9251559849
0.432,-0.10054162137019,5896.373084855812
0.436,-0.10143294422938463,5900.957534652947
0.44,-0.09318893429759689,5904.076854348359
0.444,-0.06667867404448902,5907.833392440425
0.448,-0.017096249011351664,5896.946342770867
0.452,0.053418937585616146,5898.2260969404615
0.456,0.13337780829860751,5905.444846034807
0.46,0.20141622249299654,5898.9227252532855
0.464,0.22935330520463687,5903.171067418358
0.468,0.18914135235859741,5900.055675640915
0.472,0.06198675019752121,5892.6334786855205
0.476,-0.15341456918137414,5898.8583660276045
0.48,-0.43658871837053015,5901.62224576429
0.484,-0.7469139029664563,5900.839487417573
0.488,-1.0314370340453047,5903.395229067281
0.492,-1.2372199057532693,5905.665800833385
0.496,-1.3248524527516363,5904.237000896411
0.5,-1.278878956810766,5899.946937647643
0.504,-1.1114820654568103,5894.846197991159
0.508,-0.8581655097580252,5899.925801303732
0.512,-0.5674412297050793,5901.728051134974
0.516,-0.28864434302238723,5895.63395489761
0.52,-0.06172677482556223,5902.349782484814
0.524,0.08895077195197172,5902.951355135325
0.528,0.15646707031603196,5899.35005887273
0.532,0.1492947971483313,5907.252118918238
0.536,0.08635218289135266,5896.660093902569
0.54,-0.009318519489595934,5901.903497973557
0.544,-0.11651546538757361,5905.857648395838
0.548,-0.2200562836090373,5901.569444468102
0.552,-0.3122922617933776,5905.30522045932
0.556,-0.39182941317733944,5895.189775431412
0.56,-0.460371817710377,5897.380734391953
0.5640000000000001,-0.5194456483197365,5908.024289141683
0.5680000000000001,-0.5685652388751663,5902.979082296011
0.5720000000000001,-0.6051926047039501,5901.356115353052
0.5760000000000001,-0.6257782778051639,5906.830708131112
0.58,-0.627123884524791,5909.297115042962
0.584,-0.6077804101267587,5895.505847126554
0.588,-0.5692422384096119,5892.669116434381
0.592,-0.5163465788086105,5901.846538341493
0.596,-0.4563354586803215,5896.459802245816
0.6,-0.39670834085403206,5898.097397546993
0.604,-0.3427000652022193,5890.149567060064
0.608,-0.29551146971084885,5907.264261004506
0.612,-0.25225191432556027,5904.844944848756
0.616,-0.2078549327906034,5902.132994478773
0.62,-0.15817753275119265,5903.404370256123
0.624,-0.10280193159207729,5902.514680016546
0.628,-0.04625981705823631,5903.033624874491
0.632,0.00273786021403242,5905.545768319794
0.636,0.03361250663240537,5901.335203808837
0.64,0.03692372899331964,5894.110265388623
0.644,0.007260047642683853,5904.170715221432
0.648,-0.054697698086214,5899.184781511046
0.652,-0.14157282970934124,5903.2561315017465
0.656,-0.24045643065922523,5892.424638147087
0.66,-0.3355494812980231,5893.949523887642
0.664,-0.41147545959938436,5898.749774552184
0.668,-0.4563288572374833,5898.456402763545
0.672,-0.46382645058513267,5904.947168360039
0.676,-0.4344122408739874,5901.103814304093
0.68,-0.37544160606704147,5904.422175861068
0.684,-0.3004409939934528,5903.36486276727
0.6880000000000001,-0.22716791042434675,5902.163471983314
0.6920000000000001,-0.17423303243944835,5899.777530329932
0.6960000000000001,-0.15656386354150661,5907.930719573799
0.7000000000000001,-0.18077140510323306,5900.555406676969
0.704,-0.24208628590153325,5896.596857998402
0.708,-0.3244789940325988,5902.366803244007
0.712,-0.4046195435863517,5900.316336691264
0.716,-0.4587290531741807,5905.167540436519
0.72,-0.4699180632274402,5889.170833801967
0.724,-0.43316515634888436,5899.102351880681
0.728,-0.355987838486048,5895.532345094531
0.732,-0.2546763998980265,5910.913586859361
0.736,-0.14788738846469254,5899.548733064986
0.74,-0.05053881360109913,5900.650645298301
0.744,0.02935877420900777,5897.590908610411
0.748,0.08998188173262024,5896.802251591361
0.752,0.13222406820908578,5911.486683571916
0.756,0.1559500491587596,5898.824311386208
0.76,0.15833662365511986,5897.059285422809
0.764,0.13522220764739518,5889.790937410874
0.768,0.08452400255232273,5889.238418932726
0.772,0.009615199111797569,5895.26674743774
0.776,-0.07939868249292567,5909.683386618696
0.78,-0.16749417558552823,5891.726898318081
0.784,-0.23900500356273216,5899.048482031885
0.788,-0.2822773261483061,5895.499537930858
0.792,-0.2923172214119768,5902.697638847318
0.796,-0.27033151603572547,5906.115951439509
0.8,-0.22107168814589231,5901.665455281143
0.804,-0.15006052663720718,5902.448966817708
0.808,-0.06242658125083597,5903.241155685423
0.812,0.03619603406119721,5896.860558662203
0.8160000000000001,0.1374991503092827,5897.916390451612
0.8200000000000001,0.2286151249987873,5907.449415973015
0.8240000000000001,0.2921188936549428,5895.91315563259
0.8280000000000001,0.3087798498536545,5897.76561504079
0.8320000000000001,0.26266889066193466,5898.6203983678015
0.836,0.14707144409498243,5893.719227185999
0.84,-0.030959610274413327,5898.120205448798
0.844,-0.24949755530757223,5895.75085808722
0.848,-0.47522448826361735,5886.230004281876
0.852,-0.6709517571409652,5898.399598896364
0.856,-0.8049342821461115,5903.971331445429
0.86,-0.8589071193464064,5899.612426132447
0.864,-0.8321381142802862,5903.197975477794
0.868,-0.7401926524052972,5893.709775130942
0.872,-0.6090776388674981,5899.957475594395
0.876,-0.46712084304734797,5905.683019735693
0.88,-0.33748006565904515,5903.874320494603
0.884,-0.23346020611894763,5902.445528607097
0.888,-0.15751249016354757,5902.989228450969
0.892,-0.1035385172189455,5900.158123011393
0.896,-0.061203362738153355,5901.016046706059
0.9,-0.020552368820890805,5897.540604902721
0.904,0.02456813785845201,5900.779510811464
0.908,0.07510253111266448,5902.380130764643
0.912,0.12741432705759692,5902.555860593949
0.916,0.17542547318562804,5892.014532125097
0.92,0.21347528231219773,5896.954751011703
0.924,0.23894914267551481,5894.372999848675
0.928,0.25369036833452674,5889.877099803943
0.932,0.2635222686107046,5908.474538364491
0.936,0.27589192439766425,5895.598747340697
0.94,0.2964166218191316,5903.323021738717
0.944,0.32566867131333455,5912.245344201611
0.948,0.357687266944846,5893.286658917267
0.952,0.3812907711640217,5899.301010059954
0.956,0.3841879020125719,5897.603539683689
0.96,0.3584330973399988,5896.18658633889
0.964,0.30473752438299656,5902.390218372526
0.968,0.23338043109288187,5901.658590426104
0.972,0.1610482164445201,5892.051995220608
0.976,0.10493180447450878,5902.1412550511695
0.98,0.07661132908770861,5903.507263959984
0.984,0.0780844281125207,5899.140246613333
0.988,0.10113026022735015,5892.625959033569
0.992,0.12987881625192632,5897.907476120769
0.996,0.14555906515010839,5893.6300814943415
1.0,0.13197203278311467,5902.020284461259
1.004,0.08008622141518805,5896.717735738955
1.008,-0.009692680928415147,5900.4000299897525
1.012,-0.12837471496192393,5904.659634683647
1.016,-0.2620221831472071,5892.311158352808
1.02,-0.39661476435712034,5907.137203713422
1.024,-0.5219985528084607,5887.778011988158
1.028,-0.6333297457965568,5894.077320667331
1.032,-0.7298205365150785,5901.919308205884
1.036,-0.811909888468081,5907.196643442703
1.04,-0.8785552098789284,5895.10547487598
1.044,-0.9260443727820643,5902.763860689095
1.048,-0.9487406357817133,5902.617353854031
1.052,-0.9410631001145877,5896.672737810762
1.056,-0.8995132860689884,5900.973829928284
1.06,-0.8238876645184628,5916.625570545402
1.064,-0.7175170296551587,5903.133159205401
1.068,-0.5868915442371696,5912.17878761183
1.072,-0.44110182510686363,5888.4234870267255
1.076,-0.2912601870097358,5906.747382404755
1.08,-0.14974470125860936,5895.06017764134
1.084,-0.02894095907923272,5899.111711105822
1.088,0.060701748612181736,5898.2134448905
1.092,0.11300646319373854,5912.261738868201
1.096,0.12801269830056264,5901.915875971784
1.1,0.11263976461087599,5899.108913706204
1.104,0.07952368889547565,5891.108940240166
1.108,0.04411901869292,5909.730652932256
1.112,0.020909619136698716,5901.368858689325
1.116,0.020070873683603396,5897.529183346793
1.12,0.045691352243094376,5899.116515413331
1.124,0.09573357451221418,5907.971835580632
1.128,0.16305403734649018,5898.723717255402
1.132,0.23670828138902097,5897.85713731738
1.136,0.3033533746042247,5895.993538233892
1.14,0.3492033227703809,5902.0512531015975
1.144,0.3630316690508651,5890.03223354721
1.148,0.3398464939892395,5911.550409443285
1.152,0.28366332744378836,5898.890741403245
1.156,0.2075182610246543,5896.660662631671
1.16,0.13007632756462342,5901.163420780245
1.164,0.07003995002713058,5898.899080907498
1.168,0.04062447574325861,5900.640828902801
1.172,0.0460285743671183,5897.973895161232
1.176,0.08067740920539995,5892.31281419257
1.18,0.13100200901393222,5906.836502216876
1.184,0.17901405207211085,5906.20426205615
1.188,0.20681303463026554,5892.723564736364
1.192,0.2012163179302917,5900.783129403033
1.196,0.15767995110407323,5888.722266316518
1.2,0.08247350213767257,5898.144309231501
1.204,-0.007932417158021121,5892.952559667383
1.208,-0.090638357718193,5896.037777819314
1.212,-0.14242364062719762,5905.789746260776
1.216,-0.1463174801127664,5895.370083811815
1.22,-0.09647480510676924,5898.985097137406
1.224,0.00015644658576877216,5901.981700833047
1.228,0.12567702120109817,5899.544321310654
1.232,0.2557479948201447,5896.126296546064
1.236,0.36527309090876825,5910.4378573466665
1.24,0.4336100150524213,5900.765715806754
1.244,0.4479853621507099,5907.248844189293
1.248,0.4044929008509379,5904.657509378639
1.252,0.3069634045445975,5888.798886190569
1.256,0.16479474724903442,5899.348968059223
1.26,-0.008864593625768379,5902.568427024213
1.264,-0.1976843443391226,5897.189333248068
1.268,-0.3817865081654576,5900.571786419939
1.272,-0.5379906764216377,5910.652416480248
1.276,-0.6424619955151896,5897.019975038536
1.28,-0.6762398264300166,5900.6252775088005
1.284,-0.6319031667403832,5901.35597516887
1.288,-0.5181519754696818,5903.300660394865
1.292,-0.35962199628990044,5894.982555299304
1.296,-0.1914584407757506,5895.991338632583
1.3,-0.050466355226324464,5903.5112921270575
1.304,0.03420569720392982,5903.391367037738
1.308,0.048014164749019206,5898.633917029749
1.312,-0.0062608959068953226,5902.013135613082
1.316,-0.1104548662474574,5893.655478591759
1.32,-0.2366110251547266,5895.530624590562
1.324,-0.3543098004809001,5903.111018846674
1.328,-0.43771794599017183,5909.144808481121
1.332,-0.47089514631979124,5893.320883968544
1.336,-0.45057839042586106,5895.900615295978
1.34,-0.38615563940678077,5896.848956412098
1.344,-0.2970091165314897,5898.799595760184
1.348,-0.20792563225981422,5899.400818742397
1.352,-0.14354086361114712,5903.315388945278
1.356,-0.12276110928563919,5903.242208896416
1.36,-0.15413375860628983,5902.483020718772
1.364,-0.233280853071898,5893.442776805814
1.368,-0.3433636959250143,5901.495097989504
1.372,-0.45880325497191576,5898.449649075847
1.376,-0.5513846714861863,5885.097542711476
1.38,-0.5970728122767501,5900.6674110578615
1.384,-0.5818087945514595,5900.314091502989
1.388,-0.5050573783171091,5906.817452811066
1.392,-0.38042284124171966,5901.929341676791
1.396,-0.2330865438133489,5908.484201865614
1.4,-0.09439671485562953,5907.787749430102
1.404,0.0052787539589478315,5899.336750413984
1.408,0.04373225140191928,5900.861627737221
1.412,0.01232573936446924,5896.846970744914
1.416,-0.0818741492384076,5898.761271229984
1.42,-0.21806703383254955,5903.923840723902
1.424,-0.3673860936787173,5896.341363460504
1.428,-0.5003507527458331,5890.90008963525
1.432,-0.5934679059121268,5905.5131009246525
1.436,-0.6330669591951598,5900.72168557849
1.44,-0.6160614847772616,5902.953729179147
1.444,-0.5486068646827547,5897.290364763116
1.448,-0.4438250410086363,5895.0317604277125
1.452,-0.3191189795916205,5902.835528491708
1.456,-0.1930208062246379,5897.903988982994
1.46,-0.08174543459267618,5900.873318971471
1.464,0.003626172775224787,5903.695164551968
1.468,0.05811204423082856,5898.935001749829
1.472,0.08135854380295172,5908.137167540916
1.476,0.0743010342822759,5889.531468412543
1.48,0.03555435722427359,5902.183392674201
1.484,-0.04037619814804542,5894.052917418578
1.488,-0.1613952839135805,5894.990945467655
1.492,-0.3323522595734127,5895.116005967339
1.496,-0.5472130241645209,5902.965123566857
1.5,-0.7813945466942466,5896.859975002084
1.504,-0.9871300822534727,5907.17048597254
1.508,-1.0945077779136954,5902.757837522366
1.512,-1.0200605042005182,5898.159509321241
1.516,-0.6831380164707814,5892.951594344024
1.52,-0.027558463254957616,5900.20295621435
1.524,0.9570451584393451,5891.933568952296
1.528,2.221606104612357,5901.543518193465
1.532,3.6583764436255617,5903.16750452039
1.536,5.11875703390235,5891.526627343996
1.54,6.4444830338503865,5906.618564579012
1.544,7.502310891561502,5894.881200407512
1.548,8.210540256674104,5908.991282890918
1.552,8.549729724478762,5900.624362339135
1.556,8.556889634966495,5897.300520695313
1.56,8.307919159834949,5901.248541862507
1.564,7.89520328220029,5902.455788795296
1.568,7.406797441423894,5901.099969659887
1.572,6.911745929179107,5892.141561071131
1.576,6.453532162232787,5902.21633899193
1.58,6.051048344413947,5902.766054605185
1.584,5.704671917389584,5894.682803856575
1.588,5.40455899572793,5899.049567325752
1.592,5.138632854835547,5897.3404703276665
1.596,4.8983173997885325,5898.7462301574
1.6,4.680942971403476,5905.263661182886
1.604,4.489000162005746,5897.107018623856
1.608,4.327351268768314,5897.757213678534
1.612,4.199627757581667,5892.250134353457
1.616,4.104747675499404,5900.214996728631
1.62,4.03436582841041,5905.138022910773
1.624,3.9721708075684226,5897.752048979769
1.628,3.8958769612998245,5900.449483793027
1.632,3.7820977406043927,5893.853756157152
1.636,3.6130648687870974,5903.014165437262
1.64,3.383086301166484,5903.53002044887
1.644,3.102418293208713,5898.731289872041
1.648,2.7968676725359276,5897.247122165466
1.652,2.502639394505028,5902.672139827134
1.656,2.257557402884812,5898.627865946277
1.66,2.0913616867309006,5895.270130888422
1.664,2.018340205342383,5899.341655133336
1.668,2.0344791943189153,5902.359169420744
1.672,2.1192584727913544,5902.086167545584
1.676,2.2406518079221165,5906.446849972561
1.68,2.3616367444049198,5897.752563532571
1.684,2.4470250657935395,5904.689713278607
1.688,2.469740380816292,5906.848781476575
1.692,2.4155810818465033,5890.412509545933
1.696,2.2854521301729074,5895.745391302146
1.7,2.0944128749909745,5890.681124068853
1.704,1.8676898002281541,5887.735111193722
1.708,1.6347613202098406,5896.291780907612
1.712,1.4232314003747029,5893.570291444463
1.716,1.2540248404231873,5909.264541397747
1.72,1.138657881609685,5891.596240664614
1.724,1.0786702213457449,5900.6451556170005
1.728,1.0669829800035544,5906.698253047629
1.732,1.0906074960658272,5898.254298762181
1.736,1.13369452119281,5897.245025587103
1.74,1.1798272150041544,5899.683190543315
1.744,1.21310008896992,5893.338555304172
1.748,1.2186579854546993,5889.005333482793
1.752,1.184045664586527,5889.38374058512
1.756,1.1020328212684138,5897.156523001835
1.76,0.973887394300717,5884.826618340043
1.764,0.810926110546638,5884.673337363047
1.768,0.6326871442339862,5883.104968562478
1.772,0.46182050941828373,5879.276135804971
1.776,0.31754969770409874,5891.681805499607
1.78,0.21044014724858365,5878.36592300024
1.784,0.14079162258477226,5879.622092290987
1.788,0.10121414364415282,5880.966535715356
1.792,0.08171915465007162,5871.227892555835
1.796,0.07453868593499198,5872.649048077784
1.8,0.07663453926169646,5878.465082015086
1.804,0.08949917152038663,5870.831584559293
1.808,0.11693503789050642,5878.185734686946
