时间(s),电压(V),幅值(高频80K)
0.0,-0.972196523570232,5901.089029843179
0.004,-0.6395208290797016,5909.738861706788
0.008,-0.33308427230157606,5894.815001383932
0.012,-0.07603004471496014,5899.620353410602
0.016,0.11103174692334165,5900.611393443569
0.02,0.212831265821865,5897.990891494386
0.024,0.2232914904928678,5898.116144543332
0.028,0.14940031997158873,5895.891037015679
0.032,0.012895888960862568,5901.239684897442
0.036,-0.15215629594547825,5900.81812626585
0.04,-0.3059362083740099,5905.986567575697
0.044,-0.41172350521842593,5886.707571024369
0.048,-0.44461289842435286,5901.56713876306
0.052,-0.39811191375181776,5899.691010901535
0.056,-0.28689694267521954,5902.462847567422
0.06,-0.1441759146841659,5896.030478520006
0.064,-0.013367529836864777,5888.189705378329
0.068,0.0638168429346752,5896.635216576706
0.072,0.05893117721986898,5903.348126367321
0.076,-0.035852236586521216,5896.250504995642
0.08,-0.20647778415893908,5904.125316666089
0.084,-0.42138523448456683,5903.8253915082
0.088,-0.639698433262564,5897.811923450906
0.092,-0.82096400730219,5894.57466616402
0.096,-0.9341019074725677,5902.323448691917
0.1,-0.9634011152814066,5894.79317127736
0.104,-0.9101932022497933,5901.129450459124
0.108,-0.7903119570005204,5896.84553258365
0.112,-0.6289241547884212,5894.577195320157
0.116,-0.4548481470470236,5895.960047583664
0.12,-0.2958224167200906,5896.384300119613
0.124,-0.1750838210009482,5899.939165664699
0.128,-0.1089019298813171,5895.282571686733
0.132,-0.10468664945775533,5905.560864334751
0.136,-0.15978908746591436,5894.039308699843
0.14,-0.2616142050968033,5895.573395635165
0.144,-0.38959631909192444,5895.278324835418
0.148,-0.518987489146297,5899.661457316424
0.152,-0.6256875324479791,5898.413724119596
0.156,-0.6907867212627724,5905.089816783494
0.16,-0.7034252800312943,5900.448956325839
0.164,-0.6613280538388981,5905.725667108777
0.168,-0.5696101233237729,5904.013520738447
0.172,-0.4391364985986847,5903.993017929002
0.176,-0.28519539269441896,5900.797969081509
0.18,-0.1261030814283437,5906.603609900652
0.184,0.01909125656334692,5908.177755400663
0.188,0.13389301268367845,5893.265809878547
0.192,0.20772869788294773,5904.266188654785
0.196,0.23826408093220075,5905.560257402241
0.2,0.2319505593696685,5893.373981237235
0.204,0.20235758893729022,5902.903652388623
0.208,0.16617141417749576,5903.600421803985
0.212,0.13773628457028056,5906.620980669116
0.216,0.12419331337529546,5904.391301900874
0.22,0.12337873225783762,5903.817389102474
0.224,0.12544345936112378,5894.309744814836
0.228,0.11754058008729616,5901.218954801335
0.232,0.08968207240285976,5898.870326159174
0.236,0.039385526008793345,5892.041402667854
0.24,-0.026774581965779014,5903.063233992095
0.244,-0.09533717024279463,5898.677190111549
0.248,-0.15098652088750023,5897.864109633534
0.252,-0.1823649495356013,5902.730842201816
0.256,-0.1860916461004036,5905.914930546912
0.26,-0.16706968212611778,5898.7850891191065
0.264,-0.13494236583548663,5897.249718517417
0.268,-0.09864730284232123,5901.779407129484
0.272,-0.06212197834254319,5892.669215929228
0.276,-0.023551237259202582,5904.788098286696
0.28,0.02147985617318565,5905.248809666282
0.284,0.07473094354968439,5894.874003810978
0.288,0.13090948926024965,5907.162253167141
0.292,0.17673698184970182,5902.445124656796
0.296,0.19442471199207384,5895.838203027744
0.3,0.168289786646678,5907.306576033314
0.304,0.09154015101759835,5894.773120657066
0.308,-0.02995761681666688,5903.448516238416
0.312,-0.1786449066353053,5895.3431531856
0.316,-0.3304167182137113,5901.409699112696
0.32,-0.4616472077642094,5900.440736286727
0.324,-0.5553351506683207,5898.063675197766
0.328,-0.6043177653756331,5892.015010526808
0.332,-0.6108851486082983,5899.970471009784
0.336,-0.5836135388520007,5897.937200568936
0.34,-0.5331998141112733,5900.671545248419
0.344,-0.46909524978967854,5899.718154931947
0.348,-0.39785640318103815,5906.602227768432
0.352,-0.3229599800929802,5904.426078470562
0.356,-0.2452368268891096,5905.60024575953
0.36,-0.16341103671112092,5899.649573606454
0.364,-0.07492056357187932,5897.961488464094
0.368,0.022504087381213914,5899.583031461542
0.372,0.12839022975856215,5900.285895216724
0.376,0.23693353194900657,5895.448249177414
0.38,0.3357227212353284,5909.9964444738
0.384,0.4071149638718289,5895.720225782432
0.388,0.4325268675018835,5903.322120043762
0.392,0.3984850432540533,5904.895196579116
0.396,0.3022458103458111,5893.14871277438
0.4,0.15465954426012715,5912.826667567792
0.404,-0.021129460946847152,5908.699420121058
0.408,-0.19498877066564807,5900.586568376863
0.412,-0.3374233203279282,5903.318642467507
0.416,-0.4268623127631544,5899.314979347301
0.42,-0.45393678936612347,5902.498130763006
0.424,-0.42140438097658184,5901.476931793191
0.428,-0.3406584124164299,5907.4903048202605
0.432,-0.22744068471096163,5901.463113579343
0.436,-0.09907071239484173,5899.783820996065
0.44,0.026361057083881197,5892.196446548476
0.444,0.1300272416184801,5899.553673075334
0.448,0.1931446603535812,5897.36694020839
0.452,0.19941596210191434,5900.845707626162
0.456,0.1391686015431152,5912.80624685597
0.46,0.014192570983417606,5895.891262953894
0.464,-0.15881695100528026,5911.026247556081
0.468,-0.3487721968813462,5898.686550662532
0.472,-0.5162435074448054,5894.28103247448
0.476,-0.6241895313022754,5904.971602142601
0.48,-0.6496945809205885,5893.454020245511
0.484,-0.5916266653928453,5908.171114136762
0.488,-0.47046160226004385,5897.536649881158
0.492,-0.32018049321173486,5899.223480487909
0.496,-0.17592457874990244,5898.69559106711
0.5,-0.06268883309817984,5909.085601816393
0.504,0.010868927199294401,5895.21861169113
0.508,0.052181451272227564,5900.396881329996
0.512,0.07928529252016338,5900.587084351139
0.516,0.11266285188660313,5902.361332331779
0.52,0.16722350063765096,5907.218654905566
0.524,0.2466722821583239,5901.870579971222
0.528,0.3416084333705017,5908.012654840223
0.532,0.43182388378108466,5895.215358127813
0.536,0.4923624449148936,5895.538092885955
0.54,0.5017162535449587,5906.471652270121
0.544,0.4493867217157828,5906.170847029735
0.548,0.3398414444896511,5902.832529305066
0.552,0.19127970161039962,5901.250889340278
0.556,0.029989682292477754,5901.784544331077
0.56,-0.11704726361846425,5898.297347587262
0.5640000000000001,-0.2283618578647665,5893.696579519409
0.5680000000000001,-0.29128392995629515,5898.804346520051
0.5720000000000001,-0.3023934791238578,5904.320136314935
0.5760000000000001,-0.2665065023985702,5899.1132241716605
0.58,-0.19555308042328026,5898.0803920370645
0.584,-0.1075513474343129,5899.048135656187
0.588,-0.024733236437828987,5893.7398485996655
0.592,0.030114317340851127,5913.212533195267
0.596,0.03877214665929954,5892.331713956659
0.6,-0.0075889161869049475,5899.707108789686
0.604,-0.10596701386934236,5894.732761081644
0.608,-0.24243224621595302,5903.05552130784
0.612,-0.39582600969274484,5892.940873387862
0.616,-0.5429618807182083,5904.023322913327
0.62,-0.6640322386077314,5901.331487366333
0.624,-0.7469285111328008,5894.752754921777
0.628,-0.7891259540277167,5900.053083365803
0.632,-0.7963801770128327,5895.400401047701
0.636,-0.7788582841252012,5902.07282242395
0.64,-0.746487640074864,5893.235465270766
0.644,-0.7053934905102525,5902.742056824498
0.648,-0.6565733269263653,5899.734345090309
0.652,-0.5971086161107869,5899.079352248136
0.656,-0.523440246025058,5903.774022055937
0.66,-0.4354176761380174,5897.757314885996
0.664,-0.339227795624993,5914.353221368587
0.668,-0.24757356830937444,5901.13737906233
0.672,-0.17677315505988164,5904.02085916238
0.676,-0.141909870112869,5900.597101501338
0.68,-0.15177978404405162,5903.946507864903
0.684,-0.2051754352166517,5903.052229400593
0.6880000000000001,-0.28966120160578995,5903.238801563097
0.6920000000000001,-0.383602682837093,5898.614203476914
0.6960000000000001,-0.4614286598769475,5901.759051381877
0.7000000000000001,-0.5008917737631715,5902.283631353891
0.704,-0.4901070951777475,5905.699399139009
0.708,-0.43200870913329303,5896.496380113391
0.712,-0.34455056287886016,5896.777496332906
0.716,-0.25620694097927227,5901.696710169077
0.72,-0.19790813018266265,5907.067317721121
0.724,-0.19394851304212063,5891.027913064876
0.728,-0.2547962100886524,5900.692479778553
0.732,-0.3739209583283331,5898.757964874359
0.736,-0.5293794230558139,5905.348610111511
0.74,-0.6895437592546216,5900.08618062421
0.744,-0.8212494944953423,5906.011070193612
0.748,-0.8980426825802152,5895.21078924547
0.752,-0.906374867941926,5893.02620052452
0.756,-0.8483603116699177,5905.784978146168
0.76,-0.7406699253061593,5904.891576717911
0.764,-0.6100694643229665,5904.159418791017
0.768,-0.48686938149179404,5903.026639523581
0.772,-0.39790013282083475,5898.298738127591
0.776,-0.3605372893154058,5905.855999404134
0.78,-0.3790262749664608,5893.532224773261
0.784,-0.4439743724409223,5901.97617910972
0.788,-0.5352325393032429,5898.764882618323
0.792,-0.6274505214778328,5907.9603187060775
0.796,-0.6966403103567445,5902.693517745669
0.8,-0.7256661268172168,5899.190953736878
0.804,-0.7070712937626763,5908.670762052111
0.808,-0.6428170600506466,5901.679132797594
0.812,-0.5416970896874396,5904.112408641448
0.8160000000000001,-0.41584632539065186,5904.552576214611
0.8200000000000001,-0.27769125610373996,5887.05700195826
0.8240000000000001,-0.13815571208905272,5904.244000302308
0.8280000000000001,-0.0063211557639163704,5900.888835503759
0.8320000000000001,0.10989486187181535,5902.681449227303
0.836,0.20300616811486083,5909.58730835286
0.84,0.2660563309013884,5900.298615690554
0.844,0.29365707749924486,5902.873633161347
0.848,0.2833083514507714,5899.279939993747
0.852,0.23618091126548846,5907.588633943064
0.856,0.15689237181505558,5901.662494004845
0.86,0.05232688115411754,5908.840281796295
0.864,-0.06995875531968992,5905.951195985458
0.868,-0.20293628571155756,5895.263891782676
0.872,-0.34032399997540824,5903.962128212674
0.876,-0.475858222821426,5892.127295978387
0.88,-0.6022485700714456,5896.42838793597
0.884,-0.7106819859815974,5900.937351146576
0.888,-0.7915732059510472,5892.543525365293
0.892,-0.8366485430697979,5906.171139340513
0.896,-0.8415272354141897,5904.358117987105
0.9,-0.8073294239632224,5900.2312076048765
0.904,-0.7401025085903734,5910.490791365993
0.908,-0.6480059630914226,5905.5452225138615
0.912,-0.5375875712550794,5897.260223422347
0.916,-0.4112643021864433,5904.880990694058
0.92,-0.26773299733022615,5896.344195335417
0.924,-0.1055828643647827,5892.366579002298
0.928,0.07141936161298479,5891.640635291292
0.932,0.2500783833979835,5895.527612528949
0.936,0.4071569532261726,5906.062119181601
0.94,0.5136258977837939,5894.105719109517
0.944,0.5428383628006686,5899.644003907788
0.948,0.47962429492504605,5907.614928195188
0.952,0.3265637917896032,5900.077018869844
0.956,0.10489992692511403,5895.744517634366
0.96,-0.15015459162540232,5907.80367100931
0.964,-0.39798137739501527,5904.770685510792
0.968,-0.6021902147519683,5898.102771851143
0.972,-0.7383652418858808,5904.344641300505
0.976,-0.7977797937576999,5898.396677910455
0.98,-0.7865122975778925,5895.578422759553
0.984,-0.720950692084284,5896.259514198436
0.988,-0.6215411557366594,5895.232691653247
0.992,-0.506846885049831,5908.344453052234
0.996,-0.3897698790139541,5901.3826450839015
1.0,-0.2769746714336078,5903.402496243121
1.004,-0.17106694261878888,5902.211064518494
1.008,-0.07378110703909951,5907.088344619863
1.012,0.011605908506944927,5902.885513267136
1.016,0.07941832795849937,5902.959003396127
1.02,0.1222896588606871,5899.50486266749
1.024,0.13329393264017006,5906.298346157523
1.028,0.10903099780118929,5902.087435658083
1.032,0.05244515903125168,5903.590495138987
1.036,-0.026052523710829417,5894.030601870463
1.04,-0.10971698515718982,5899.281869844278
1.044,-0.17833791372080607,5907.005403158331
1.048,-0.21205343948335514,5905.708283866194
1.052,-0.19559400552465425,5895.557721147097
1.056,-0.1223082662514874,5908.92919108193
1.06,0.0032401355250785834,5892.843228261443
1.064,0.16530807725876434,5904.5536810255935
1.068,0.3398856839799412,5891.555355172688
1.072,0.4996410743975396,5895.463506433659
1.076,0.6195919006987523,5909.48444110899
1.08,0.6822529660407461,5903.141764033053
1.084,0.6811247465068647,5904.459401594096
1.088,0.6215365747489946,5886.720460569644
1.092,0.5184561734504158,5900.423804674441
1.096,0.39199035285432565,5897.729211123016
1.1,0.26220969823285434,5900.548904429887
1.104,0.14497023061637893,5890.799582581737
1.108,0.049755517282072434,5905.538492782737
1.112,-0.0202652227937396,5903.046399626373
1.116,-0.06652754968171432,5902.94329167754
1.12,-0.09278830493056198,5895.899662288944
1.124,-0.10335512580954484,5892.152191914697
1.128,-0.10234429575869838,5911.103196967921
1.132,-0.09366758716860793,5893.304378796757
1.136,-0.08102945789634093,5907.111172225565
1.14,-0.06750283495012681,5904.547027536409
1.144,-0.054860990246132744,5902.873001249752
1.148,-0.04324307879695974,5898.0234789849055
1.152,-0.03172261159029528,5900.883757126047
1.156,-0.01990068742740762,5902.437512061736
1.16,-0.009877520379966465,5899.668560744309
1.164,-0.007299041770473169,5889.482499312136
1.168,-0.020108921769244465,5902.484258153265
1.172,-0.05430377002560152,5903.264990317083
1.176,-0.10719747800585963,5901.838871369145
1.18,-0.16007961835026407,5900.684808543863
1.184,-0.1732778485872196,5889.9481777905
1.188,-0.0870519630829703,5903.867235450634
1.192,0.1691132756562556,5896.863445325012
1.196,0.6587870985474883,5904.236343056138
1.2,1.4161329160641927,5896.599179260802
1.204,2.4258228051280355,5898.442513791986
1.208,3.61385785309246,5904.9410851837765
1.212,4.855801842645176,5899.942580480057
1.216,6.002965299090703,5899.773773476992
1.22,6.919150522153121,5892.286285313774
1.224,7.515163420338871,5905.056513109137
1.228,7.768951216116514,5901.67766136968
1.232,7.725386470444075,5904.854118458343
1.236,7.477618224129039,5902.2882338674535
1.24,7.137705866867629,5907.603285283271
1.244,6.806249542896798,5903.983383385471
1.248,6.549484613637587,5892.18620076815
1.252,6.389065476367211,5902.265403792743
1.256,6.305476468843638,5894.983528739455
1.26,6.251865784862,5904.81187393141
1.264,6.172639240373303,5900.9977951846
1.268,6.021067135038449,5900.842282547469
1.272,5.771707562230497,5898.532776682916
1.276,5.425473209376041,5903.688198143429
1.28,5.007190768902689,5894.543934485407
1.284,4.557421682332621,5905.642802958249
1.288,4.121628334134648,5895.723955236309
1.292,3.7399521449176922,5906.256490726497
1.296,3.440054742874355,5906.417005126792
1.3,3.2341161966723297,5895.053599679869
1.304,3.1195261832976215,5893.305924030079
1.308,3.0815973348008896,5894.944423530828
1.312,3.0965386262746812,5890.950543788362
1.316,3.134056174622223,5903.718502556141
1.32,3.1603174357430808,5905.233682415163
1.324,3.14244820354745,5895.894001279285
1.328,3.0548930627203155,5895.6031755159
1.332,2.8863732192205744,5905.617354676292
1.336,2.6448141091549697,5898.333947921072
1.34,2.357589729104917,5898.776321583366
1.344,2.0660777229871545,5901.804964635814
1.348,1.815812504545865,5907.482535167191
1.352,1.645024060813378,5896.75888046904
1.356,1.5746525467835748,5903.167367030642
1.36,1.6025038821572515,5902.014355694485
1.364,1.7032466408425513,5896.905726036665
1.368,1.8343688540068674,5894.92881099359
1.372,1.9464855881794914,5907.4239262399
1.376,1.9953208479447484,5888.775504583587
1.38,1.9525188729792557,5888.026323563676
1.384,1.8127319146911338,5895.888325046172
1.388,1.5949194792910462,5904.223148304731
1.392,1.3369484770291207,5909.154826546636
1.396,1.0847758354992376,5897.900184809148
1.4,0.8797916577758442,5910.482525427666
1.404,0.7486330436793259,5901.653243599483
1.408,0.6984095187274587,5899.656543243218
1.412,0.7179196568836945,5909.75310815575
1.416,0.783502953392012,5907.882586735888
1.42,0.8672459670313983,5892.705655354781
1.424,0.9451775152883987,5907.466764146757
1.428,1.0034429470505137,5901.157917954861
1.432,1.0409843832205148,5897.877080963449
1.436,1.0679955907165315,5899.090785648962
1.44,1.1004652543549365,5883.340250520242
1.444,1.1523790623951384,5890.08264039763
1.448,1.22829700606259,5889.366425475462
1.452,1.3194280124702176,5885.990603387347
1.456,1.4052217520565418,5889.3802570986345
1.46,1.4600106753219166,5880.828863701192
1.464,1.4619236160600195,5889.222345039167
1.468,1.400638300066341,5877.707927537092
1.472,1.2813998375830218,5877.844418071017
1.476,1.1241153206120602,5872.477474295118
1.48,0.9577833099315758,5879.21831741699
1.484,0.8119709939147547,5874.089282271884
1.488,0.7081676157525931,5877.645648534761
1.492,0.6540365244236912,5873.756852235966
1.496,0.6425364781298072,5877.218719964576
1.5,0.6558865004628444,5864.670493864795
1.504,0.6723465854714105,5876.984786838386
1.508,0.6729227801217084,5872.5597067115095
1.512,0.6458136585782047,5859.371363065452
1.516,0.5878697673536498,5861.96846097529
1.52,0.5033902357243573,5862.774239725564
1.524,0.4010907280281856,5868.867324511721
1.528,0.2904990674798803,5864.753782772974
1.532,0.1791854359862345,5867.374064297136
1.536,0.07164443390243566,5856.326117843983
1.54,-0.030326592648735377,5868.158777697495
1.544,-0.12646023116147057,5861.000750210814
1.548,-0.21674471096798423,5865.504931411085
1.552,-0.30051662656014166,5860.5020393309815
1.556,-0.37617501303172174,5863.321381395062
1.56,-0.4414629492503185,5856.642221148998
1.564,-0.4939898162567525,5860.437913450777
1.568,-0.5316858249022254,5853.270957093178
1.572,-0.5531000619821788,5857.522606097853
1.576,-0.5574645320310588,5854.305153824481
1.58,-0.5442629271767944,5852.211698624706
1.584,-0.5122873868366801,5855.115380716084
1.588,-0.45896020727117964,5860.6469164595055
1.592,-0.3810625371689543,5847.751752118929
1.596,-0.2771632318223512,5853.440346475094
1.6,-0.1505606927822153,5863.124331658293
1.604,-0.010715034660098705,5851.293390615218
1.608,0.12827511435009428,5851.879705217685
1.612,0.2518302993756862,5858.668361550473
1.616,0.34955241880592247,5848.174411926133
1.62,0.41779713502860144,5844.353156204447
1.624,0.458927028749097,5853.926553373133
1.628,0.4782155387197703,5840.333504841188
1.632,0.48068889230931955,5848.505078635464
1.636,0.4697254246192053,5840.373693195762
1.64,0.44761547667776946,5839.156466452639
1.644,0.416899506342971,5838.297467688783
1.648,0.38102805183826954,5832.8937268288855
1.652,0.3436627040803123,5844.764257437829
1.656,0.30714781312801454,5848.413734433196
1.66,0.2715498193974386,5846.670800013403
1.664,0.2354206041984561,5835.825034799353
1.668,0.1979921430341533,5844.919684775649
1.672,0.16101515536989938,5839.016292175185
1.676,0.12845801120916553,5831.415900961615
1.68,0.10395912909546648,5834.278086035537
1.684,0.08773898690926464,5827.413115687822
1.688,0.07502974230989749,5847.804723760159
1.692,0.056956346837744865,5843.73504066944
1.696,0.02343076396961876,5840.842441176737
1.7,-0.033122960534601106,5838.86035952869
1.704,-0.11457973572725262,5830.67310057941
1.708,-0.21566302089660028,5838.239110924736
1.712,-0.324834100494637,5830.13747660474
1.716,-0.42724092259202295,5826.861706523352
1.72,-0.5087839736515255,5836.572326024378
1.724,-0.5601291136870608,5828.684478529791
1.728,-0.5795258375514394,5834.818014820165
1.732,-0.5734665677894346,5828.022586517479
1.736,-0.5547170460898119,5827.368801213077
1.74,-0.5381817258025062,5836.060599091107
1.744,-0.5360656895456056,5829.473760631653
1.748,-0.5541567199999092,5829.7780576720215
1.752,-0.5904902539969199,5837.63389545005
1.756,-0.6366030221801287,5823.702265391591
1.76,-0.6807256848581428,5827.352203444277
1.764,-0.7118960453748909,5825.3975095089
1.768,-0.7237660178092548,5833.662066117957
1.772,-0.7166400978872383,5823.587992599878
1.776,-0.6965943731962716,5827.266155314586
1.78,-0.6718397018040438,5826.411344378752
1.784,-0.6480776688774201,5828.422973409152
1.788,-0.6252226372443671,5826.7487989744295
1.792,-0.5971603352895593,5827.663784333003
1.796,-0.5547540589907517,5829.337567368494
1.8,-0.49084221342173806,5830.048099179517
1.804,-0.40502818637541904,5821.898151946908
1.808,-0.3059706461516773,5823.341760035447
1.812,-0.2097773846154181,5827.241294840692
