时间(s),电压(V),幅值(高频80K)
0.0,-0.2957712668708647,5901.332511988049
0.004,-0.1811198788811639,5898.85569405624
0.008,-0.058978981331669116,5897.829243159263
0.012,0.07494963874890133,5893.637646401139
0.016,0.21859573857338285,5899.264575433071
0.02,0.361373911344811,5894.784466317764
0.024,0.4849436943940077,5906.147203824649
0.028,0.5676738590330922,5899.020838240582
0.032,0.5913747153180754,5905.329463241112
0.036,0.5475934396672393,5895.519246246815
0.04,0.4411198767275818,5909.678826870018
0.044,0.28954970948542874,5897.8897766889695
0.048,0.1190496186677277,5900.201890227664
0.052,-0.04234181959020945,5899.645565241944
0.056,-0.17164281049173366,5904.530563656804
0.06,-0.25572463627588293,5902.520902647443
0.064,-0.2925836395406675,5896.165099399923
0.068,-0.28927218752003886,5886.747589900973
0.072,-0.2578800349003934,5900.3392025158255
0.076,-0.2112757607864908,5898.579313747066
0.08,-0.15990543431771387,5899.466481597696
0.084,-0.11025122348921446,5898.708504883971
0.088,-0.06493917051132501,5902.140519344301
0.092,-0.024039927122825794,5901.154768200181
0.096,0.013237121996049142,5899.433797003771
0.1,0.047401858876263595,5908.815409499904
0.104,0.07868902409711163,5906.593508088454
0.108,0.1078978989605005,5906.488786663571
0.112,0.13692228273153922,5898.217159938827
0.116,0.16799624049943973,5894.200469275192
0.12,0.2018148539041687,5905.999758785248
0.124,0.23557333607616887,5893.48201342243
0.128,0.2618202308358277,5895.293020627073
0.132,0.26852624055339114,5901.466241575924
0.136,0.24074191525998198,5895.876824162247
0.14,0.16420855548260724,5899.553734938393
0.144,0.030518735573556145,5899.182379774216
0.148,-0.15781963238401125,5901.186157321942
0.152,-0.3847574378996963,5896.526449728699
0.156,-0.6222389066087006,5900.408052477603
0.16,-0.8357551800606198,5908.128434647894
0.164,-0.9918251089089282,5905.227509135965
0.168,-1.0646819582930487,5894.043355780147
0.172,-1.040370799547047,5909.437308145296
0.176,-0.9179858362910895,5901.457056809292
0.18,-0.7088923705969441,5902.021806245135
0.184,-0.4350280649284497,5909.175588770875
0.188,-0.1268334152869609,5896.210985926785
0.192,0.1794563407227206,5902.560576978001
0.196,0.4458148546037109,5911.708539118708
0.2,0.6379660167303762,5905.174357779373
0.204,0.7316855797850371,5894.662577635065
0.208,0.7180589835466484,5899.433979143275
0.212,0.6056197470523174,5894.175043198965
0.216,0.41827837533545725,5905.35887941499
0.22,0.1897210948037895,5894.129107343462
0.224,-0.0438150404066629,5899.3587219834135
0.228,-0.2505615214362787,5903.929009411647
0.232,-0.4088941638713191,5903.313962422301
0.236,-0.5107642623726625,5898.349637695028
0.24,-0.5618822500075299,5900.156849792516
0.244,-0.5782074927397745,5899.292315184325
0.248,-0.5797412715942364,5901.393996151189
0.252,-0.5839231795454918,5898.595263509368
0.256,-0.6009549995322191,5892.865803899831
0.26,-0.6320549380472117,5890.101020435985
0.264,-0.670138600447277,5893.441418135498
0.268,-0.701972829881002,5894.191549229569
0.272,-0.7113602569547103,5894.689909073381
0.276,-0.6832366137021864,5897.328986121739
0.28,-0.6081048026848208,5903.140341057992
0.284,-0.48551804689694394,5895.305057104185
0.288,-0.32519845477385123,5898.9030273421895
0.292,-0.14516160298304656,5899.794602404322
0.296,0.03254390950169278,5899.399797186839
0.3,0.18699047554821527,5902.2596040283215
0.304,0.3027500898498076,5893.070813119623
0.308,0.37216663782228876,5889.988913104522
0.312,0.39493202303916936,5911.229088879318
0.316,0.37547616461382083,5898.011098914643
0.32,0.31964124664686927,5897.509307676511
0.324,0.23223606121267573,5897.28924676505
0.328,0.11634837880050108,5897.437710190972
0.332,-0.0255563921520085,5900.840268467387
0.336,-0.1892467878158449,5901.958597960835
0.34,-0.3659941645187303,5901.145762744389
0.344,-0.5410563838171275,5907.785765933512
0.348,-0.6951171024051013,5898.96097956195
0.352,-0.8092033816708879,5896.683121982052
0.356,-0.8711987738217559,5899.761880670032
0.36,-0.8804383425738223,5901.216034538814
0.364,-0.8477559278616782,5915.309882814834
0.368,-0.7910943771484195,5903.0657382570935
0.372,-0.7290811205227775,5896.976640453618
0.376,-0.6753866314238187,5898.865852215878
0.38,-0.6355890534038939,5894.594903299398
0.384,-0.6067989634801321,5906.347698398875
0.388,-0.579385714990794,5908.4122996827045
0.392,-0.5401043563325418,5903.408326285855
0.396,-0.47619491557713123,5893.308311627007
0.4,-0.37977584676572596,5895.224658017879
0.404,-0.2511663265205622,5906.250639303867
0.408,-0.09966760395800986,5896.128360477743
0.412,0.058644662412731446,5898.643616174352
0.416,0.20511360480348162,5906.784935037244
0.42,0.3228574800476128,5904.052148020298
0.424,0.3996808319723159,5900.966078942932
0.428,0.4289161290584873,5897.170878000418
0.432,0.40870279487925604,5893.883510378648
0.436,0.3407374534139255,5904.51562736677
0.44,0.22922782826476104,5894.246655767885
0.444,0.0802785630373621,5900.617677917725
0.448,-0.09819132542428056,5890.431609869948
0.452,-0.29591792040106785,5898.978450451761
0.456,-0.49945672797646756,5901.341016834289
0.46,-0.6918490740006825,5896.935420969802
0.464,-0.8535122222372713,5893.041748599551
0.468,-0.9644113622890861,5895.265869691951
0.472,-1.007108428037449,5897.305260491113
0.476,-0.9703053547437323,5900.046891256237
0.48,-0.8523816890378958,5896.200845424169
0.484,-0.6638640242819955,5907.065510896605
0.488,-0.42745494935255585,5900.335336370756
0.492,-0.17484240012234117,5904.407378436754
0.496,0.05930195784588595,5895.543254163254
0.5,0.24463526241104153,5900.2445386850095
0.504,0.3616185491695557,5900.164829862649
0.508,0.40503217584432216,5891.659883604774
0.512,0.38338099027309,5898.006327101635
0.516,0.3147586078921795,5898.178170311778
0.52,0.22131075431715913,5893.552099859249
0.524,0.1247602493221443,5902.230890810094
0.528,0.044158658958943615,5899.7536464944005
0.532,-0.0048697669634344435,5897.09028983308
0.536,-0.010996412855331927,5903.308405895223
0.54,0.030919131158831777,5904.770981592895
0.544,0.11738652873605183,5900.9386703262935
0.548,0.2347634617712882,5898.626081825894
0.552,0.3601463515422517,5896.520522019979
0.556,0.46520407137339115,5900.419435567757
0.56,0.5221624068140321,5902.939450292569
0.5640000000000001,0.5101734275810604,5897.815746392653
0.5680000000000001,0.4200186171152836,5899.073660792828
0.5720000000000001,0.2556897625944587,5892.70406714299
0.5760000000000001,0.032719207597027414,5897.268072228485
0.58,-0.22569434105026076,5899.075340706513
0.584,-0.4933903403743285,5903.118934876975
0.588,-0.7455573489925141,5900.211109940614
0.592,-0.9616380551972479,5890.496201585133
0.596,-1.1264425389269326,5903.767948743876
0.6,-1.2301983284222573,5893.5611658179405
0.604,-1.268957822882291,5895.215389197379
0.608,-1.2461602579605269,5906.627460757677
0.612,-1.1744522115287486,5896.755555172684
0.616,-1.0755056028568566,5893.279659268006
0.62,-0.9759993964691566,5901.557748022434
0.624,-0.9002189431365021,5889.310860446559
0.628,-0.8622298224237405,5900.266688861254
0.632,-0.8613707566324945,5896.424436761848
0.636,-0.8833462432663608,5899.095317768431
0.64,-0.906559026837093,5895.844870327447
0.644,-0.9110347672494774,5899.331903026271
0.648,-0.8862972234782577,5899.096119853823
0.652,-0.835088833343766,5895.693792264394
0.656,-0.7716015442700239,5903.925734696238
0.66,-0.7151161968288264,5898.343673789231
0.664,-0.6817077299023723,5896.069311082118
0.668,-0.6773068155464944,5904.548550299543
0.672,-0.694819140466687,5905.62497443276
0.676,-0.7164887407086412,5902.3567155025385
0.68,-0.7205794798841806,5894.508948507822
0.684,-0.6894100999057108,5908.3548177787625
0.6880000000000001,-0.6151393828942548,5900.0917126419
0.6920000000000001,-0.5012051174904699,5906.4854331595525
0.6960000000000001,-0.3598724772193322,5894.959659126797
0.7000000000000001,-0.20800315988115436,5901.088191541876
0.704,-0.06309850775917362,5898.71158509878
0.708,0.05938738006489833,5900.840789754482
0.712,0.14742583104286894,5895.999560566674
0.716,0.1928788664262262,5906.667977843678
0.72,0.19156825772953218,5907.756689429186
0.724,0.14340489184153069,5897.010215070933
0.728,0.05265700058881329,5890.023457089258
0.732,-0.07206482344238824,5902.207275070576
0.736,-0.2185263695722972,5889.949326047946
0.74,-0.3721462846070116,5898.301720903689
0.744,-0.5173549903173683,5903.338642083076
0.748,-0.6388922507824305,5891.677146674842
0.752,-0.7232836853890867,5903.809090749216
0.756,-0.7605787595879144,5913.36617304613
0.76,-0.7460225003820294,5905.485004696386
0.764,-0.6812567780514904,5892.9795140505
0.768,-0.5748349808729896,5899.477665929684
0.772,-0.44177593315686636,5891.003568127915
0.776,-0.30166415084067866,5896.600552283265
0.78,-0.1750695017747518,5891.480221850484
0.784,-0.07889732073629283,5900.948648104631
0.788,-0.02205920092713619,5911.660057470739
0.792,-0.003106377405800119,5904.388829730931
0.796,-0.011082331779819252,5892.861919434825
0.8,-0.029753867580617165,5891.98448239814
0.804,-0.04387472699111943,5900.482800192597
0.808,-0.045106938969117195,5901.161058443085
0.812,-0.03530548630382361,5906.476382874523
0.8160000000000001,-0.025900014117543068,5897.673011240368
0.8200000000000001,-0.03356981587413783,5899.616912195816
0.8240000000000001,-0.07377795640748183,5906.424986343684
0.8280000000000001,-0.15447388085512317,5906.457682822783
0.8320000000000001,-0.27212885034100964,5911.768706389884
0.836,-0.41146036923687224,5892.847280851684
0.84,-0.549114642355184,5896.4303222813305
0.844,-0.6603738281675261,5909.6751560868925
0.848,-0.7267723731449585,5898.231636660916
0.852,-0.7418529100548247,5893.472042423009
0.856,-0.7128186697990866,5904.849544646224
0.86,-0.657559020076308,5903.163013558877
0.864,-0.5985285112254984,5904.026304393827
0.868,-0.5560273964980408,5899.481439522612
0.872,-0.5429812241236239,5889.795805075937
0.876,-0.5620191094955932,5895.237536773162
0.88,-0.6048242683604731,5905.203334600868
0.884,-0.6538011072289949,5907.548669462421
0.888,-0.686269988081875,5911.798990676922
0.892,-0.6808997272558471,5912.319023307391
0.896,-0.6250076477531759,5902.876764715824
0.9,-0.5204142825637194,5904.917713526328
0.904,-0.3854812563829539,5900.493438820064
0.908,-0.25196993990741307,5892.338242008133
0.912,-0.15707096414967622,5899.786214899402
0.916,-0.13282350395574274,5899.802727336743
0.92,-0.19636278103877194,5903.163953108793
0.924,-0.3441473241530829,5901.762240325375
0.928,-0.5516637524812262,5892.678722238715
0.932,-0.7784193851586158,5900.524203591599
0.936,-0.977158711462047,5906.170392487196
0.94,-1.1055163319660024,5904.288615037917
0.944,-1.1371467119043925,5900.980980660829
0.948,-1.068662073007495,5898.370431983065
0.952,-0.9197272125841435,5907.856678444305
0.956,-0.7262303790807801,5901.938832664857
0.96,-0.5290678772731537,5899.190929198584
0.964,-0.362418887002664,5896.79123573781
0.968,-0.2451685601347958,5900.456001469858
0.972,-0.1777553342272413,5899.691172299453
0.976,-0.14480370363333342,5893.948209240448
0.98,-0.12220315345034194,5902.568256385192
0.984,-0.08624223461458456,5902.6433538431165
0.988,-0.021979980683553987,5906.27065665628
0.992,0.07172847507606285,5906.594238606099
0.996,0.18207488867574018,5900.583964409427
1.0,0.2868847690977331,5904.18297225209
1.004,0.3622578272266992,5904.164383908415
1.008,0.39066350010131545,5914.528822118764
1.012,0.36683660060362794,5898.816311745386
1.016,0.29954861796838606,5896.364493157544
1.02,0.20866119000660208,5900.790652797135
1.024,0.11846248438467409,5891.529520844131
1.028,0.04961042992198828,5898.608454295068
1.032,0.012468833307196612,5898.656073736293
1.036,0.0040409123018021595,5901.030455049852
1.04,0.009543997764229784,5900.211983792201
1.044,0.00836055171797944,5895.199280472157
1.048,-0.017411557448897316,5898.48625269085
1.052,-0.07497695834981104,5894.164374070305
1.056,-0.15682768185390422,5898.14606425644
1.06,-0.24267903893803833,5903.995208165518
1.064,-0.3069447237097356,5910.819468404569
1.068,-0.3289683827193401,5894.291965044833
1.072,-0.3017709007617158,5900.819157254729
1.076,-0.2353775965884709,5901.503471979684
1.08,-0.15315211097066622,5899.368526197056
1.084,-0.08294254193953034,5897.7973675168405
1.088,-0.04722402410265806,5905.645126621575
1.092,-0.05642423918415658,5894.989633988371
1.096,-0.10756019129531362,5900.618773671352
1.1,-0.18760515369008052,5901.726111367619
1.104,-0.27908561250757574,5904.73893219272
1.108,-0.3651574006771566,5898.765370599586
1.112,-0.4326453523818524,5905.553084682825
1.116,-0.4730744003891947,5899.644820667564
1.12,-0.4825251597471184,5902.917834861368
1.124,-0.46110449015443683,5894.27581349927
1.128,-0.412361353517087,5898.681617697229
1.132,-0.3425259372984226,5901.12763267992
1.136,-0.25930055291046145,5903.239367770028
1.14,-0.1701650994789317,5901.303603996101
1.144,-0.08063377465370092,5903.7038880064965
1.148,0.006736324556251482,5902.298632007172
1.152,0.09201824620894483,5902.306251689482
1.156,0.17654003057780668,5898.412889893549
1.16,0.2612532340728907,5895.635712336165
1.164,0.34515340302641323,5903.351494927543
1.168,0.42341568283056386,5901.957079201863
1.172,0.48541792471484035,5904.1394445372125
1.176,0.514178889975584,5890.634104262099
1.18,0.4891847512544154,5895.883143980995
1.184,0.3932014507653424,5895.418236896876
1.188,0.22156643733273468,5909.792719465033
1.192,-0.008826824255059446,5901.907993549157
1.196,-0.25389766047072565,5896.522829518548
1.2,-0.4429440783761648,5907.530408288104
1.204,-0.4874467510162621,5897.402935856196
1.208,-0.2982405672935296,5906.701578271071
1.212,0.19164538346192325,5907.282446369127
1.216,1.004065730436826,5900.458966261794
1.22,2.1002381111654467,5898.2434789294
1.224,3.3798180577428565,5900.728424902261
1.228,4.698136234201886,5900.651226940308
1.232,5.898320270463935,5906.37346238877
1.236,6.847949490992208,5896.544705529788
1.24,7.4673551420920985,5894.778115278818
1.244,7.740803261611849,5905.705227973865
1.248,7.709632990766538,5903.003706992554
1.252,7.452973412824128,5891.001451577126
1.256,7.064152221054021,5896.592586659646
1.26,6.6297953287062565,5897.231153694569
1.264,6.215840948382403,5901.533830434167
1.268,5.861726350010151,5902.217540681546
1.272,5.5814784200690015,5901.452104425615
1.276,5.368966095149532,5906.449278160009
1.28,5.204718677111248,5903.556469382457
1.284,5.062958511259915,5899.434969696303
1.288,4.918420515237259,5888.4781612173
1.292,4.7524448130416905,5907.712890853655
1.296,4.557369181242587,5906.5507669333465
1.3,4.338201039551569,5906.36289917394
1.304,4.110982005662053,5893.835471645939
1.308,3.8980015941222512,5896.773632860634
1.312,3.7210538049916004,5896.688629819706
1.316,3.5949170339342325,5906.679124306228
1.32,3.5233757691013916,5898.16650198008
1.324,3.4989864228189624,5901.013452090194
1.328,3.506084001597842,5897.7263379176175
1.332,3.525433001332068,5899.201367990688
1.336,3.5389391453485572,5904.98084119568
1.34,3.5333792635377645,5908.9401720103
1.344,3.502477229229006,5901.608539813352
1.348,3.4468148020637703,5899.794241231349
1.352,3.3714105731630433,5907.382908341196
1.356,3.2815987510949847,5896.182018160087
1.36,3.1788220738052604,5901.643278384363
1.364,3.058349960821456,5890.84386380459
1.368,2.9102275428589253,5900.953484467698
1.372,2.723315867551856,5899.324036168172
1.376,2.4908973567305437,5903.208733192834
1.38,2.2154935031069423,5897.343609303735
1.384,1.9106149905208565,5896.678840436459
1.388,1.5984951590370828,5897.217938852299
1.392,1.3049999904383254,5901.860826444542
1.396,1.0542841581640712,5903.007866963765
1.4,0.8652143557836525,5896.717865460083
1.404,0.7498837036017083,5897.606513739426
1.408,0.7134461355369754,5894.605336794127
1.412,0.754554138032946,5891.1350190067415
1.416,0.866014956011504,5892.695894960474
1.42,1.0353203425630382,5901.20365845639
1.424,1.2448400837410087,5898.450509467087
1.428,1.4719413000017478,5904.42494557452
1.432,1.6896934668742831,5900.3910473406695
1.436,1.8688460481495452,5896.24804527254
1.44,1.981513115284604,5894.290368646866
1.444,2.0064219445884963,5889.941070412578
1.448,1.934594024530559,5901.6412652041445
1.452,1.7734356687050403,5895.172109814815
1.456,1.5472564951953378,5883.21625411576
1.46,1.293366711916901,5891.939529806975
1.464,1.0544433349550535,5892.96038465742
1.468,0.8690644384985156,5894.71966610345
1.472,0.7628855858385144,5894.5299429261
1.476,0.7428228369924312,5891.243905399539
1.48,0.7958347721857405,5888.730387338635
1.484,0.8926195127853802,5885.035466239644
1.488,0.9951329540837717,5885.363662006772
1.492,1.065846052962957,5886.044123179744
1.496,1.076465575848208,5882.879678245117
1.5,1.0141925123085704,5879.246718175684
1.504,0.8840616875488574,5880.384782475424
1.508,0.7067211792921018,5877.620410965177
1.512,0.5124971661898527,5881.226932571176
1.516,0.3340643494037931,5888.146350236353
1.52,0.20031092065692133,5874.530886842465
1.524,0.13275927175634253,5877.037462286341
1.528,0.144123865899285,5876.822593675762
1.532,0.23758754111929478,5873.835337993465
1.536,0.40574442912620995,5869.428875329085
1.54,0.6293184278856161,5884.43537908228
1.544,0.8767963286022692,5881.982898986124
1.548,1.106533790289214,5882.307587470101
1.552,1.2724356567392023,5880.0800642380345
1.556,1.3328950292569175,5870.918085245669
1.56,1.2609622079391911,5865.989815490104
1.564,1.0527498504585047,5877.0289102896695
1.568,0.7312290452930806,5870.702380923319
1.572,0.3435733206794805,5873.910460635418
1.576,-0.04808511303904843,5874.828684624414
1.58,-0.3804281108353533,5880.687663060866
1.584,-0.6033807514946212,5870.144942427729
1.588,-0.6909700701815288,5864.990033429475
1.592,-0.6457314303581745,5868.14043181779
1.596,-0.496045319241617,5863.121895474815
1.6,-0.2878841786316329,5868.0321225688285
1.604,-0.07359824455015115,5864.228813068395
1.608,0.09956498914705583,5871.63058081255
1.612,0.1990302082661174,5869.177928207843
1.616,0.21291479345875425,5862.195209668062
1.62,0.15135772988795634,5873.750517642623
1.624,0.04276394406072157,5863.815394450395
1.628,-0.07431942417383058,5867.293481379272
1.632,-0.1618646771488267,5869.817361982515
1.636,-0.1930193180696742,5857.308583958862
1.64,-0.15994827902150777,5860.127361490944
1.644,-0.07630187255711375,5855.756317679327
1.648,0.02707398133946423,5856.55405786932
1.652,0.11230756925349517,5858.418582824108
1.656,0.14718086824578758,5858.142465189492
1.66,0.1156781912962375,5867.026255506662
1.664,0.022590678715048988,5863.6897349876335
1.668,-0.10914953620198814,5864.327035001592
1.672,-0.24696227607625396,5852.940797215111
1.676,-0.35963192876021666,5864.883204754755
1.68,-0.4269458744198708,5872.360798482907
1.684,-0.4447723991269574,5865.884002513755
1.688,-0.4243023320938366,5866.418274395139
1.692,-0.3865287381592323,5862.616451318983
1.696,-0.3545535687518749,5860.168757772702
1.7,-0.346425546171655,5858.178282532499
1.704,-0.37044629870973045,5844.268769579358
1.708,-0.42390560686715895,5856.234733629621
1.712,-0.49526233618986837,5857.881535501933
1.716,-0.5689112001443167,5854.211369461566
1.72,-0.6309367143836565,5859.043770636134
1.724,-0.6738381304589044,5865.165331906568
1.728,-0.6984550080640212,5852.051380857606
1.732,-0.7124351778467354,5856.603245154867
1.736,-0.7261205003187007,5859.826343865927
1.74,-0.7477685756872877,5844.135309462078
1.744,-0.7801048913866129,5853.152603225527
1.748,-0.8195135722302928,5856.198300181893
1.752,-0.857966651748818,5846.061604198108
1.756,-0.8863643905385963,5857.624156678788
1.76,-0.8972469159437998,5855.852392123791
1.764,-0.8856433579846762,5861.524917087552
1.768,-0.8484314782753449,5854.66211710467
1.772,-0.783416237648955,5848.810760582696
1.776,-0.688982207991777,5848.895621587201
1.78,-0.5645362391958081,5862.556135876347
1.784,-0.41166601676943,5847.721674829273
1.788,-0.2357312495428835,5841.280022868788
1.792,-0.04720278975345192,5848.074760714081
1.796,0.13816190219358718,5851.104750528464
1.8,0.3008057757405578,5856.352881816924
1.804,0.42021961292025206,5848.965429717567
1.808,0.47842515851764233,5844.666339481334
1.812,0.4635576666110803,5852.162032759859
