时间(s),电压(V),幅值(高频80K)
0.0,0.3104461744729663,5906.685025139497
0.004,0.0305535984957181,5897.747723022208
0.008,-0.21882799164368208,5901.162514217524
0.012,-0.4109345481509919,5901.179623009728
0.016,-0.527273923059025,5899.376587961053
0.02,-0.5608698139724244,5898.481905275078
0.024,-0.5174740517698316,5893.921245989797
0.028,-0.4142786320114817,5899.6770137684725
0.032,-0.27659655630837277,5899.223576769187
0.036,-0.13353200518872874,5897.808517115233
0.04,-0.01340612864032257,5898.784075186233
0.044,0.060799363453003685,5902.627910045528
0.048,0.07560241746796302,5907.11134104749
0.052,0.029697313080171803,5896.593783049173
0.056,-0.06617148980092676,5905.085145319757
0.06,-0.1924691555733051,5903.65921419631
0.064,-0.3260840702548114,5903.281652754184
0.068,-0.44557239109104013,5893.401781249094
0.072,-0.5348863277218375,5904.64377774983
0.076,-0.584944280442634,5906.120544652573
0.08,-0.5932664874076042,5896.734322527686
0.084,-0.5624754698049443,5905.544294007619
0.088,-0.4986306842200787,5904.637864748479
0.092,-0.4100952487024995,5898.0461447810185
0.096,-0.30701247469758297,5902.3784853078905
0.1,-0.20086927699996507,5892.0586514555935
0.104,-0.10356515460782574,5899.29323687271
0.108,-0.02595418308614259,5898.354093472223
0.112,0.023636238515684492,5904.415553460702
0.116,0.040482539458523405,5895.838736862875
0.12,0.02422183849953578,5898.382863275769
0.124,-0.020462721718248734,5904.206439335514
0.128,-0.08353438504847678,5899.987099187985
0.132,-0.1505627681240176,5909.527222513844
0.136,-0.20546884583995584,5905.139391270708
0.14,-0.2343538614445483,5890.394439755652
0.144,-0.22884396142407304,5897.44702227549
0.148,-0.1876896597123388,5892.810375956735
0.152,-0.1164140466651039,5895.315460948565
0.156,-0.0255629935228588,5897.384369684857
0.16,0.07189601793415823,5892.745623543583
0.164,0.16368424144407942,5897.858787790016
0.168,0.24119545879757173,5907.440298160965
0.172,0.3012798239369515,5909.072034798017
0.176,0.346056545981919,5898.518880843342
0.18,0.3809498065883647,5901.694950079256
0.184,0.4118495575188814,5897.22377974791
0.188,0.44237670585237077,5900.309898983463
0.192,0.47208064893964347,5895.768231151091
0.196,0.4962393768449749,5899.286829348475
0.2,0.5075138593303345,5898.691923664091
0.204,0.4988859240137079,5896.174439635973
0.208,0.4664869707865392,5896.93161503199
0.212,0.41078087871588825,5896.141183301716
0.216,0.335392359724902,5905.792121733022
0.22,0.24425323164911225,5897.67708551272
0.224,0.1387854476059948,5896.259334217537
0.228,0.016833346666025532,5902.967504878568
0.232,-0.12591245450697972,5898.852153410104
0.236,-0.2924410057984855,5896.764959938019
0.24,-0.480168488774605,5891.827582639891
0.244,-0.6775896262599889,5904.5636388143375
0.248,-0.8635105006130546,5904.133307004543
0.252,-1.0099348525129725,5893.591144080252
0.256,-1.0883926445603513,5911.162576024316
0.26,-1.0779889371636329,5898.955186725001
0.264,-0.9725667860610969,5904.092298866744
0.268,-0.7846041120613179,5900.342673393867
0.272,-0.5444493671171098,5892.677974878655
0.276,-0.29462542465932584,5903.757702271298
0.28,-0.08010030042600105,5895.162492870753
0.284,0.06315306361780496,5911.2930532923065
0.288,0.11771011430227428,5898.969512444468
0.292,0.08874306286279249,5893.076086942891
0.296,0.0008194747845879666,5898.194801784312
0.3,-0.1113316553764443,5893.948115589887
0.304,-0.2144894361932684,5902.490384567913
0.308,-0.2867830865102318,5901.828464299108
0.312,-0.32250468831520634,5894.973063044515
0.316,-0.3308254961125113,5902.287108502399
0.32,-0.32966876946288753,5901.040720957242
0.324,-0.33758762890840366,5901.985597023645
0.328,-0.3668214260231283,5906.827867056379
0.332,-0.4197977099573801,5897.2214558328415
0.336,-0.4896390468760671,5898.79625727861
0.34,-0.5634581310423579,5905.558172868026
0.344,-0.6263276754218878,5898.947250238446
0.348,-0.6642730772753073,5906.13306426474
0.352,-0.6659089977860123,5895.767503900214
0.356,-0.623410417000953,5903.615280803308
0.36,-0.5337568403186417,5898.345582365161
0.364,-0.4005383404775011,5899.793516184515
0.368,-0.2355030509813513,5902.570449418535
0.372,-0.05839931914502082,5900.450387757478
0.376,0.10580323905510021,5902.011905029601
0.38,0.23195581080499664,5900.867610231384
0.384,0.3006603631379179,5908.84925084283
0.388,0.30339243683603895,5893.689984916194
0.392,0.24525442580338985,5902.066063126961
0.396,0.1442508863527614,5898.559267688258
0.4,0.026944911410867592,5898.180478140168
0.404,-0.07835812158042303,5896.278164907949
0.408,-0.14888467708008254,5899.151429812009
0.412,-0.1730959057709515,5902.138226732506
0.416,-0.15339324873065185,5896.951001581844
0.42,-0.10525370875278495,5893.816885988916
0.424,-0.053112384531581285,5899.855332235514
0.428,-0.02402949831588421,5899.125717160691
0.432,-0.04061744837560925,5898.731651399384
0.436,-0.11496187298685744,5893.8828269352425
0.44,-0.24527611717217826,5896.488951388833
0.444,-0.4163659004888511,5906.785011567739
0.448,-0.6036384167169688,5890.325447022088
0.452,-0.7791913753123194,5898.817882750822
0.456,-0.9181958325632046,5897.443553248546
0.46,-1.0041505282396312,5906.951659414892
0.464,-1.0320545999261121,5897.729049521155
0.468,-1.0089181047934916,5893.523544907125
0.472,-0.951445903590118,5904.940416595498
0.476,-0.8813421178047084,5901.207715642045
0.48,-0.8194201634976757,5899.311801821088
0.484,-0.7801959356541868,5888.749851241249
0.488,-0.7685027765339598,5911.701898031787
0.492,-0.7788772784432034,5899.582422424711
0.496,-0.7974534052617609,5900.503342390748
0.5,-0.8055030784970564,5887.054390702396
0.504,-0.7838446927363131,5900.600299793766
0.508,-0.7176474312736957,5901.187296457698
0.512,-0.6010264818399458,5904.219284319024
0.516,-0.44022241693661224,5902.334614042393
0.52,-0.25379500882793465,5908.389511957858
0.524,-0.06887845335809334,5901.431611901695
0.528,0.08588928514357046,5898.334736706323
0.532,0.18848843457140294,5901.068702477354
0.536,0.22964722580161823,5902.883094980652
0.54,0.2145771331447062,5899.16081458482
0.544,0.15975259967440997,5913.939402430731
0.548,0.08630187953281575,5902.870845319889
0.552,0.012858794211669331,5902.648968107268
0.556,-0.04943528856090326,5896.476276885172
0.56,-0.09839385845189176,5899.377859435813
0.5640000000000001,-0.13887339163604961,5899.865607550654
0.5680000000000001,-0.1786971208789178,5894.163411668033
0.5720000000000001,-0.22410511379805992,5899.861116612116
0.5760000000000001,-0.2765146524359601,5900.049384062629
0.58,-0.3318868552256174,5897.69156791991
0.584,-0.3827782828658184,5898.448765747781
0.588,-0.4218231424378335,5900.476977835123
0.592,-0.44484872527958075,5900.675647809041
0.596,-0.45231252346948986,5893.096069099845
0.6,-0.44879714727849945,5901.987740801558
0.604,-0.4412478712042316,5899.905370143997
0.608,-0.43694074590100435,5899.342528980216
0.612,-0.44176395136226754,5900.548973497611
0.616,-0.4588764719314549,5900.419326634895
0.62,-0.4877622273768587,5894.271132754598
0.624,-0.5239981222745664,5904.269757395165
0.628,-0.5601500967815184,5895.343159403999
0.632,-0.5878465637669189,5898.202846353704
0.636,-0.6004928132459864,5895.8387168199415
0.64,-0.595691594480757,5902.261797614485
0.644,-0.5764716944511081,5901.949287612363
0.648,-0.5508778611947114,5900.8545698691005
0.652,-0.5300670361501185,5904.644181518086
0.656,-0.5254265597918862,5903.195105821139
0.66,-0.5452766967112574,5900.673625952555
0.664,-0.591752356192576,5907.315083143153
0.668,-0.6587904395452604,5906.142338953875
0.672,-0.7324283724867944,5900.6938091010325
0.676,-0.793984136899699,5891.8832249917
0.68,-0.8250700116901927,5902.872004454585
0.684,-0.8121808459875195,5902.465679564729
0.6880000000000001,-0.7491265321759842,5912.466028045948
0.6920000000000001,-0.6372897262903446,5896.75480280138
0.6960000000000001,-0.4848041384014288,5897.561755515029
0.7000000000000001,-0.30548992327940955,5904.522233417907
0.704,-0.11754549200085412,5908.73495683734
0.708,0.05842448813991248,5895.455807998345
0.712,0.20224311092040176,5910.443503598498
0.716,0.29752151612623456,5891.899820752428
0.72,0.3347626980006428,5900.4721693012025
0.724,0.3132785212303731,5899.349309352588
0.728,0.24118960050275956,5902.560737766338
0.732,0.1333499751088334,5902.247541930004
0.736,0.007837370562809597,5897.84027875977
0.74,-0.11779097274080884,5905.713706816793
0.744,-0.2293655033069451,5903.214953807894
0.748,-0.3176034278888757,5896.733502766415
0.752,-0.37834701604826976,5902.744317599236
0.756,-0.41181528881397017,5889.682418875858
0.76,-0.42106495579881553,5901.771874022351
0.764,-0.40999840823127404,5900.041841587548
0.768,-0.3816414277355549,5909.268586589179
0.772,-0.33752917754765493,5902.981088103161
0.776,-0.2784949878946605,5902.335977516901
0.78,-0.206259777053754,5903.674794247073
0.784,-0.12473899869488966,5903.320578849418
0.788,-0.040266862575396946,5910.723099814845
0.792,0.03941297782811069,5891.838423884087
0.796,0.10695185872519627,5907.581776763431
0.8,0.1571096501466656,5895.867222663042
0.804,0.18745948713764002,5896.68966568677
0.808,0.19786731986436676,5899.282394006058
0.812,0.18945107027009803,5905.589538930747
0.8160000000000001,0.16392769433545806,5899.413861011014
0.8200000000000001,0.12365398204546045,5898.50162973086
0.8240000000000001,0.0720091647683072,5896.399419565027
0.8280000000000001,0.013606558401229478,5897.367140478128
0.8320000000000001,-0.04592430428204251,5906.172404221276
0.836,-0.10051544361652119,5893.823205321125
0.84,-0.1443551742949743,5903.254253484831
0.844,-0.17251979232522063,5900.289520251852
0.848,-0.18156705450241756,5907.63296134402
0.852,-0.1701479866623268,5899.9238652034255
0.856,-0.13939307562761535,5894.562632258891
0.86,-0.09263617529646574,5896.044005970084
0.864,-0.034472882141941955,5900.537813232621
0.868,0.030182006688601156,5895.248107793042
0.872,0.09640673769671511,5903.308802288419
0.876,0.15909616667634227,5897.514508674409
0.88,0.212970662351823,5909.892432592517
0.884,0.25314556199484706,5901.167095857052
0.888,0.2759450115474301,5902.048978349189
0.892,0.27927959144031844,5904.312749485487
0.896,0.26216638177704704,5896.640073914363
0.9,0.22366517446238987,5906.555495488315
0.904,0.16213679091452723,5891.531009517604
0.908,0.07572533278317027,5899.061591161247
0.912,-0.035892941647012504,5897.1370327887325
0.916,-0.16955503266889624,5903.528807333149
0.92,-0.31775095397895325,5901.630697705927
0.924,-0.4692015524967349,5898.200978692687
0.928,-0.610120087577245,5897.142099802736
0.932,-0.7254373720583112,5893.056757884531
0.936,-0.8003022754193966,5901.817389292276
0.94,-0.8227459264035946,5904.820777652626
0.944,-0.7876071594931333,5901.250110617225
0.948,-0.7003724946311879,5902.8781568167815
0.952,-0.5787919999012259,5899.822945766265
0.956,-0.4505972503657875,5894.088131422084
0.96,-0.3471784954306483,5892.466187200046
0.964,-0.2949673922126407,5899.037126316157
0.968,-0.3074977493352893,5904.2653045896095
0.972,-0.3809789806504168,5910.961532426673
0.976,-0.49491223052084904,5894.665693280003
0.98,-0.6175785989030361,5901.631537333305
0.984,-0.7147537780404786,5901.756089499654
0.988,-0.7590418429408317,5898.370575241146
0.992,-0.7370043895407664,5893.709088265979
0.996,-0.6519952411064136,5900.97033289308
1.0,-0.5221218893666221,5899.503453432612
1.004,-0.3743670040557709,5901.125885873764
1.008,-0.23689994589176858,5899.20054904393
1.012,-0.1317748545072146,5897.605096187467
1.016,-0.06984682524597212,5904.634042943679
1.02,-0.04916647340267203,5895.7683215521865
1.024,-0.05730313528202783,5891.624911847895
1.028,-0.07685190132927258,5904.331427738471
1.032,-0.09210333319241028,5905.738435734604
1.036,-0.09426233027603387,5898.065125633646
1.04,-0.08325907240184441,5899.279329636805
1.044,-0.06583537125684456,5901.984121433589
1.048,-0.051197327423906314,5900.043200836082
1.052,-0.0462405828422302,5895.036252700705
1.056,-0.05220641169956094,5899.210411532392
1.06,-0.06402405454953573,5892.945049808983
1.064,-0.07258774887749934,5900.564047466938
1.068,-0.06891446028219017,5905.4737649904655
1.072,-0.04822125940629164,5901.609416154224
1.076,-0.012107892700926584,5913.0860314721895
1.08,0.031883819497697544,5903.147450111521
1.084,0.07277277969121383,5900.231084948592
1.088,0.09941402329147013,5904.209021048206
1.092,0.10337428422816707,5898.276000679269
1.096,0.08084635020006813,5894.049349458234
1.1,0.033524296677299156,5902.025817656755
1.104,-0.03155910862310164,5902.383160489305
1.108,-0.10329964970042928,5902.650348163441
1.112,-0.16886957331771354,5897.433380874939
1.116,-0.21684280032557393,5898.330108479101
1.12,-0.2403431972763002,5893.712706328668
1.124,-0.2390075975269043,5899.035766654445
1.128,-0.2186774700380582,5901.759571764105
1.132,-0.18875355180625025,5904.239379507751
1.136,-0.15840730041400197,5898.446925785706
1.14,-0.13332785472238926,5897.879983180599
1.144,-0.11413342682082395,5905.009709547445
1.148,-0.09661387156266646,5897.516927177795
1.152,-0.07334461319543777,5893.00851176089
1.156,-0.036102955606135405,5903.447143548176
1.16,0.02139995501894929,5899.689238352457
1.164,0.10093648157656582,5903.374196654304
1.168,0.19782379580968376,5898.200068458916
1.172,0.30020538871405883,5899.324249393658
1.176,0.39018201090286414,5896.966508665957
1.18,0.44709771316003366,5906.76140598981
1.184,0.4524873992130188,5896.915563095268
1.188,0.3953907388314433,5904.0645256019225
1.192,0.2763419856322973,5900.255143784046
1.196,0.10845110964071397,5896.086632617465
1.2,-0.08518540735207186,5900.116394277203
1.204,-0.2770132394665627,5896.974363911869
1.208,-0.4414925077519458,5894.800408729909
1.212,-0.5603797630291947,5899.561792956102
1.216,-0.6255109596448818,5903.8618592219855
1.22,-0.6387917577033622,5896.655427980752
1.224,-0.6098860595087002,5899.488773977437
1.228,-0.5526255018667449,5899.648588296202
1.232,-0.48137785670349986,5889.367971286511
1.236,-0.4083548468054456,5894.626480082807
1.24,-0.34221296179347616,5901.378861275996
1.244,-0.28778367742285804,5899.906248402917
1.248,-0.2466748521335486,5905.835440059287
1.252,-0.21852249643510227,5908.940137554779
1.256,-0.20248642571659023,5904.303494703871
1.26,-0.1983954759159554,5895.898251777403
1.264,-0.20711653496907045,5894.398379161658
1.268,-0.23007052287671836,5905.586970020101
1.272,-0.26802546733401134,5903.536558027058
1.276,-0.31948951901851075,5899.309779803199
1.28,-0.379368420372051,5902.073864389723
1.284,-0.4387538129898646,5898.533733146948
1.288,-0.4864177098613057,5895.188013399307
1.292,-0.5118269043108198,5897.208616002187
1.296,-0.5086128641291479,5902.519373073159
1.3,-0.47695762415765924,5889.29534716208
1.304,-0.42371031819250976,5901.5862368110165
1.308,-0.36017986699390747,5894.985341584107
1.312,-0.2987464333580586,5906.512560398044
1.316,-0.24977640892109843,5895.933630795301
1.32,-0.21966174220938925,5904.4651336820725
1.324,-0.21000169993395834,5896.97776075863
1.328,-0.2177446100034659,5898.893735714631
1.332,-0.23627793533565675,5897.937925679405
1.336,-0.2574350527752747,5906.971404293207
1.34,-0.2740355384258968,5901.681696090018
1.344,-0.2821288767135919,5898.026749278942
1.348,-0.28199842493918126,5889.364145127985
1.352,-0.2774969962002705,5897.735197901516
1.356,-0.27411374624099466,5905.45718972323
1.36,-0.2766725643540517,5905.932587720399
1.364,-0.2875094835821965,5895.900009739131
1.368,-0.30560399488846457,5899.639945296337
1.372,-0.32670899285643473,5898.345232809264
1.376,-0.3442330421172666,5906.142152514162
1.38,-0.35063645600781873,5900.632099987758
1.384,-0.3392900333858845,5893.6848267891455
1.388,-0.3066996338657357,5908.222608852114
1.392,-0.2545715176201113,5903.953915021535
1.396,-0.1907766577246672,5903.927632902006
1.4,-0.12834593130640148,5896.149140067223
1.404,-0.08232601534590016,5900.634444711009
1.408,-0.0653726446304251,5902.849709228576
1.412,-0.08375773432108231,5894.621519895003
1.416,-0.13544652391716866,5899.030418180483
1.42,-0.2109330696079739,5893.730786450181
1.424,-0.2961287766870113,5897.762147768827
1.428,-0.37577901633345223,5905.632426458185
1.432,-0.43623901486871247,5905.491192631725
1.436,-0.4673762953865918,5907.527863623737
1.44,-0.4638312612860169,5900.982003554765
1.444,-0.4256918220880713,5904.910778578263
1.448,-0.3583938634199663,5907.404421153032
1.452,-0.2716863661507117,5896.72363940462
1.456,-0.17779220297505352,5895.864515164924
1.46,-0.08931840060262107,5904.653349930883
1.464,-0.017606704854168355,5894.901317172105
1.468,0.02826459766100999,5897.522071999715
1.472,0.042269695779477416,5914.341982764492
1.476,0.02252443311510307,5903.411903040799
1.48,-0.027394694761063657,5898.015145175344
1.484,-0.09768508530810895,5900.181353953416
1.488,-0.17326593072433996,5902.402235871575
1.492,-0.23718383286440506,5902.427711642292
1.496,-0.27583159445770983,5902.563594691846
1.5,-0.2838313628338948,5898.676355851818
1.504,-0.26621330827502315,5897.6029199577615
1.508,-0.2368888003983732,5894.098835112838
1.512,-0.21420552390706482,5896.593182934155
1.516,-0.2152981283369139,5909.577706968332
1.52,-0.25083302801334073,5897.124022186126
1.524,-0.3213363387766765,5901.613423860612
1.528,-0.41608597362346106,5895.595442548203
1.532,-0.5151923498416429,5902.456583258518
1.536,-0.5945946958090318,5893.22255679872
1.54,-0.6326028418108076,5906.3467340421685
1.544,-0.6159425450144671,5903.330241628153
1.548,-0.5433152368125509,5891.28048320466
1.552,-0.42531273403198394,5900.547834288044
1.556,-0.28095252840563745,5900.4302705646105
1.56,-0.13247407052348023,5899.87910658813
1.564,-0.0005568582746537917,5907.446357532524
1.568,0.09851858817426079,5893.496295014511
1.572,0.15363535236474185,5897.653110150084
1.576,0.1586046213035957,5907.742317429859
1.58,0.11211598918803949,5889.167049373721
1.584,0.018088458961455393,5897.84735418131
1.588,-0.11436069658176692,5892.890638461109
1.592,-0.2722291084766982,5896.377079786466
1.596,-0.44141257234801495,5899.348224147185
1.6,-0.6100815639282072,5899.8756210559295
1.604,-0.7708551511590783,5903.300946115597
1.608,-0.9199330142775592,5893.034023059374
1.612,-1.0526249646535608,5898.549261163013
1.616,-1.1566714769084427,5896.730955557813
1.62,-1.20615739844941,5900.477591382382
1.624,-1.159078652130081,5903.235280105361
1.628,-0.9608865435945023,5904.5569488165
1.632,-0.5548542313887249,5897.108775342905
1.636,0.10201893304441285,5896.762165430826
1.64,1.0213179880005931,5899.301351772798
1.644,2.169532067442263,5904.884962318586
1.648,3.4647038166289215,5894.282178542961
1.652,4.787552759756844,5898.197248122545
1.656,6.005888586122365,5900.737151197546
1.66,7.0046595555111155,5898.931451618318
1.664,7.710673725955339,5890.7439815193
1.668,8.103615554595201,5901.962925806723
1.672,8.211539216112014,5905.267592679193
1.676,8.095119239296027,5901.06790514226
1.68,7.827754353397416,5891.074788429794
1.684,7.4781155331962825,5902.597008579926
1.688,7.099222598473458,5896.01114139916
1.692,6.725024383336577,5902.61425328823
1.696,6.372889271853881,5897.869045799406
1.7,6.049102161790051,5902.101144792569
1.704,5.75449834684792,5902.407308859034
1.708,5.488317490160861,5893.1267762021225
1.712,5.249630426174357,5903.185650971066
1.716,5.036804416917504,5899.738331622794
1.72,4.846162334307964,5894.842526113131
1.724,4.671086124603699,5896.934574383201
1.728,4.502328215318204,5907.705682782816
1.732,4.3295757808202975,5894.900371839282
1.736,4.1437529107942135,5893.581207932609
1.74,3.9392929275871897,5909.945405034109
1.744,3.7157230274308946,5896.541055817632
1.748,3.4783073895219543,5907.168813626553
1.752,3.2378116884332466,5900.5104612488285
1.756,3.0093988921719044,5897.321438685049
1.76,2.810522793282806,5898.017878074164
1.764,2.65785531313268,5903.0238513076265
1.768,2.5636892134001013,5901.017154325803
1.772,2.5325767754682045,5900.26594317934
1.776,2.5591006995760615,5905.169778843734
1.78,2.627623466551453,5906.239191362583
1.784,2.7144540927297456,5892.413065940028
1.788,2.792085238799608,5897.733416655595
1.792,2.8344436083246527,5899.056575139328
1.796,2.8218944932567687,5906.812430991653
1.8,2.744919533362766,5887.413212672364
