时间(s),电压(V),幅值(高频80K)
0.0,-1.9574180652749105,5914.894813954081
0.004,-1.3107698577963802,5895.049075624453
0.008,-0.7200866930492159,5895.232908682782
0.012,-0.23192931770720357,5896.061872851559
0.016,0.12394733568529598,5893.516452186194
0.02,0.33729560212087795,5894.707675364184
0.024,0.4161077472231904,5912.958828384791
0.028,0.38256018581396223,5899.992129689644
0.032,0.26732242818785384,5900.371672386015
0.036,0.1034891104953371,5897.682241838528
0.04,-0.07843838621608998,5891.627051902361
0.044,-0.2534834392652181,5897.351450735924
0.048,-0.4029696632995089,5893.895862120923
0.052,-0.513950963118867,5904.758556250636
0.056,-0.5783356199496054,5901.710824346765
0.06,-0.5923399218934277,5907.239476557751
0.064,-0.5563266920043588,5902.512045377676
0.068,-0.47480995401017057,5901.751979712153
0.072,-0.35648018207326915,5893.798854678088
0.076,-0.21408950638820748,5894.9306468048335
0.08,-0.06373615953296734,5890.475780348754
0.084,0.07698449922428628,5900.371893181918
0.088,0.19184956284107718,5901.083843084615
0.092,0.26889462892925203,5908.011405976175
0.096,0.30220160868060103,5897.885578696702
0.1,0.29232981742550856,5904.097923388203
0.104,0.24590772493875743,5897.097141444395
0.108,0.17471339321168772,5898.666012483227
0.112,0.0939308109999772,5901.462090193041
0.116,0.01931498929760059,5898.810053639639
0.12,-0.03616508775791166,5897.258127941799
0.124,-0.06507077366561709,5901.601190468593
0.128,-0.06685185876062877,5898.096670315859
0.132,-0.04774616976035166,5915.11293587655
0.136,-0.019420452489911706,5893.229114076133
0.14,0.0035415387729401783,5901.131538209862
0.144,0.007140777825813393,5894.127391099592
0.148,-0.018155633209879053,5898.213460524435
0.152,-0.07432013442361154,5900.738009947865
0.156,-0.15470618935749864,5895.759000870814
0.16,-0.24559015694384842,5912.005542316527
0.164,-0.3298380897321889,5897.829777834566
0.168,-0.39149896787218696,5902.4936996200295
0.172,-0.41993316807525055,5898.77604879602
0.176,-0.4122730284336567,5900.580279960148
0.18,-0.37358313563869394,5898.481432400844
0.184,-0.31497053578502077,5894.90457679356
0.188,-0.25053406325570676,5910.302743126046
0.192,-0.19399329787119926,5893.1857816956335
0.196,-0.15549852266811115,5891.690940000869
0.2,-0.13912917351470386,5902.362533738879
0.204,-0.1418048660356071,5891.724856187028
0.208,-0.15417801177674953,5907.776717499469
0.212,-0.16348417685225067,5899.841640963246
0.216,-0.15765054527000752,5909.255680685368
0.22,-0.12940080961954484,5904.596660604372
0.224,-0.07887973391658899,5897.385494742961
0.228,-0.013798014303831005,5904.88737783653
0.232,0.05292438314365929,5906.87038700341
0.236,0.10721452851304315,5896.009793132143
0.24,0.1383640942740836,5898.719051094988
0.244,0.14258236393421922,5904.782665571932
0.248,0.12439553549268273,5902.071460005974
0.252,0.09551385270908554,5896.319932907024
0.256,0.07164060967455108,5906.103359494532
0.26,0.06799642526433847,5898.85679059263
0.264,0.09434682870833189,5899.506229679933
0.268,0.15068698826398405,5903.704918801923
0.272,0.22527703156094353,5898.859216950017
0.276,0.29649540254256906,5905.298130527396
0.28,0.33856691867268884,5895.470937468757
0.284,0.32939582935502415,5899.855974096701
0.288,0.2576736451804731,5902.313719362296
0.292,0.12668564894313458,5913.525617317267
0.296,-0.04645884210266451,5899.0757323511225
0.3,-0.2357250010818445,5898.3831005188285
0.304,-0.4132403868772543,5892.443199515862
0.308,-0.5559866589777105,5895.3044581428085
0.312,-0.6500117420546914,5901.025556201194
0.316,-0.691374698813643,5905.827236595232
0.32,-0.6844049451701736,5890.270249594306
0.324,-0.6387586582126563,5911.7074841974
0.328,-0.5668335935059216,5898.018759248525
0.332,-0.482251352081844,5906.929866907304
0.336,-0.3989376509563841,5915.283445125344
0.34,-0.329864211516937,5892.959547458958
0.344,-0.28509320653988723,5901.090685442374
0.348,-0.26969380451292907,5901.510041233848
0.352,-0.2825880607354149,5889.389588737771
0.356,-0.31715700787976164,5897.668925813285
0.36,-0.3635690368897931,5895.988823542995
0.364,-0.41177970307324463,5900.1203854483465
0.368,-0.453878127951313,5900.338590288818
0.372,-0.48517840457252914,5889.466161025895
0.376,-0.5043422568731949,5896.244095068718
0.38,-0.5130579459168666,5899.752229955926
0.384,-0.5154651626197431,5891.838512625621
0.388,-0.5171422184195703,5902.025887007997
0.392,-0.5234571384888578,5903.209907408394
0.396,-0.5374760640469789,5901.617737733095
0.4,-0.558098836296953,5900.445507955081
0.404,-0.5792803743443478,5890.205830406711
0.408,-0.5909975683439274,5894.694657732148
0.412,-0.5820535031085469,5902.431096099936
0.416,-0.543922748892181,5896.998713659343
0.42,-0.47405897399450553,5905.113740116595
0.424,-0.3771538937749802,5898.268615799986
0.428,-0.26392112575113397,5894.347683146325
0.432,-0.14821694001330918,5901.474202554902
0.436,-0.04379666941452282,5900.912113087349
0.44,0.03826351142164818,5901.303809450248
0.444,0.09104365467390643,5893.654127934946
0.448,0.11233569463471328,5899.95914422939
0.452,0.1047195459402309,5901.453040688619
0.456,0.07529319387500469,5893.511895230435
0.46,0.034771838660650235,5896.106345845892
0.464,-0.004269501255954301,5895.765676209567
0.468,-0.029833762009348393,5906.461898236974
0.472,-0.03316927662569931,5900.9761589166765
0.476,-0.01108890053985134,5904.509615139791
0.48,0.032780409914087406,5896.641490394211
0.484,0.08849613104129714,5904.043482814462
0.488,0.14222693225854469,5895.527497713014
0.492,0.1799942701121338,5905.387773930401
0.496,0.19154171047184512,5903.687349369949
0.5,0.17319188925920012,5895.379949639739
0.504,0.12905129222570538,5898.964483550663
0.508,0.07032732511934993,5907.009728055032
0.512,0.012712567362972221,5893.232033597476
0.516,-0.027814675487825447,5902.873780505674
0.52,-0.039733771050045996,5900.309614223197
0.524,-0.019754824085258735,5901.584893946879
0.528,0.025696534416787077,5897.567091755884
0.532,0.08178718906147237,5892.538624190922
0.536,0.1288993644393321,5900.975145899678
0.54,0.14743572697720156,5897.184048798453
0.544,0.12253480134885153,5893.048711386329
0.548,0.04767946392085384,5899.051860688036
0.552,-0.07335699189849698,5904.417540168704
0.556,-0.22639317766488387,5907.258415274186
0.56,-0.388639783154015,5892.420940934576
0.5640000000000001,-0.5324970851698235,5898.128434448785
0.5680000000000001,-0.6310054295691226,5897.085378622853
0.5720000000000001,-0.6638597461862603,5901.688952685288
0.5760000000000001,-0.6224449308349047,5899.576867722684
0.58,-0.5125145489345369,5906.417713531665
0.584,-0.3537271498257639,5902.228007744051
0.588,-0.1759839122462045,5899.440905321859
0.592,-0.013256908166047033,5895.815105460096
0.596,0.10372182810837602,5899.723887153307
0.6,0.15411026963870358,5907.209335895029
0.604,0.13121392522320413,5903.472163126919
0.608,0.043279149748012564,5911.543206666052
0.612,-0.08922611445510858,5906.015066056591
0.616,-0.23890664253121738,5898.804534413753
0.62,-0.37772957255230305,5893.231785888386
0.624,-0.4825757893973036,5909.641632774965
0.628,-0.5387063771589268,5896.411661508732
0.632,-0.5406730848847645,5889.225860149104
0.636,-0.49125773056853234,5902.611000949576
0.64,-0.3996603938053594,5897.193142006375
0.644,-0.2799203284700274,5901.69825497149
0.648,-0.1496981144807936,5906.390612421519
0.652,-0.02881569213375101,5904.41154900393
0.656,0.06314220065145064,5899.42674798807
0.66,0.11029016570566874,5904.845261165496
0.664,0.1041985547016676,5896.215731463061
0.668,0.04657359152681523,5904.099850451605
0.672,-0.0503182726850506,5903.39174604779
0.676,-0.16581621984848846,5891.831155008514
0.68,-0.27507753964714426,5903.103433235622
0.684,-0.3543216966801032,5896.962663737203
0.6880000000000001,-0.3860043126535767,5905.002722824704
0.6920000000000001,-0.3628629392309798,5903.674327261224
0.6960000000000001,-0.2898104468283347,5896.677336946829
0.7000000000000001,-0.1828931499975523,5900.275071470984
0.704,-0.06529749891832608,5898.496213501972
0.708,0.03851396673628113,5889.2591337947215
0.712,0.10869622177885391,5899.310010937368
0.716,0.13415800112690876,5895.966707735052
0.72,0.11399803048498464,5911.7311581699
0.724,0.05643359318174447,5909.210212151859
0.728,-0.023873538042054117,5906.67784471107
0.732,-0.10917832905117555,5910.671927621278
0.736,-0.18207930652266954,5892.458406429425
0.74,-0.22853902873436396,5895.082109266373
0.744,-0.2400706941357613,5904.058851968864
0.748,-0.21487555434934538,5907.696080993498
0.752,-0.15806088391767067,5893.1547932112335
0.756,-0.08116351595518026,5899.926963574694
0.76,-0.0008912543008092077,5898.543777233056
0.764,0.06328390909257933,5899.938574611191
0.768,0.09277725049527254,5904.967845130174
0.772,0.07419883479893552,5898.768183311956
0.776,0.0031879055972977824,5899.3702969127735
0.78,-0.1134505090882243,5890.214693670243
0.784,-0.25821078389866264,5895.418316686538
0.788,-0.4061851964269537,5909.750392184638
0.792,-0.530524373675725,5903.2368526076725
0.796,-0.6085745448871156,5905.991356699541
0.8,-0.6269002989557616,5897.809774254119
0.804,-0.5838254024754993,5906.488753614082
0.808,-0.4890226447883998,5896.062755179101
0.812,-0.36050307338890697,5898.492441368068
0.8160000000000001,-0.2198759546426422,5904.279543412787
0.8200000000000001,-0.08714632383797893,5897.114250170227
0.8240000000000001,0.023482998487025446,5888.977056480193
0.8280000000000001,0.10565176973421493,5905.03339355697
0.8320000000000001,0.16034412637422563,5900.093741701879
0.836,0.1932959938762167,5894.804921081902
0.84,0.21136814317978936,5901.234216401927
0.844,0.21922673239478396,5892.558759583675
0.848,0.2174520004277704,5897.224578250029
0.852,0.20256741236323622,5904.595751615031
0.856,0.1689206644919021,5905.675139691748
0.86,0.11202473702994044,5904.862006400099
0.864,0.032491180426857565,5893.413221287653
0.868,-0.06100404519273538,5904.294659938384
0.872,-0.15150141305228426,5895.8982729242525
0.876,-0.21725071875473032,5901.822569051732
0.88,-0.2382927198170337,5896.437783306877
0.884,-0.20391013525284687,5895.493234356348
0.888,-0.1179149817586088,5910.219081191809
0.892,0.0007666970356094827,5912.225221352543
0.896,0.12300421117404288,5887.915417431404
0.9,0.21836324330886425,5901.576152989214
0.904,0.2646853462595577,5905.960420026642
0.908,0.2546113780329475,5895.436227919223
0.912,0.1965801852325429,5897.329869865581
0.916,0.11019697372342165,5901.321775097576
0.92,0.01818952931831301,5904.988363858403
0.924,-0.06159106534215173,5905.376360014699
0.928,-0.12103739553328313,5891.97623128373
0.932,-0.16213337430397176,5897.324517875986
0.936,-0.19344088297909237,5892.1539123550565
0.94,-0.22474873905539988,5905.655467210646
0.944,-0.2621788653421701,5896.598160028435
0.948,-0.30545504701123827,5902.82496583408
0.952,-0.3480690692646588,5907.42145692058
0.956,-0.38004720383504437,5900.143955551409
0.96,-0.39208273746236166,5898.233791631384
0.964,-0.37928117755179624,5904.327409645249
0.968,-0.3430566197893565,5904.997894726104
0.972,-0.29070506893417636,5895.552187198451
0.976,-0.23320736988610297,5897.375665335174
0.98,-0.18231136972025894,5897.42494452816
0.984,-0.14780560435160897,5892.473581002714
0.988,-0.13544249379157425,5887.51147667545
0.992,-0.1456896259040721,5899.728188027869
0.996,-0.1735746508707391,5891.779008066412
1.0,-0.20998246100386303,5906.961773302394
1.004,-0.24438773040864437,5888.563441701214
1.008,-0.2682429790124174,5895.669534705316
1.012,-0.2777351898058063,5900.817772426405
1.016,-0.27482041963577253,5903.318764166442
1.02,-0.2661518501595373,5896.316895087146
1.024,-0.26030550824110477,5900.456604128061
1.028,-0.2643228055467278,5899.585642028227
1.032,-0.2808613535242824,5903.290272856764
1.036,-0.3070293883387369,5911.008253853707
1.04,-0.33532676844392967,5902.415681386446
1.044,-0.35636278784145675,5904.85090693582
1.048,-0.36246867158926876,5895.897085032796
1.052,-0.3509252669283941,5909.091416765828
1.056,-0.3253170717481731,5892.547293799587
1.06,-0.294039818749922,5904.394660435593
1.064,-0.2664710651164271,5896.9447605257055
1.068,-0.24879177013765028,5893.568668422048
1.072,-0.24158809322157943,5894.518855997973
1.076,-0.24007878273056912,5898.671209363014
1.08,-0.23629743774459266,5897.858635129808
1.084,-0.22187898105645257,5901.07356753191
1.088,-0.19031051711386163,5896.748992340234
1.092,-0.1380808814411271,5905.186542554615
1.096,-0.06478907379803453,5903.898035702103
1.1,0.027151909940681476,5891.55590043334
1.104,0.1324160179985044,5909.761758224224
1.108,0.24206959355941624,5899.939560440939
1.112,0.3430768613348637,5897.957198851556
1.116,0.41927022287251103,5896.676119084513
1.12,0.4544146460287588,5904.811189565175
1.124,0.43661158838070574,5901.58174901408
1.128,0.3621909464833548,5902.460091247867
1.132,0.23727125414108374,5898.193020275381
1.136,0.07631605458767195,5904.368938445947
1.14,-0.10152229574791446,5895.946674223584
1.144,-0.2766768434443563,5908.691005656176
1.148,-0.4327058489543065,5888.731985885109
1.152,-0.5585579814573558,5890.350154851172
1.156,-0.649621360964556,5901.3099375492175
1.16,-0.7076428973129038,5904.611129109471
1.164,-0.7393427145258575,5900.3962464254655
1.168,-0.7535609635982721,5899.132769714572
1.172,-0.7573891869726084,5903.798317224011
1.176,-0.752712916872727,5900.434604740475
1.18,-0.7350717422556935,5901.214964669697
1.184,-0.6958848213604597,5899.1298955626735
1.188,-0.6271791106411552,5900.86496044134
1.192,-0.5264643537037728,5901.467172258733
1.196,-0.3994773413847908,5898.349778551458
1.2,-0.2598833832031575,5903.527073836998
1.204,-0.12650755095087937,5909.268880352258
1.208,-0.019394605864198992,5902.161421083508
1.212,0.044124837689625405,5900.761858882334
1.216,0.052696349385231676,5909.074683790842
1.22,0.003272931691324372,5895.16540914927
1.224,-0.09764167877340954,5907.327328812805
1.228,-0.2341265881963679,5904.435355862465
1.232,-0.38275973899995513,5900.342440636298
1.236,-0.516460483133132,5902.333746402342
1.24,-0.6096718582283371,5911.302177709913
1.244,-0.6435761419916005,5896.808632670413
1.248,-0.6099117780292214,5900.277732911082
1.252,-0.5124805508306282,5899.737167122948
1.256,-0.36618474553571195,5894.685575997404
1.26,-0.19400988354749488,5905.143301148594
1.264,-0.022690199434822898,5895.263796948022
1.268,0.12198578540643613,5906.803208547541
1.272,0.21916717847004155,5898.002667174595
1.276,0.2554779405551761,5888.800945081594
1.28,0.22613594847290466,5894.18723624142
1.284,0.13536025655328346,5902.170814826626
1.288,-0.003363978213429256,5905.401081185887
1.292,-0.16745875998729778,5906.835987610649
1.296,-0.3270021243015108,5900.462196535608
1.3,-0.4491933587790994,5901.098652683569
1.304,-0.5054110283694702,5897.702050015163
1.308,-0.4787746454951137,5897.083581826218
1.312,-0.36907297851838106,5900.893868766817
1.316,-0.19296520059986683,5899.929126999594
1.32,0.020252115390080386,5900.096837986557
1.324,0.23526576698508977,5892.685096835715
1.328,0.41769415600614135,5898.579354217429
1.332,0.540266618384088,5896.563000749156
1.336,0.5876317878531347,5897.0587105907325
1.34,0.5589082901052086,5902.3625119436265
1.344,0.46698451207894226,5908.038305909674
1.348,0.3343480532444666,5900.319967731098
1.352,0.1865106016285058,5901.076328606682
1.356,0.04511824646240017,5892.95088346723
1.36,-0.07695325789764876,5896.564540695434
1.364,-0.17704843787303534,5898.062291180883
1.368,-0.2607272029017914,5889.565258329678
1.372,-0.33748716832474973,5900.674724080578
1.376,-0.4157603998189136,5907.965773126646
1.38,-0.49859227602046174,5899.652170925559
1.384,-0.5812161073671475,5891.950191209471
1.388,-0.651427438489626,5901.643977172656
1.392,-0.6929367450487993,5912.858717300298
1.396,-0.6908192065838533,5893.102207098624
1.4,-0.6373168162383518,5908.755963730252
1.404,-0.5360472438352555,5912.1131741540685
1.408,-0.403152477690635,5899.783214240772
1.412,-0.2647921765230838,5894.456145565096
1.416,-0.1514145148272616,5905.2569391720335
1.42,-0.09027731296094188,5898.335097934149
1.424,-0.09842012531459263,5889.520499981238
1.428,-0.17825420843313977,5895.61906637348
1.432,-0.31706891876996074,5896.623831729387
1.436,-0.4904395936008776,5899.625916591655
1.44,-0.6682329693649574,5900.76810367612
1.444,-0.8211485125971185,5889.85435275083
1.448,-0.9259811888935074,5895.174954466754
1.452,-0.9688297692998229,5887.487115655417
1.456,-0.9463347206051536,5905.660481369168
1.46,-0.8651428163377647,5906.992991892638
1.464,-0.7396613476769808,5899.420261860111
1.468,-0.5884583809280822,5891.91385822614
1.472,-0.4302786685234433,5894.223396177461
1.476,-0.2809296131149854,5891.461364122634
1.48,-0.1518562845024866,5894.161198396216
1.484,-0.050324544150228245,5913.114918081574
1.488,0.019578428336642174,5899.838614793083
1.492,0.05601158256089084,5895.252220645333
1.496,0.059015192735265364,5909.304635930727
1.5,0.030699595249677223,5900.36656219978
1.504,-0.02445938851514142,5911.364387632191
1.508,-0.09982769787336425,5894.827166895412
1.512,-0.18763926036469603,5895.1827800467245
1.516,-0.28056135293015577,5904.884885263966
1.52,-0.3730954686145334,5895.095530657216
1.524,-0.46214180978073804,5902.502981380213
1.528,-0.5464120251576982,5897.1776568009
1.532,-0.6248653402456914,5910.185491609775
1.536,-0.6948917698105944,5907.989103422129
1.54,-0.7513159191711961,5893.514579346981
1.544,-0.7870375910437543,5904.038357999936
1.548,-0.7952428460999017,5901.796804948457
1.552,-0.7721734165281623,5902.532341278679
1.556,-0.7191149889404088,5892.588190959063
1.56,-0.6427556191600896,5896.034260447086
1.564,-0.5539069448114505,5899.707571159515
1.568,-0.465159206628121,5899.634637268581
1.572,-0.3882105510720254,5901.89009878554
1.576,-0.3315576671376032,5889.045411631815
1.58,-0.2990615195559844,5900.639190321836
1.584,-0.28964145387138174,5895.469743945195
1.588,-0.29806370211429717,5898.930193144102
1.592,-0.3165297132522263,5904.176596358292
1.596,-0.33662862318832937,5898.099390478516
1.6,-0.3512775483505459,5898.536852424203
1.604,-0.35641219143397546,5902.307730237473
1.608,-0.3521698022937969,5892.143342641944
1.612,-0.34311722503821956,5896.968356785141
1.616,-0.33704041336747775,5898.086825039287
1.62,-0.3422420030293423,5902.363030029937
1.624,-0.36407166627962084,5893.708378083189
1.628,-0.40197666715075553,5899.424857774135
1.632,-0.44822438800298436,5900.717405528085
1.636,-0.48876744164939495,5901.850499124238
1.64,-0.5060989171796899,5902.397563924108
1.644,-0.48364627791890585,5900.61922715862
1.648,-0.4109751300469226,5894.686299366887
1.652,-0.2885997163733626,5903.787149184411
1.656,-0.1308388146502089,5890.619902426891
1.66,0.034626496382413045,5901.118894109453
1.664,0.17098303332634723,5895.348420909642
1.668,0.2396709768532794,5894.487760040504
1.672,0.2093692279208646,5903.028594285666
1.676,0.06459789062298028,5897.057715599329
1.68,-0.18789750946858602,5895.202043989578
1.684,-0.5161409597895517,5898.744993092399
1.688,-0.8635704669283697,5902.3411260402345
1.692,-1.1531727342011664,5900.459154378137
1.696,-1.2953221697959307,5895.696396471279
1.7,-1.1999440817574822,5902.508366874135
1.704,-0.792882652605833,5895.325399660405
1.708,-0.034340447743740975,5900.588305255616
1.712,1.0649864082876304,5899.165569080204
1.716,2.43569978469832,5902.160103896918
1.72,3.9544057157210086,5905.865773426441
1.724,5.4632268706519715,5902.928494767777
1.728,6.800702430372009,5909.581782716527
1.732,7.835295549589496,5901.598555369452
1.736,8.49086065882439,5890.611883912284
1.74,8.75675254219247,5898.654555902394
1.744,8.68153752632017,5894.337139320322
1.748,8.354590687491896,5898.490248046714
1.752,7.882196207716241,5895.375966238205
1.756,7.3645196931412515,5885.760353879749
1.76,6.878231671168728,5904.473842368177
1.764,6.467469583230696,5893.308883280784
1.768,6.143601024493474,5905.089705175386
1.772,5.892230101145093,5901.050589731423
1.776,5.684499673435412,5902.20270824074
1.78,5.489228779458942,5900.4806160732805
1.784,5.282723011594162,5899.658522737048
1.788,5.054084404939506,5893.214418909849
1.792,4.805413274069006,5901.92909940638
1.796,4.547988515723107,5895.61317256015
1.8,4.2965792295208844,5905.325005318589
