时间(s),电压(V),幅值(高频80K)
0.0,-0.14027428147711854,5899.143524219104
0.004,0.05830082759154131,5901.440065605806
0.008,0.22396109553231205,5895.781823210143
0.012,0.33341358574129537,5900.596618989143
0.016,0.37600891992782753,5909.63713240638
0.02,0.3553706530146935,5909.539859950091
0.024,0.28803477771962943,5898.82919190646
0.028,0.19964602611753302,5892.3468529801685
0.032,0.11896625680720414,5901.6943156756615
0.036,0.07042807803307956,5896.926049021778
0.04,0.06723442907369628,5899.176767774343
0.044,0.10765123935608775,5899.550041385437
0.048,0.17607304157979856,5888.666556683419
0.052,0.24823354543735493,5896.577182804413
0.056,0.2982166231496551,5896.674587628998
0.06,0.30478375629680954,5902.380408770219
0.064,0.25562407536245246,5900.186165550024
0.068,0.14930663059736332,5902.3255697398
0.072,-0.00467362119623025,5900.046344281541
0.076,-0.18721460716920188,5895.175455978043
0.08,-0.37193306532828235,5895.2516961258325
0.084,-0.528580916276904,5897.449301104696
0.088,-0.6278923582614143,5902.953986210937
0.092,-0.6477671808298404,5904.997621419106
0.096,-0.579635257910703,5904.669901971744
0.1,-0.432862861966155,5905.168487904264
0.104,-0.23497991061458479,5900.341283673623
0.108,-0.026644583095266666,5901.2554079350175
0.112,0.1478429798008189,5898.249435815747
0.116,0.2519462927615522,5898.773466260464
0.12,0.26688403779110365,5895.612244101265
0.124,0.19707539079091918,5910.453713207074
0.128,0.06893964581266811,5907.268134570463
0.132,-0.0770736923243058,5903.358220442134
0.136,-0.19876141397842037,5895.655287754021
0.14,-0.2645120477933791,5901.597043368598
0.144,-0.261685314043077,5893.481258094507
0.148,-0.1987712565196144,5899.464950203495
0.152,-0.10127818063303796,5893.743159326403
0.156,-0.003103524494478021,5897.897950451654
0.16,0.06388057112902863,5903.002807259518
0.164,0.07915040818611295,5896.065469775846
0.168,0.039245742342599754,5906.226528349458
0.172,-0.04183370054117376,5897.771391478279
0.176,-0.13777846885889897,5901.601800261209
0.18,-0.21898407744062132,5905.81317277527
0.184,-0.2623110278860059,5892.496679026444
0.188,-0.2583218868461261,5896.723508537432
0.192,-0.2138824917059927,5899.429655805777
0.196,-0.14973262375204305,5897.790497700041
0.2,-0.09409674050960025,5907.892356322071
0.204,-0.07424810680384597,5892.985835953787
0.208,-0.10817978128747098,5896.409870793613
0.212,-0.1983880949376372,5899.898804327886
0.216,-0.3294187049978769,5907.466952638653
0.22,-0.4701631312335692,5897.878491924691
0.224,-0.5807728929939601,5900.369907429268
0.228,-0.6226960069201033,5911.521684932203
0.232,-0.5692224519715295,5904.500240722901
0.236,-0.4134773084693494,5905.73950075725
0.24,-0.17132928877538828,5898.184116122727
0.244,0.12176065759468972,5908.522184143661
0.248,0.4188731626441029,5901.4993417464175
0.252,0.6720921446804989,5904.968712787137
0.256,0.84226252263856,5901.886378645165
0.26,0.90582885735443,5899.033806676996
0.264,0.8578774166218509,5895.450086419211
0.268,0.7115382199439041,5908.139865554662
0.272,0.4943570555156401,5906.618657568224
0.276,0.2424875091042762,5894.187257969099
0.28,-0.006135514446036794,5894.152867018093
0.284,-0.21831656928172286,5900.556944708342
0.288,-0.3707047198610537,5900.9036594700265
0.292,-0.45277309614355277,5902.316180147086
0.296,-0.4672707883165502,5902.84588607509
0.3,-0.4280378529178463,5909.292370226515
0.304,-0.3556476324366248,5903.497014924509
0.308,-0.2721133108152195,5904.743918910453
0.312,-0.19621745260135795,5907.687817244696
0.316,-0.14047099862717957,5906.268489716785
0.32,-0.10982173155959059,5898.435682161436
0.324,-0.10182860746465633,5892.005825185747
0.328,-0.10808352922227413,5902.421948495145
0.332,-0.11663361051526296,5893.654052444684
0.336,-0.11490307681469465,5891.97073831342
0.34,-0.09244750301759569,5904.051023338072
0.344,-0.04298544455577725,5898.294824950882
0.348,0.03451631485399952,5894.599915444897
0.352,0.13560618518532733,5900.265152486043
0.356,0.25082384899926424,5898.975025444038
0.36,0.3669674993019259,5905.694368619055
0.364,0.46928855264155694,5900.69291844342
0.368,0.5443385400158431,5892.61853402958
0.372,0.5825715519952983,5897.914099527469
0.376,0.5797052646186124,5898.196652709553
0.38,0.5365970176771442,5901.288696932241
0.384,0.4582908490536782,5895.137375549225
0.388,0.35302567935607426,5900.202519683336
0.392,0.23143050493494616,5905.4094781042095
0.396,0.1056073115435859,5900.259215749771
0.4,-0.012290482614396771,5905.6889984712925
0.404,-0.11212232254292413,5901.839528635606
0.408,-0.188128616410156,5907.551651488229
0.412,-0.2407287162852438,5894.361654478985
0.416,-0.27670497722175974,5896.788275714667
0.42,-0.307264963706306,5904.34184701076
0.424,-0.34447627977745765,5896.865924708263
0.428,-0.39738956413180776,5894.950759426095
0.432,-0.4692775876316796,5897.007566921613
0.436,-0.5567299809990246,5908.46753613779
0.44,-0.650358129005385,5896.668885208111
0.444,-0.7364158089860626,5900.491902076706
0.448,-0.7990053379183268,5896.217111147001
0.452,-0.8230465986638599,5899.4722402981415
0.456,-0.7980266639373268,5891.7509769546
0.46,-0.72169393095269,5899.879201246264
0.464,-0.6021283492236337,5897.491459753967
0.468,-0.4569229104754735,5905.941158910612
0.472,-0.3095485170961376,5901.591758491836
0.476,-0.18424382227537806,5901.698569999291
0.48,-0.10093384054002053,5903.473743698084
0.484,-0.07093343287900718,5900.940878570948
0.488,-0.09372744737541505,5901.420266209478
0.492,-0.15566192341211843,5901.778446145455
0.496,-0.23206080932513265,5913.174251907867
0.5,-0.2935130039282336,5900.871862288105
0.504,-0.3147710881024231,5904.912734986302
0.508,-0.2827965557050838,5907.355845647218
0.512,-0.20072794158345902,5899.254039007797
0.516,-0.08659863470218244,5897.643692464872
0.52,0.03215945691202864,5899.077497321225
0.524,0.12613866826086878,5909.247243541842
0.528,0.17092084425995777,5894.934599787963
0.532,0.15206594605533155,5897.981296133622
0.536,0.06775516889881215,5900.672741071069
0.54,-0.0708054404877176,5901.622127372818
0.544,-0.24135905785746373,5894.609774558828
0.548,-0.4149899814860302,5899.949796771431
0.552,-0.5620310535231149,5900.522408499757
0.556,-0.657767625397424,5902.7759944727495
0.56,-0.6865760564311318,5897.491159030717
0.5640000000000001,-0.6442590640689402,5898.857357094842
0.5680000000000001,-0.53895072884765,5907.74553124878
0.5720000000000001,-0.3905626079656245,5901.526144806976
0.5760000000000001,-0.22808038745646264,5894.505349605524
0.58,-0.0841500954574421,5898.298137268722
0.584,0.01241387653058302,5894.869581013338
0.588,0.04411425993170546,5898.2593655850615
0.592,0.009594959328021778,5895.431549498004
0.596,-0.07612119236760455,5893.036763267651
0.6,-0.18634350001315106,5901.686734349886
0.604,-0.29102786582753515,5894.813684117885
0.608,-0.36601606591833286,5907.701788012398
0.612,-0.40003589986714383,5898.162747912873
0.616,-0.3970345773799591,5904.006658113315
0.62,-0.37322273221270963,5898.426584565356
0.624,-0.35021589377736617,5901.930742190899
0.628,-0.34690236934690494,5897.807435001788
0.632,-0.3728140641606307,5904.592466519175
0.636,-0.4250475592977197,5894.2910761247385
0.64,-0.4894670349986054,5897.519540929556
0.644,-0.5454200796764237,5894.671794328938
0.648,-0.5720850148700253,5905.400325695464
0.652,-0.5542450915892329,5898.490456550423
0.656,-0.48580940861994854,5902.824672667165
0.66,-0.37053029615643457,5900.680309360664
0.664,-0.2205108906045066,5893.154016913003
0.668,-0.05361464339120919,5903.950741991245
0.672,0.10931466885951209,5895.536765815951
0.676,0.24702541536884268,5900.55067268914
0.68,0.3403111784953678,5904.57682217158
0.684,0.37472535959965864,5908.017504556322
0.6880000000000001,0.343750150827712,5898.730368606958
0.6920000000000001,0.251850066255547,5899.327867609433
0.6960000000000001,0.11604847781269076,5902.606903664749
0.7000000000000001,-0.03545782152622965,5894.681974217104
0.704,-0.16836586876066453,5896.57468175424
0.708,-0.25028428632063265,5899.629279997203
0.712,-0.2594022453287423,5908.380018766235
0.716,-0.1907287279228352,5898.958200397086
0.72,-0.057488433130166286,5902.2484390541495
0.724,0.11280703032218643,5894.764095200324
0.728,0.28591155907721044,5899.364831320005
0.732,0.429109161249887,5899.139572289487
0.736,0.517604667880273,5891.981460409712
0.74,0.5378400654622794,5899.943102516779
0.744,0.487960388596678,5892.403769252952
0.748,0.3763642377019171,5899.516447814165
0.752,0.21919203300523735,5901.935211169071
0.756,0.037170961075377124,5901.092886356162
0.76,-0.147971477173199,5905.106174868412
0.764,-0.31702143491999923,5891.906888816963
0.768,-0.45581160332461734,5896.439111177939
0.772,-0.5560613872343881,5900.4056675390975
0.776,-0.6147222871531713,5893.762903125929
0.78,-0.6328385902500481,5900.776912414033
0.784,-0.6147984182356324,5903.696018617024
0.788,-0.5679568026942329,5897.195242133254
0.792,-0.5020272090980921,5897.344554493226
0.796,-0.42792907458352814,5901.769970074755
0.8,-0.35635228070583674,5897.81049394475
0.804,-0.296418860124626,5895.47199204804
0.808,-0.2545770544698072,5902.270765321487
0.812,-0.23373580808814653,5900.629340819061
0.8160000000000001,-0.23277774567790213,5903.82202123446
0.8200000000000001,-0.2467992685632764,5904.700038304494
0.8240000000000001,-0.2684906785688591,5900.413980826712
0.8280000000000001,-0.2907062114408798,5900.937791571442
0.8320000000000001,-0.30940068219983247,5905.203180736945
0.836,-0.3253495853303683,5906.689394912726
0.84,-0.343358024460463,5901.492948732365
0.844,-0.36904870126448264,5899.874202409474
0.848,-0.40476095168662113,5900.409550207417
0.852,-0.44659625142521375,5897.332364092861
0.856,-0.48409239052708625,5906.27079363648
0.86,-0.5028500415511619,5910.61593962271
0.864,-0.489116466165134,5893.927255410911
0.868,-0.4343639676017078,5903.871115475132
0.872,-0.3379603566717019,5899.602232282306
0.876,-0.2072250308269,5896.13160787801
0.88,-0.055563556877090546,5891.680260948776
0.884,0.10011029949022018,5902.644408897901
0.888,0.2419145025047719,5898.066572279323
0.892,0.35337494918305734,5903.749108887561
0.896,0.4216545165457038,5892.553596107015
0.9,0.4394400911227244,5898.938122599412
0.904,0.406189069680166,5905.5312510895255
0.908,0.32853619020890723,5916.049403082449
0.912,0.21969849598295998,5901.634791689622
0.916,0.09764184598720645,5894.777305311467
0.92,-0.01805112915100348,5899.734380030435
0.924,-0.11008654209447999,5893.489114668762
0.928,-0.16706523585185956,5896.662365602273
0.932,-0.1856262748678458,5898.126183352032
0.936,-0.17026461952584776,5908.211648480333
0.94,-0.13063828028973407,5896.338968263493
0.944,-0.07737737305837337,5902.739336012089
0.948,-0.018532323637387705,5904.5658347482295
0.952,0.04136262675171273,5903.102758362704
0.956,0.09937510587360981,5909.597473729569
0.96,0.15115689181166825,5909.143371989114
0.964,0.18911156991991246,5895.294122153015
0.968,0.2028517860024827,5900.296141313728
0.972,0.18144013664179212,5905.0457430884
0.976,0.11623306269634251,5894.823736433939
0.98,0.0034894526608534324,5897.440000197905
0.984,-0.15361530589660571,5892.39713810571
0.988,-0.3439408775870152,5905.0091946141165
0.992,-0.5489370086866553,5905.236528393481
0.996,-0.7452690059521626,5898.465422744658
1.0,-0.9091266991202048,5908.427647890021
1.004,-1.0209064374302452,5901.542231507381
1.008,-1.0687383290221535,5903.219089045297
1.012,-1.049909060483416,5900.647646063355
1.016,-0.9701580041569546,5899.832545832799
1.02,-0.8416624993491982,5899.008266299965
1.024,-0.6808839198013438,5898.673365648692
1.028,-0.5069723887017035,5901.09866997882
1.032,-0.34035827742484903,5906.300170999422
1.036,-0.20056733773062915,5895.001053171084
1.04,-0.10300516455889978,5909.831468416529
1.044,-0.055749114389954044,5901.1582599970825
1.048,-0.05780075432583292,5896.141582524906
1.052,-0.09949597480300164,5899.666671991587
1.056,-0.16477117392513616,5899.4957262028
1.06,-0.23444562017369236,5903.895768956654
1.064,-0.28962778250065124,5896.141634818467
1.068,-0.314656437924505,5898.738202068724
1.072,-0.2994445673909464,5906.8538587461135
1.076,-0.2412951165249145,5899.365749333338
1.08,-0.14596596931866274,5902.032355235735
1.084,-0.027347537517048968,5897.038700283195
1.088,0.09475009715061271,5904.789396349543
1.092,0.19839450722513374,5901.292071436907
1.096,0.26385510452533995,5896.231635928561
1.1,0.2774339264519123,5904.6383558952975
1.104,0.23427602202778433,5902.124755491471
1.108,0.13970421942394612,5893.790909956686
1.112,0.008391920534941897,5893.085160769526
1.116,-0.1389147941697458,5895.751256099349
1.12,-0.280340731421658,5897.573796634564
1.124,-0.39789010184794626,5892.098613241417
1.128,-0.48090655601686894,5903.686239083514
1.132,-0.5270135960188543,5904.110350746637
1.136,-0.5405354753647615,5903.062940369306
1.14,-0.5292975320480715,5911.673168836101
1.144,-0.501156550694755,5909.967662182907
1.148,-0.4615012651561748,5905.224246636672
1.152,-0.41241268246235874,5892.492402954524
1.156,-0.3534590846235526,5902.180495981047
1.16,-0.28355425766671033,5902.621392209089
1.164,-0.20309411411928321,5897.446286858699
1.168,-0.11561991795765496,5906.105449050488
1.172,-0.02838561240885261,5903.507252262169
1.176,0.048545950877603376,5896.307312099868
1.18,0.10452088473126533,5905.007467308381
1.184,0.13097096243807738,5901.927253594629
1.188,0.12341279768308394,5898.9691317207535
1.192,0.08211291555061369,5906.6683485726535
1.196,0.011524655028507257,5903.147735581354
1.2,-0.0810111292105971,5900.344324427443
1.204,-0.18680163593742585,5903.496381788035
1.208,-0.2970815573276801,5906.114180932232
1.212,-0.40359488981736846,5901.810387687992
1.216,-0.4984497469591998,5894.3868838167655
1.22,-0.5738655029281584,5897.514935257887
1.224,-0.6226714929249798,5895.393789123298
1.228,-0.6398768784631187,5895.861479244229
1.232,-0.6247039892212418,5896.014206818119
1.236,-0.5818874445829324,5896.912284003288
1.24,-0.5212108926757446,5904.194512909325
1.244,-0.4550910479551318,5900.717526163229
1.248,-0.3950364539742287,5895.931345270031
1.252,-0.34840821489448004,5905.821343332535
1.256,-0.3167717817669406,5900.586520207041
1.26,-0.2963991582250867,5905.04160023584
1.264,-0.2805961181947265,5894.406627871303
1.268,-0.26288460186666057,5904.1721727903705
1.272,-0.23979575377579146,5900.739552794603
1.276,-0.21212087249365363,5891.909133995103
1.28,-0.18406269192123761,5905.749324568725
1.284,-0.16080272118762212,5901.347442688068
1.288,-0.14594308808433268,5898.45951165454
1.292,-0.14039272104282005,5892.297404546372
1.296,-0.14340262045259936,5900.31548649354
1.3,-0.15499046175511452,5900.466412546638
1.304,-0.17779639884187004,5902.680465717167
1.308,-0.2165545514141845,5899.815142546127
1.312,-0.275014615890134,5898.713520886746
1.316,-0.35210033006695396,5899.702960029814
1.32,-0.439900449615828,5905.430902029277
1.324,-0.5252081273552558,5904.795402728723
1.328,-0.5942516826463736,5903.566850695579
1.332,-0.6382527326473849,5907.687143932209
1.336,-0.6568572801427207,5897.986273427883
1.34,-0.6576860845596868,5902.5804083875455
1.344,-0.6523416864621098,5896.5452065817
1.348,-0.6509026877194104,5891.679253657998
1.352,-0.6574501327749764,5894.835337906569
1.356,-0.6684451600734691,5901.46619615027
1.36,-0.6743574864657217,5906.087291538622
1.364,-0.663623681140665,5908.21275708274
1.368,-0.6272640018991656,5904.053052791644
1.372,-0.5623080463081446,5894.379206761986
1.376,-0.4725366986414443,5896.090195369089
1.38,-0.3661114534785622,5895.964683328151
1.384,-0.25135868788198823,5895.233417273934
1.388,-0.13340069115879694,5900.470626614063
1.392,-0.014129867704459457,5904.450474224776
1.396,0.10416187781743821,5900.792614484075
1.4,0.21398998331035582,5905.779931419833
1.404,0.30054180486647525,5904.111912932321
1.408,0.34474751193812214,5901.568116270107
1.412,0.3308997636939321,5900.803949457256
1.416,0.2550557334122036,5901.355504312462
1.42,0.1294866961068524,5894.28466286692
1.424,-0.01966789667952038,5903.54252878648
1.428,-0.1607316043421762,5895.974778293201
1.432,-0.26686669638246685,5895.303271782212
1.436,-0.323813186643976,5898.963565114323
1.44,-0.33204184393379393,5904.617438003689
1.444,-0.3032196476099993,5907.016795239136
1.448,-0.2534276947744073,5892.646906733112
1.452,-0.19681837867931545,5901.080709455719
1.456,-0.1426745870395435,5910.2387154055
1.46,-0.09638771176519957,5904.715862615504
1.464,-0.062327227128233374,5901.873119372903
1.468,-0.0457338251675427,5893.467345867476
1.472,-0.05199317237050944,5897.501925951255
1.476,-0.08379421779373844,5909.90219731919
1.48,-0.1382497925182664,5900.080794929905
1.484,-0.2061771166505781,5906.139519805721
1.488,-0.27445666848272904,5890.696193676502
1.492,-0.3305918115242703,5902.131030428168
1.496,-0.3674091103241266,5898.210360471899
1.5,-0.3857992474982447,5902.651004569068
1.504,-0.39422528953424085,5899.1341500884655
1.508,-0.4049774710376453,5893.950269650141
1.512,-0.42856759725985394,5904.905217155835
1.516,-0.46872770309781037,5895.159417031571
1.52,-0.520374951758568,5897.035587819966
1.524,-0.571380288151606,5899.350334085032
1.528,-0.6070257984014942,5904.401231126764
1.532,-0.615011864238293,5901.122572807806
1.536,-0.5891874364943864,5894.508744057762
1.54,-0.5311786337414949,5902.452417114093
1.544,-0.44990889179121635,5899.361865977512
1.548,-0.3593195463587345,5900.962696732908
1.552,-0.274768804796845,5897.842436061061
1.556,-0.20894766642449206,5900.00129611672
1.56,-0.16850384064442758,5883.481645103634
1.564,-0.1525412738337998,5900.245697997029
1.568,-0.15366487196036432,5898.586257385941
1.572,-0.16135419965790193,5902.568106898265
1.576,-0.16638836466582047,5900.458426772844
1.58,-0.1643521985908101,5895.099299110158
1.584,-0.15661015634343947,5904.092704227074
1.588,-0.14851485767270983,5906.79325376671
1.592,-0.1460209091918545,5901.467982181083
1.596,-0.15238928209486458,5888.771410186399
1.6,-0.16639880786424965,5908.755970854345
1.604,-0.18290041962466932,5893.66351725386
1.608,-0.19561207521132049,5907.146126798978
1.612,-0.20079769773666092,5901.804913914213
1.616,-0.1997471939409457,5904.9066484517925
1.62,-0.19853815923546142,5897.43650714545
1.624,-0.20505077246949616,5896.421304556053
1.628,-0.22463406447523546,5904.50117104016
1.632,-0.25647591864284697,5897.917644683756
1.636,-0.29238082173913094,5903.238573125423
1.64,-0.3185537971155894,5892.383942055054
1.644,-0.3197416677564941,5902.185273403841
1.648,-0.2842189824910206,5893.56388680542
1.652,-0.2078115230619261,5894.024247862121
1.656,-0.09549082894920521,5899.532593720805
1.66,0.039938725225888816,5901.900308593597
1.664,0.18126795296636353,5898.504995103583
1.668,0.31085229071972753,5903.752543003721
1.672,0.4137754180361664,5902.659892055515
1.676,0.4797976099001702,5902.755275727915
1.68,0.5044881800598994,5900.264050085943
1.684,0.4899803812027505,5897.89524131543
1.688,0.4451594690903128,5896.664537684726
1.692,0.3845326151329157,5906.909201297615
1.696,0.3251361037471119,5901.426742067202
1.7,0.28164131140134724,5897.1380912005625
1.704,0.2610520910160761,5901.54909901206
1.708,0.25941636292547016,5907.860925687194
1.712,0.2627396944105944,5901.259040633341
1.716,0.2523924650256334,5906.511443380072
1.72,0.21289556085961703,5894.055920546638
1.724,0.13869458174031157,5902.669508504955
1.728,0.03708174807416046,5904.5769989009095
1.732,-0.07367004623467449,5902.650193889518
1.736,-0.16979827436841957,5894.109975700192
1.74,-0.2288869357111578,5904.770034632289
1.744,-0.23596594911565022,5898.74368062221
1.748,-0.18760136056504964,5906.497192874467
1.752,-0.09326849363399567,5901.977800696228
1.756,0.026461597837891395,5901.84029781525
1.76,0.14490066238125318,5897.525476617774
1.764,0.236272432620018,5908.292875553506
1.768,0.2825113843372492,5899.495468048394
1.772,0.2773473704535156,5895.692398576976
1.776,0.2263762279669931,5907.779338854297
1.78,0.1436531946897465,5898.230688676001
1.784,0.04666950764946166,5907.361805886543
1.788,-0.048277432063892574,5902.843508943457
1.792,-0.12916693138102545,5900.646282793563
1.796,-0.18969741627762643,5908.26241114652
1.8,-0.22952411939071649,5894.018875433618
