时间(s),电压(V),幅值(高频80K)
0.0,0.41500333404465684,5906.320311308679
0.004,0.3519109614384797,5901.072299156109
0.008,0.29803801903833954,5902.539346817506
0.012,0.26043537425315616,5910.55141489072
0.016,0.24129594572167357,5897.06016453022
0.02,0.236855608433674,5904.282657425312
0.024,0.23803880261703833,5910.287644196645
0.028,0.2329710838988158,5898.84883931079
0.032,0.21052587450697752,5896.463772340986
0.036,0.16361152947885022,5895.4855638320105
0.04,0.09129971138556905,5899.346715271516
0.044,-0.0004294760597391421,5895.765189256205
0.048,-0.09945089909321185,5899.632329407868
0.052,-0.19013434833512888,5907.980991168405
0.056,-0.2577048173644029,5898.820369177888
0.06,-0.2928254392388193,5901.965532663676
0.064,-0.29422463668375476,5898.299227976531
0.068,-0.26822303654436397,5906.082810762233
0.072,-0.22595092694863866,5892.233931621286
0.076,-0.18016774318303078,5894.086081193742
0.08,-0.14315652848501606,5895.859257339072
0.084,-0.1258812047686855,5895.230505421893
0.088,-0.13755650029474178,5898.694162976809
0.092,-0.1845830686993024,5906.4844252889225
0.096,-0.2685532856876481,5898.5352854875855
0.1,-0.3842600143439832,5899.41498893443
0.104,-0.5192790223360091,5900.617117710471
0.108,-0.656092240061297,5892.136911326077
0.112,-0.7763330570112643,5902.032010144065
0.116,-0.8655129630909504,5902.081311590143
0.12,-0.9162591986556773,5891.301792326793
0.124,-0.9288974672747513,5900.649526526343
0.128,-0.9096241889357608,5900.2384237925135
0.132,-0.8675442799878053,5894.492042560353
0.136,-0.8119441809718329,5897.577545886651
0.14,-0.7504999788105883,5900.434507565217
0.144,-0.6883279124210405,5902.126748831496
0.148,-0.6275294397449884,5906.301514114277
0.152,-0.5671761105395768,5905.381106192806
0.156,-0.5038600153475477,5909.034257482395
0.16,-0.4326718078494365,5902.822848846236
0.164,-0.3482746744665938,5901.065552035717
0.168,-0.24609486148804452,5901.338020796688
0.172,-0.12402955606909583,5901.29887764085
0.176,0.015398818160991739,5899.142429152214
0.18,0.16358962194622642,5896.136142357632
0.184,0.30659354656649773,5896.988715772352
0.188,0.428383267094141,5900.689027500755
0.192,0.5153686770182886,5903.443237104324
0.196,0.5601458198968965,5896.639825187243
0.2,0.5631009904852821,5903.252674112726
0.204,0.5316875147631146,5898.18476346592
0.208,0.478047947232265,5899.338224003205
0.212,0.41584646129932235,5901.820044760215
0.216,0.3569634710618862,5896.906893722213
0.22,0.3085851924035548,5905.496997401078
0.224,0.27138459817635713,5895.820518283804
0.228,0.23953053542276434,5908.4349964946005
0.232,0.20268147472145875,5890.031370397402
0.236,0.1491791380137792,5900.215414394694
0.24,0.0692334657643579,5903.327924903667
0.244,-0.04272967204978384,5901.540873354359
0.248,-0.1868044135785684,5902.368263892972
0.252,-0.35729920035566726,5897.142533003684
0.256,-0.5430414054311309,5901.903261002128
0.26,-0.728011665549178,5909.195361485044
0.264,-0.8925195274837417,5899.728247207026
0.268,-1.0155517475949114,5897.814356649023
0.272,-1.078586711680978,5898.236024866485
0.276,-1.0701424517898754,5900.511009381265
0.28,-0.9895068831499392,5900.133346497996
0.284,-0.8481954337799327,5893.217609380491
0.288,-0.6684481825821789,5899.93182122714
0.292,-0.47891908211507533,5905.157180522527
0.296,-0.3084732417766804,5900.556868903064
0.3,-0.1796832243821294,5900.874113594016
0.304,-0.10388162574287516,5901.713781849113
0.308,-0.07918275661745221,5898.044671416094
0.312,-0.09187794044576612,5899.599914284047
0.316,-0.12057274225165768,5899.257843509533
0.32,-0.14184132293670143,5901.319555803473
0.324,-0.136042511479765,5898.119594595476
0.328,-0.09205276285916156,5898.69060937082
0.332,-0.00996193576795946,5904.842784258912
0.336,0.09879526601585342,5892.811707883244
0.34,0.21399375853630448,5902.133486805949
0.344,0.31150433568141395,5899.050007101315
0.348,0.36941867858083355,5899.56052829914
0.352,0.3737081025070866,5887.593462422175
0.356,0.32183945207303205,5900.704114934564
0.36,0.22347089616718913,5897.912165287375
0.364,0.0980058466753731,5900.62535495655
0.368,-0.03061125167123972,5894.154762750077
0.372,-0.1405597731526703,5897.52100420946
0.376,-0.21802392543625287,5907.871028968394
0.38,-0.2599461277800584,5903.888108937987
0.384,-0.2725627869189806,5895.009024900439
0.388,-0.2667011905022115,5899.960479116279
0.392,-0.2523975159518152,5900.420831394492
0.396,-0.2354526437939707,5894.456273910915
0.4,-0.21717873621950845,5895.062156690839
0.404,-0.19680369103710102,5902.8764030841485
0.408,-0.17474050772051064,5906.075406222433
0.412,-0.15464619912447794,5898.071258740641
0.416,-0.14293998799022223,5897.641864096965
0.42,-0.145882804297607,5888.533891274335
0.424,-0.1657076562758237,5895.524570503887
0.428,-0.1978934846394437,5888.351504660617
0.432,-0.2312444066553706,5900.088370895782
0.436,-0.2511994238911282,5901.377630656641
0.44,-0.2452009444383742,5894.132348051175
0.444,-0.20771797482752724,5892.476845611578
0.448,-0.14251889959683767,5891.539670081322
0.452,-0.061247874561735235,5910.651392725993
0.456,0.020659745390341485,5896.46108839192
0.46,0.08858797051352366,5898.740226107224
0.464,0.13209284575884425,5898.067542352814
0.468,0.14634491280502673,5902.89836812625
0.472,0.13188666087582004,5899.129602413074
0.476,0.09323842905261111,5900.5764061706
0.48,0.037032586272677186,5903.041015726066
0.484,-0.029509054536932037,5902.119134670579
0.488,-0.09919976593187034,5899.049737663328
0.492,-0.16476761684937327,5911.071396621096
0.496,-0.21873144441716408,5901.326124132502
0.5,-0.254043010028602,5897.09133355284
0.504,-0.2657722153472467,5892.791050852609
0.508,-0.2532969657580642,5895.507062932183
0.512,-0.2216978039074899,5900.630601190325
0.516,-0.1810474064361066,5893.651310921578
0.52,-0.14338070009857304,5890.870755980172
0.524,-0.11858694597078778,5902.233284918056
0.528,-0.1110979876609604,5902.89298753002
0.532,-0.11871670969963517,5906.018323549062
0.536,-0.13378864971897228,5904.409082637168
0.54,-0.145907553538806,5901.50410406905
0.544,-0.14504323743004016,5899.865936167038
0.548,-0.12439415843297506,5890.471655073931
0.552,-0.082627045660698,5899.436238278505
0.556,-0.02493927722302528,5900.299429833555
0.56,0.037810921635499165,5901.9194436063535
0.5640000000000001,0.09202546018552454,5896.217491298497
0.5680000000000001,0.12536711408407175,5899.839928410593
0.5720000000000001,0.13030132958924584,5902.869450728358
0.5760000000000001,0.1059120490536262,5900.735441726855
0.58,0.05749225103054033,5893.421197466619
0.584,-0.00566994791327295,5897.843245783875
0.588,-0.07313546831674923,5901.03261425386
0.592,-0.13548858789976218,5900.162810013046
0.596,-0.1851996428518129,5892.455128429663
0.6,-0.21646323940475315,5899.382104482519
0.604,-0.22484291035466691,5889.533161224159
0.608,-0.20752365636959286,5902.924636609486
0.612,-0.16450754439369936,5903.688141779109
0.616,-0.10037677468957504,5901.612739815564
0.62,-0.025600704552793924,5901.090859520222
0.624,0.04384581790872805,5900.3648631841925
0.628,0.08932890955839444,5897.6582737447625
0.632,0.09459470387110067,5893.847944882353
0.636,0.0515277793763608,5903.582939477155
0.64,-0.03559842444436949,5905.059583037105
0.644,-0.1495007514839616,5896.877536222415
0.648,-0.26388922158607425,5899.791350201059
0.652,-0.35114475012633506,5899.7893806048205
0.656,-0.39082947518328376,5894.431648244072
0.66,-0.3755264166376751,5897.907845433228
0.664,-0.31164275413496906,5904.072988386424
0.668,-0.21520284478136123,5903.810775354981
0.672,-0.1049737399780035,5905.954488687937
0.676,0.003777781183677139,5906.012750569303
0.68,0.10240419133303673,5892.885558404611
0.684,0.18823148118939903,5900.67787421513
0.6880000000000001,0.2612292169671212,5895.766432738617
0.6920000000000001,0.31994554253991425,5909.477785456887
0.6960000000000001,0.35861174953309116,5893.88951341988
0.7000000000000001,0.3666547787635227,5897.147449860465
0.704,0.33095925268280707,5888.982213538592
0.708,0.2402711326684949,5903.829130718101
0.712,0.09014026815205071,5901.039487792004
0.716,-0.11374639689533812,5902.962913203463
0.72,-0.3553034636352971,5904.058732541367
0.724,-0.6106562306474707,5895.343116671368
0.728,-0.8521864532117281,5897.1626927421385
0.732,-1.052709404352105,5902.132522566935
0.736,-1.1894048799444545,5901.81641502933
0.74,-1.2476371806568503,5904.15770945184
0.744,-1.2243514450366015,5893.667053200321
0.748,-1.1298199548892254,5899.931120874877
0.752,-0.986188179049192,5897.513573267626
0.756,-0.8223405460765842,5899.961948925231
0.76,-0.6666623754608609,5889.884307615718
0.764,-0.540655667550663,5896.812616175991
0.768,-0.4557947532254461,5905.533318551284
0.772,-0.4140232763008133,5901.084433920234
0.776,-0.41053118461727234,5902.34268659592
0.78,-0.43693479399378,5888.868960064045
0.784,-0.4835428164700301,5901.638882753327
0.788,-0.5403270326235606,5888.802298426962
0.792,-0.5970100868322749,5902.204822435434
0.796,-0.6430650158720596,5888.148083168783
0.8,-0.6682928418259776,5898.357531346564
0.804,-0.6641613746887791,5902.060306696323
0.808,-0.6255309914745867,5897.925814366076
0.812,-0.5519970167396318,5902.279066608295
0.8160000000000001,-0.4480407896067771,5897.566675360646
0.8200000000000001,-0.321581703712896,5900.051184537751
0.8240000000000001,-0.18131361438890353,5903.989831960893
0.8280000000000001,-0.03418759963727501,5905.223203039363
0.8320000000000001,0.11515684065392032,5901.34525550977
0.836,0.2622157979955772,5908.802119266582
0.84,0.3990272288892691,5902.60668463836
0.844,0.5119411644325635,5898.348709086613
0.848,0.5829716311231086,5902.037775182347
0.852,0.5948099362104082,5911.9496901001385
0.856,0.5373722738492821,5893.251150975329
0.86,0.41280582546191574,5899.023969502659
0.864,0.23665278505477078,5903.421106744166
0.868,0.0347394169188358,5897.617238808602
0.872,-0.16284304857876528,5908.7240612412925
0.876,-0.3283543265776025,5911.815944521391
0.88,-0.44150390346542673,5891.77038903597
0.884,-0.4921075457069288,5895.244373726075
0.888,-0.4806739215821553,5899.506967498687
0.892,-0.4176527961124263,5899.574331580378
0.896,-0.321516417969329,5902.237769756415
0.9,-0.2153695568208115,5902.2410269584425
0.904,-0.12212547002661099,5893.13329364108
0.908,-0.05923532980585183,5896.832805685364
0.912,-0.03463898186192598,5890.114814004768
0.916,-0.045300812691089196,5900.091941769343
0.92,-0.07862599984844663,5905.668523139253
0.924,-0.1161186336197336,5895.485175117028
0.928,-0.13835492341865255,5895.638981573554
0.932,-0.13034178029591997,5898.323137882258
0.936,-0.0860890875112816,5901.125199734851
0.94,-0.010954706929109876,5905.197635944962
0.944,0.07925686958610659,5901.149605291932
0.948,0.16223231509918767,5900.380077432907
0.952,0.21474866883741248,5902.841246050362
0.956,0.21829498954000054,5901.128531585219
0.96,0.1635147988391656,5900.599068172865
0.964,0.05273191451521562,5892.432571841568
0.968,-0.09979795170961722,5905.145799884737
0.972,-0.26984640922036385,5907.531647117287
0.976,-0.42712216044859447,5903.676384521375
0.98,-0.5409388544977513,5888.947177678755
0.984,-0.5871258871977918,5895.519577438438
0.988,-0.554628997702746,5904.73928717092
0.992,-0.4493762754671287,5900.301693445642
0.996,-0.29346206085991694,5895.760667430389
1.0,-0.11954578606101222,5901.084419393425
1.004,0.037653967561582194,5898.429186303488
1.008,0.1499965094422608,5902.500594865123
1.012,0.20224661263861166,5903.193723272167
1.016,0.1945041511253925,5901.002212832534
1.02,0.14008974064101226,5897.304081408399
1.024,0.05948897886748874,5908.172241352415
1.028,-0.027485263278348968,5904.79525555913
1.032,-0.10815772392811132,5898.493908540338
1.036,-0.17949299830518137,5902.499218000401
1.04,-0.24604136987769737,5899.678518949049
1.044,-0.3148975246501944,5892.33906878431
1.048,-0.39033614687557205,5902.20206451021
1.052,-0.4704418616992841,5888.049251956063
1.056,-0.5467774189701748,5903.1808845026535
1.06,-0.6068609142116772,5904.503170021552
1.064,-0.6385137720727845,5906.994454093528
1.068,-0.634784218427821,5894.02649676645
1.072,-0.597762300545772,5904.908038308034
1.076,-0.5394869608953062,5900.831501575579
1.08,-0.4790022239517052,5899.947279668662
1.084,-0.4364074953992123,5899.965317272502
1.088,-0.42641119126714694,5904.142081238628
1.092,-0.45425716612063827,5906.341801623138
1.096,-0.5155941365395228,5901.509329761268
1.1,-0.5996786964933628,5891.981233862058
1.104,-0.6936445836142201,5892.493624692764
1.108,-0.7854434415577514,5892.629310713221
1.112,-0.8644247804310464,5895.649218846392
1.116,-0.9203771977922569,5898.247145364962
1.12,-0.9428794031456464,5898.781002466307
1.124,-0.9223424561791627,5904.008377994243
1.128,-0.852749881332767,5897.036053780466
1.132,-0.7349745554325839,5897.999508840897
1.136,-0.5791726591816366,5898.097312797851
1.14,-0.40493665129429657,5904.320559532325
1.144,-0.2385505055943955,5895.985387579251
1.148,-0.10779458522103229,5898.0942218326645
1.152,-0.03580113982069752,5898.623464812662
1.156,-0.03587233467117249,5901.422536443845
1.16,-0.10877364359624082,5906.67629742742
1.164,-0.243019278900384,5902.918351936957
1.168,-0.41757863202972456,5899.84029782884
1.172,-0.6058700428478837,5897.602612661412
1.176,-0.7800569411080933,5899.715128748985
1.18,-0.9150917948749044,5897.656780691016
1.184,-0.9921917645520069,5899.870649144476
1.188,-1.0014585283919486,5897.951482369988
1.192,-0.9433683800787774,5896.351422457363
1.196,-0.828842174320652,5900.389715709554
1.2,-0.677500364305267,5899.235023089388
1.204,-0.5138386003773876,5900.3345088861
1.208,-0.36180686337881457,5899.170233596462
1.212,-0.23928326996642243,5898.8919825601415
1.216,-0.15432858709441905,5887.409699076939
1.22,-0.10453810088169972,5901.7344113596055
1.224,-0.07962845779625456,5899.733991132063
1.228,-0.06614774181971408,5896.528522775141
1.232,-0.052386623643994046,5908.032040422002
1.236,-0.03156029973904753,5908.161953458848
1.24,-0.002181241424473636,5900.725178715799
1.244,0.03403212727294718,5908.165818684255
1.248,0.07502197959806405,5909.586136026701
1.252,0.11994571625205702,5899.800113986222
1.256,0.1683331719012107,5905.885328490407
1.26,0.21760499542319175,5893.339349251595
1.264,0.26104991430893887,5903.043430101439
1.268,0.28815328558262493,5895.672832899778
1.272,0.2875952781583404,5907.740193811865
1.276,0.25150240743501184,5897.068146947772
1.28,0.1788853975577964,5903.491900816852
1.284,0.07690810403298566,5901.400215909027
1.288,-0.040146812903034776,5905.498669213888
1.292,-0.15359371283484613,5895.011122229065
1.296,-0.24395926983615043,5900.68650721759
1.3,-0.29477232675561804,5903.555748985335
1.304,-0.29588938190461694,5906.119725880957
1.308,-0.24580479095990238,5896.98127174166
1.312,-0.15244777789041086,5906.430968949715
1.316,-0.0320612498494446,5899.0344369038685
1.32,0.09388256207257459,5897.011261025959
1.324,0.20304738907082803,5899.143516383574
1.328,0.2765446496155798,5894.380996544277
1.332,0.30201123331536894,5903.086850099755
1.336,0.2751805143118105,5902.885452708616
1.34,0.20030147952935232,5892.1859961400205
1.344,0.0895080632141263,5903.837455397406
1.348,-0.03920727362335635,5903.020847372582
1.352,-0.16551611492348028,5907.027998505117
1.356,-0.27106937308668244,5902.364519730761
1.36,-0.34336271176497263,5905.391779915468
1.364,-0.378057585788042,5897.835255286847
1.368,-0.3792234607157964,5903.729056739836
1.372,-0.35753936016517057,5896.053098127264
1.376,-0.3269674065482448,5902.214400001657
1.38,-0.3008126056196955,5900.677106051373
1.384,-0.2883449476948342,5892.680811826041
1.388,-0.2931027786752601,5895.751954037204
1.392,-0.31344284351248014,5901.368762748967
1.396,-0.3449145289429997,5901.081869901594
1.4,-0.38307894351847,5901.010563183853
1.404,-0.4251255053443147,5892.492935783434
1.408,-0.4694097421010137,5891.22368637359
1.412,-0.5134679823288704,5903.469173176925
1.416,-0.5521545167932916,5905.136895091912
1.42,-0.5774730636888765,5903.121030545881
1.424,-0.5805672128034873,5899.084120180691
1.428,-0.5550526275327752,5897.0125820544
1.432,-0.5001665415268393,5902.930345486921
1.436,-0.42232267892926795,5896.646772006198
1.44,-0.3344135873806244,5903.729783063667
1.444,-0.2531149972650368,5913.818233150748
1.448,-0.19501440314595958,5896.14466099422
1.452,-0.17249724902707628,5895.74531448854
1.456,-0.1902934144605246,5893.055995718018
1.46,-0.24363075718335597,5898.943786618436
1.464,-0.31874929243610206,5892.596932102967
1.468,-0.3957824721079217,5905.021131424602
1.472,-0.45318948600525744,5893.56696529384
1.476,-0.47272929963990207,5899.051766110095
1.48,-0.44416114892936365,5909.397376115577
1.484,-0.36869468476147255,5901.06076778633
1.488,-0.2598292037597833,5899.104647136198
1.492,-0.14052468946899033,5893.113766048023
1.496,-0.03698800483194864,5907.195383629842
1.5,0.028996416037589883,5903.121752726918
1.504,0.046424049784891154,5889.293839639756
1.508,0.017870168817470288,5900.298896435619
1.512,-0.04204183817406168,5899.101441096449
1.516,-0.11170123609700909,5896.907370664076
1.52,-0.16916351146137285,5893.608059006478
1.524,-0.19809890313139572,5908.563408971123
1.528,-0.19139181436284686,5897.537304164487
1.532,-0.15200599602148643,5909.787461173036
1.536,-0.0915856777122499,5894.733274203697
1.54,-0.0272848318023511,5899.128557088382
1.544,0.022816054430741563,5907.980213702479
1.548,0.044872755308159394,5899.634325691107
1.552,0.033389833217616925,5891.384469855958
1.556,-0.00743271801248392,5905.545217375508
1.56,-0.06570661036561179,5891.458818067929
1.564,-0.12615864857183642,5905.89599009012
1.568,-0.17474942913226135,5899.8386968716
1.572,-0.20199771920654291,5905.465224829844
1.576,-0.2044454458729643,5907.375815690085
1.58,-0.18439296754015277,5904.797826205987
1.584,-0.14819007976106233,5904.267914022311
1.588,-0.10359648940069399,5905.183299884033
1.592,-0.05722063106094912,5894.641328267115
1.596,-0.013188759736657995,5908.921977273389
1.6,0.02646889465109464,5897.537800511537
1.604,0.06030265386008164,5900.441104410484
1.608,0.08607462302407581,5904.774763365341
1.612,0.1006416096327543,5891.292997877421
1.616,0.1012683389243835,5904.771369441852
1.62,0.08748102709851553,5898.291185069704
1.624,0.06213248151662984,5894.246915223987
1.628,0.030856665778949317,5905.760925334292
1.632,0.0001685598602821598,5898.687556607795
1.636,-0.024621169718289676,5903.924933217997
1.64,-0.04047981749658992,5896.191914512497
1.644,-0.04647456925953416,5899.531774259833
1.648,-0.043059494840906716,5905.4060476242985
1.652,-0.031519957430965514,5891.365030917463
1.656,-0.01365460003899021,5899.6724938216585
1.66,0.008466018339537688,5896.133284127587
1.664,0.03264613873702997,5898.025627652919
1.668,0.056470802072224276,5892.997511028645
1.672,0.07685371421887463,5900.897800152083
1.676,0.08931266631323645,5908.290531123472
1.68,0.08751321661139833,5900.370712382443
1.684,0.06394556611757313,5896.54643835522
1.688,0.012198492694543879,5891.67169846036
1.692,-0.06975481564612698,5896.281180978043
1.696,-0.1767822138848966,5903.370007012178
1.7,-0.29598382594893674,5898.595587003388
1.704,-0.40904017397250475,5898.0307524185855
1.708,-0.49684434472255123,5908.717100908766
1.712,-0.5445417171491282,5899.571347915488
1.716,-0.5449375624474532,5910.573667202007
1.72,-0.4991563098505485,5907.736349705032
1.724,-0.4147984136359117,5906.872823395522
1.728,-0.30290772965368606,5901.000540052357
1.732,-0.1754058386368228,5896.05999613748
1.736,-0.044141185506788805,5899.690044300004
1.74,0.07848530421141964,5899.901675115551
1.744,0.17857989576095978,5903.792246458631
1.748,0.24113230751517972,5899.405556615173
1.752,0.2525374338436541,5894.750543693739
1.756,0.2047309681629293,5905.480787249479
1.76,0.09932253173453127,5907.010454946956
1.764,-0.05022246461241145,5890.669949833847
1.768,-0.21964093848395022,5902.877464553199
1.772,-0.37803103780472863,5903.475172182454
1.776,-0.49376746329062704,5898.819765027792
1.78,-0.540658824058529,5901.585341566553
1.784,-0.5032740504789524,5903.937887034474
1.788,-0.3805521455026127,5898.282457877811
1.792,-0.1867784084007587,5900.625966804686
1.796,0.05064844020451792,5900.100824439095
