时间(s),电压(V),幅值(高频80K)
0.0,-1.4275237421480058,5899.873020638959
0.004,-1.2406418723079111,5898.772697216352
0.008,-1.0415248408865452,5908.184709252669
0.012,-0.8153044552186884,5899.510863430942
0.016,-0.5505502801224725,5904.3223725401085
0.02,-0.24428280323432996,5894.085325055358
0.024,0.09396654981648475,5906.469933277629
0.028,0.4417850364915039,5899.672069167683
0.032,0.7677307080893063,5901.684620022135
0.036,1.0376803459176491,5898.795729249463
0.04,1.2213286567088535,5900.535158626062
0.044,1.2973813029952728,5901.281404481503
0.048,1.2569854755679746,5913.403851469967
0.052,1.1052100200361923,5900.518108616214
0.056,0.8603460870393278,5904.794951991259
0.06,0.5511222654536335,5909.333025250379
0.064,0.21250720742369844,5897.555680858968
0.068,-0.11902755345968051,5898.602586305406
0.072,-0.41025916672110996,5896.5141944819015
0.076,-0.6357058209292672,5895.259993174163
0.08,-0.7812193993473822,5900.939650032635
0.084,-0.845563265820367,5898.531264766395
0.088,-0.83914635390948,5905.2589506699605
0.092,-0.7800576044921049,5895.289534641641
0.096,-0.6884090834925287,5902.495366257743
0.1,-0.5804786392322461,5898.765552610486
0.104,-0.4645335513388269,5896.800885652151
0.108,-0.34026863886312714,5897.433763286777
0.112,-0.20264630940838613,5898.656033208529
0.116,-0.048567977553316266,5901.219630748471
0.12,0.11715211513855031,5902.164864936877
0.124,0.27980056242945,5894.765574782654
0.128,0.4176455684620069,5898.477777504431
0.132,0.5079013234646556,5914.139254021983
0.136,0.532987659431578,5888.171938840238
0.14,0.4851711293710905,5903.807150000214
0.144,0.36907698321620014,5895.020646755701
0.148,0.20205066086116522,5901.103601866656
0.152,0.011837535810117181,5898.343782459883
0.156,-0.16905237770440465,5891.537605610308
0.16,-0.31148456657094936,5902.803965470636
0.164,-0.3975398451766219,5894.757150223903
0.168,-0.42486129706695325,5894.792162685631
0.172,-0.4060637984214758,5900.733521271864
0.176,-0.3640731195347694,5896.229255729047
0.18,-0.32557843770318595,5895.638557017825
0.184,-0.3147721285154946,5888.260482049442
0.188,-0.34867728069104753,5907.201794985668
0.192,-0.4343869855798937,5892.646774933718
0.196,-0.5680244787763233,5901.747141049966
0.2,-0.7351503961045757,5898.710293660698
0.204,-0.9124694378874758,5897.59124175344
0.208,-1.070910014181748,5907.220832252365
0.212,-1.180135435426337,5905.203150030079
0.216,-1.214029605711306,5907.650712461472
0.22,-1.1560966262548096,5896.534913608091
0.224,-1.0035865731909757,5891.999369602027
0.228,-0.7694248197783293,5887.303618203709
0.232,-0.48129009442165344,5896.913974105912
0.236,-0.17744668510578573,5900.154811789879
0.24,0.1004655354409474,5904.195473377442
0.244,0.31634968327176316,5908.179217326818
0.248,0.44775100367375453,5900.92892469673
0.252,0.49034562116993813,5903.143435991226
0.256,0.45724545066609973,5896.541125412551
0.26,0.3736627124673811,5898.377261784106
0.264,0.26922812347929564,5905.675401093748
0.268,0.17069953991785417,5899.2209250141495
0.272,0.09699256399944119,5895.295752618549
0.276,0.05722167196412346,5904.571229667769
0.28,0.05143657067506815,5903.3264783853165
0.284,0.07314105480250312,5893.33192976786
0.288,0.11248535710798205,5907.129091017584
0.292,0.1592005905741399,5893.923937323997
0.296,0.20466957335298522,5899.007067332908
0.3,0.24275928056595797,5902.0010790434135
0.304,0.26932474369595505,5899.064621060019
0.308,0.2808962596005187,5892.436059767781
0.312,0.273671494078689,5905.9730388057405
0.316,0.24389191027687723,5900.082727702742
0.32,0.1898400457516582,5897.2704123250605
0.324,0.11452226903524555,5902.08081696216
0.328,0.0272769042313583,5901.0218020864
0.332,-0.05727952722996655,5898.139892778717
0.336,-0.12319304591228179,5899.530653778794
0.34,-0.15843874532719682,5891.527513139567
0.344,-0.15906594020882225,5894.668526190905
0.348,-0.13043750378335955,5902.135745578912
0.352,-0.08528067066145888,5905.601567120027
0.356,-0.03938880985940959,5911.709844572718
0.36,-0.006230873644715214,5907.787696940516
0.364,0.007962670986892113,5902.2492003663365
0.368,0.006719656411141152,5896.904757297357
0.372,0.0019694578739911216,5908.063488108757
0.376,0.008934573768160606,5900.724405776289
0.38,0.03919554872167611,5903.041384198163
0.384,0.09467983437524757,5906.157691434713
0.388,0.1649719914197725,5897.151016929838
0.392,0.22915388682460155,5905.0138983137485
0.396,0.2618127157997377,5896.331349298763
0.4,0.24148454953888793,5891.920300012081
0.404,0.15892191761627059,5896.093328211032
0.408,0.022180099474286053,5899.795025135646
0.412,-0.1439908781043989,5892.223143576341
0.416,-0.3050663248765198,5902.940195200907
0.42,-0.42778762383362173,5899.8131334222135
0.424,-0.4909326345234868,5903.99912644218
0.428,-0.491253263368234,5906.386952611551
0.432,-0.4421681318742073,5901.3988025871
0.436,-0.3661869924951536,5901.130145219542
0.44,-0.2848475595457808,5901.171598764049
0.444,-0.2107698673805273,5897.936390690834
0.448,-0.14502696866854867,5894.394615873702
0.452,-0.08021096127908997,5897.549251577151
0.456,-0.0068938506468568285,5898.573905803758
0.46,0.07984452176367535,5902.731652143892
0.464,0.17632804780040998,5900.623880828748
0.468,0.2696936887803958,5893.768524919992
0.472,0.3408195495206206,5894.146367479779
0.476,0.37002223838208487,5903.31319275108
0.48,0.3438683222161373,5906.662665760355
0.484,0.260803333928927,5894.572123912481
0.488,0.1335675943316215,5899.7467566202895
0.492,-0.012632642380722358,5901.882184095849
0.496,-0.14610041934814755,5910.558610929058
0.5,-0.23747576567520867,5902.809177782621
0.504,-0.2688468079206817,5901.974699577194
0.508,-0.2399475683184923,5898.308779696465
0.512,-0.16896507592453763,5903.502119798061
0.516,-0.08725893300099906,5904.823630363464
0.52,-0.02938386794861206,5902.350239850126
0.524,-0.021614769651892754,5900.891108096408
0.528,-0.07305520005939335,5902.100729818787
0.532,-0.17268769816111354,5907.914782244281
0.536,-0.2934370929647972,5904.945704061961
0.54,-0.40155299031059327,5898.537005790334
0.544,-0.46775951122416604,5909.653739581736
0.548,-0.476366414652967,5895.143293222989
0.552,-0.42967235659294084,5909.307908423749
0.556,-0.34679951704434936,5895.998991160113
0.56,-0.2578133772550272,5895.117010223922
0.5640000000000001,-0.19512642537049996,5908.37669969738
0.5680000000000001,-0.1846991426318324,5896.63331699636
0.5720000000000001,-0.23952268482355984,5905.714259667907
0.5760000000000001,-0.3571741048583327,5902.169620001287
0.58,-0.5217593349992081,5901.956764122693
0.584,-0.7088327814750722,5896.71432553843
0.588,-0.8910617112642799,5900.208089997405
0.592,-1.04307361979931,5896.189744482718
0.596,-1.1451757045451332,5897.667171414603
0.6,-1.1860851305775892,5899.997674955815
0.604,-1.1643458724829914,5896.779000724055
0.608,-1.0878236132302348,5903.694445585756
0.612,-0.9712738711459519,5906.084715970309
0.616,-0.8329535362616717,5900.81709859247
0.62,-0.6915831902944627,5898.460425033494
0.624,-0.5643777792710611,5896.79673456867
0.628,-0.46596012555874317,5901.791843159935
0.632,-0.4074614077326056,5897.339757183701
0.636,-0.39528046838849834,5897.687259772311
0.64,-0.4296585582998136,5891.201355658146
0.644,-0.5038213564607162,5898.860066492882
0.648,-0.6043582598645635,5896.931740809603
0.652,-0.7129110422886813,5898.642058602747
0.656,-0.8088084463426541,5902.68762443935
0.66,-0.8722481400170015,5893.38119502585
0.664,-0.8875808260062404,5890.133571285139
0.668,-0.8459161860497156,5898.143285940307
0.672,-0.7460940461343449,5901.742801371394
0.676,-0.5936204806125902,5899.672718616088
0.68,-0.3982316825987527,5903.19884288902
0.684,-0.17154648733896463,5890.053980367924
0.6880000000000001,0.07378328657258058,5896.778650193863
0.6920000000000001,0.32311373577357927,5899.299034983243
0.6960000000000001,0.5582900393448202,5905.340138278928
0.7000000000000001,0.7574774731294375,5900.944312260065
0.704,0.8973674178826442,5900.081866278844
0.708,0.9573261959736173,5900.991584000488
0.712,0.9242514124118479,5901.665194026308
0.716,0.7968516261543107,5901.347782681713
0.72,0.5882432600487294,5902.644880616439
0.724,0.32596748574108436,5898.23851647029
0.728,0.048853811622935915,5901.546953013838
0.732,-0.1993110256397472,5899.235590196719
0.736,-0.3784099056289709,5907.336538564436
0.74,-0.46078667479700386,5904.685175956877
0.744,-0.4374783632523241,5912.835692414114
0.748,-0.3200159362221426,5903.681552670202
0.752,-0.1376770867577303,5903.935680041857
0.756,0.06857067150761051,5895.340923424411
0.76,0.2538633243016096,5904.625305931805
0.764,0.377622456721728,5895.711915162638
0.768,0.4108600816798654,5894.2138684669935
0.772,0.3412639216249681,5904.479567872921
0.776,0.17503113630676842,5894.549715144197
0.78,-0.06476163939337923,5896.56212176458
0.784,-0.34264777352666,5894.585769893458
0.788,-0.6170639390403092,5899.87879753403
0.792,-0.8472399827249658,5896.120818254523
0.796,-0.9995723973528622,5905.890835416123
0.8,-1.0526954175651255,5898.327486903295
0.804,-1.0007956571955294,5898.115194817649
0.808,-0.854807408094017,5898.584928476928
0.812,-0.6410670092627052,5893.899931321791
0.8160000000000001,-0.3971627930873128,5893.775507161187
0.8200000000000001,-0.16534314705407196,5904.497426554015
0.8240000000000001,0.015274254550409698,5903.219658416662
0.8280000000000001,0.1159260551605261,5893.320799042969
0.8320000000000001,0.1232964182133541,5887.727494179555
0.836,0.0415212771763226,5896.225041394593
0.84,-0.10929498543298609,5901.349862690191
0.844,-0.29783434838012596,5898.885714314517
0.848,-0.4884756060951355,5895.9615635912105
0.852,-0.6484352444412536,5909.542007159458
0.856,-0.7532645403411642,5899.012576457605
0.86,-0.7899261094385384,5906.260264691257
0.864,-0.7578925551285532,5906.409345761331
0.868,-0.6688624776368672,5906.951615606416
0.872,-0.5447886585633417,5889.879137337418
0.876,-0.41330041262301753,5902.619483846537
0.88,-0.30042939812787384,5898.579225227916
0.884,-0.22252838946605522,5904.203176802209
0.888,-0.1808742498214478,5887.914460636587
0.892,-0.16207419200102458,5902.030744061117
0.896,-0.14479089483438554,5895.342381079931
0.9,-0.1100497033996847,5901.35210219425
0.904,-0.050586626861362796,5898.790831332188
0.908,0.024850597443079082,5900.625665913358
0.912,0.09422046318024278,5901.790402896323
0.916,0.13108776456015545,5901.99677176828
0.92,0.11628082391551423,5894.39839685496
0.924,0.047465471277768796,5890.693263537205
0.928,-0.0576907489765689,5897.440321694634
0.932,-0.16655811670776413,5899.002042048173
0.936,-0.2429324985790869,5894.586095732575
0.94,-0.2599673475698465,5898.0903911325095
0.944,-0.20939703247671054,5892.248927797468
0.948,-0.10402918002414993,5907.498817131867
0.952,0.026414080321137477,5896.352351887343
0.956,0.14396286827102087,5892.740576341391
0.96,0.21272733726502077,5901.877667006041
0.964,0.20809415247084584,5896.281816221765
0.968,0.12256283944582855,5902.814324966849
0.972,-0.03294648848113433,5901.2227738980255
0.976,-0.23224477178219358,5902.150440875211
0.98,-0.4404441788071923,5896.124062627174
0.984,-0.6223487769657933,5894.448909451878
0.988,-0.7507732012627919,5903.305942105043
0.992,-0.8127823154047561,5906.1640311037145
0.996,-0.8121704107969184,5896.320652423406
1.0,-0.7675273325646953,5894.284972712045
1.004,-0.7066224584921293,5900.421819393722
1.008,-0.6588218352455982,5896.904729533945
1.012,-0.6475382130421544,5904.373676339015
1.016,-0.6845505878516402,5898.821993227578
1.02,-0.7675832233940798,5892.689827059945
1.024,-0.8816930379434261,5901.13266317679
1.028,-1.0037696754543697,5913.161392349308
1.032,-1.1082724113503766,5892.079233775089
1.036,-1.1720874152061411,5897.651928079386
1.04,-1.1774725919308227,5905.298234679406
1.044,-1.1135711100079755,5906.274223620959
1.048,-0.9776151027221235,5899.737169905377
1.052,-0.7764436621716537,5898.6338524965695
1.056,-0.5279078146648002,5897.370450741487
1.06,-0.2606548854115987,5907.23973417312
1.064,-0.010372707050198795,5901.524167240577
1.068,0.1881683908679511,5906.429283908399
1.072,0.31105932022796684,5893.8214266850655
1.076,0.3525358335065863,5898.598488416226
1.08,0.3254651543536486,5902.589213716912
1.084,0.2544816045175369,5905.3719862868775
1.088,0.16530202650668255,5902.908935213204
1.092,0.07559609034802624,5901.723747332983
1.096,-0.008468522580092397,5898.944137641183
1.1,-0.08925867057699095,5897.401464882404
1.104,-0.1709640934626581,5904.197828834435
1.108,-0.253244186942467,5902.163862259965
1.112,-0.32821713629895766,5902.737826498055
1.116,-0.38142874147536715,5903.717865803655
1.12,-0.39562284320961116,5890.618295610258
1.124,-0.35560351421312403,5899.754288722588
1.128,-0.2528512045124053,5900.090786673399
1.132,-0.08908142369079192,5900.455702729964
1.136,0.1218184095032668,5901.280152553334
1.14,0.3540298778604462,5904.896619144844
1.144,0.572710660545658,5895.15760045895
1.148,0.7395744334131914,5898.299378354577
1.152,0.8201272392618493,5894.250565811741
1.156,0.7905689937679261,5905.03691773366
1.16,0.6424486861545656,5893.646702017053
1.164,0.3843753415466914,5898.266457047217
1.168,0.04122593496722403,5894.228794573605
1.172,-0.3485592376790519,5903.610672318254
1.176,-0.7373608959236682,5892.917416835266
1.18,-1.074244380967311,5894.328126479121
1.184,-1.3118271900410414,5903.947753978185
1.188,-1.4134988306295657,5902.595909986786
1.192,-1.3602318714331034,5900.322934755926
1.196,-1.1558974829944682,5893.447098423172
1.2,-0.8295220831338634,5902.502332949185
1.204,-0.4328202633339664,5909.744583841879
1.208,-0.03216026147963364,5892.571790496947
1.212,0.30410625349301784,5889.035183474361
1.216,0.519973202717518,5902.762351781081
1.22,0.5836047615850336,5896.903466387278
1.224,0.49304648157547076,5893.484824740467
1.228,0.2744037103769379,5897.745800754971
1.232,-0.026294138119349476,5903.167319627296
1.236,-0.3546102012844816,5905.515250348235
1.24,-0.6593304081557603,5900.862026825737
1.244,-0.9015465287144416,5907.579231122088
1.248,-1.0595814030046429,5911.823150619703
1.252,-1.129365951781286,5901.815829135308
1.256,-1.1210210723410101,5901.481384424897
1.26,-1.0533305290878139,5907.657233292285
1.264,-0.9483374378510603,5905.099055818735
1.268,-0.8278789031955509,5905.510463431064
1.272,-0.7122201060725166,5893.782782750024
1.276,-0.6191949238089924,5900.990548671824
1.28,-0.5621655038578313,5895.448825550409
1.284,-0.5468854456557029,5906.282656675865
1.288,-0.5691526432320222,5902.5322348658665
1.292,-0.6151929240082752,5895.02174934358
1.296,-0.6651782018961744,5900.812537844168
1.3,-0.6985720220144894,5908.228184567495
1.304,-0.6991652582167357,5902.265210180383
1.308,-0.6580206960878598,5890.057781769766
1.312,-0.5738530025524775,5899.369142678896
1.316,-0.4516993556528218,5902.20673171795
1.32,-0.30102003986289855,5907.535216329175
1.324,-0.1337083342828645,5901.549251369414
1.328,0.03799907457494997,5906.723266542504
1.332,0.20353193315719822,5906.45280067115
1.336,0.35538747854105884,5898.549380443774
1.34,0.48933998293145764,5901.472762208921
1.344,0.6031731831593998,5903.27085119796
1.348,0.6943359104890962,5895.527583873244
1.352,0.7577597988572914,5891.643640554155
1.356,0.785300761009089,5892.521520001323
1.36,0.7673793218059153,5897.772622633609
1.364,0.6960506413070091,5898.341518623117
1.368,0.5681276464030725,5901.362949471179
1.372,0.38735864687786914,5898.601761725715
1.376,0.16516448437968037,5908.54000980667
1.38,-0.08042377940605995,5889.1807474895895
1.384,-0.3276869731706769,5898.475971293487
1.388,-0.5552622737104314,5906.883037348616
1.392,-0.7459655271590778,5894.506471433153
1.396,-0.889307722552544,5909.808493188642
1.4,-0.9823778727109234,5902.119508861583
1.404,-1.0292756100856726,5910.356106724841
1.408,-1.03944845867337,5902.618842415883
1.412,-1.0253525891761421,5902.256670299104
1.416,-0.9997553105351621,5895.63816543769
1.42,-0.9727819929789363,5897.345843217339
1.424,-0.9489806513549766,5901.534112925538
1.428,-0.9254591482962979,5910.03898251737
1.432,-0.8927729993974617,5904.356284860009
1.436,-0.8394678828918892,5894.166398288605
1.44,-0.7588319515865007,5901.470189048267
1.444,-0.6542618698220786,5906.425287825989
1.448,-0.5399405431740374,5906.083598166897
1.452,-0.4363484807266467,5894.062756363483
1.456,-0.36315126782192864,5903.190366896346
1.46,-0.33299040689557635,5911.398401989635
1.464,-0.3484542952440839,5898.339029557677
1.468,-0.402428777403272,5896.211941467885
1.472,-0.4806265536196789,5894.854312175776
1.476,-0.5648790490058327,5898.565981259002
1.48,-0.6362638025895715,5903.346554547348
1.484,-0.6777102175687378,5895.451401134975
1.488,-0.676109447119035,5898.757170852161
1.492,-0.6240465145190768,5895.491445202478
1.496,-0.5210682014214009,5901.097750842118
1.5,-0.37419618354520207,5901.088331293572
1.504,-0.19756258620668773,5892.982917791061
1.508,-0.011428538158040059,5901.416454567605
1.512,0.15917465427231403,5895.435868952533
1.516,0.28651493633001085,5895.7966165468215
1.52,0.3436970377926233,5904.264683176814
1.524,0.3100775277151235,5897.901612479624
1.528,0.17804640630598176,5894.077926284888
1.532,-0.04026916084850828,5898.20195430853
1.536,-0.3084420367236678,5901.683842002658
1.54,-0.5655141607515373,5896.876546445424
1.544,-0.7317653999202866,5901.424214096104
1.548,-0.7209447328229296,5909.320376199168
1.552,-0.45767825933752604,5894.081356966609
1.556,0.10323113628944124,5887.394581919001
1.56,0.9605984706656832,5900.571241675914
1.564,2.059309076233052,5903.678341360428
1.568,3.295716520777291,5903.084183798615
1.572,4.536826225658549,5901.353027863719
1.576,5.648922604269992,5894.140028913268
1.58,6.526590742193267,5909.482127294515
1.584,7.112363837751659,5907.072621470984
1.588,7.401640511005899,5905.532023406244
1.592,7.433850493387627,5903.9771913080185
1.596,7.275106856847047,5899.905318988853
1.6,6.99877376924445,5893.673106529833
1.604,6.669467514590544,5913.742117095811
1.608,6.333722398567546,5893.476785980697
1.612,6.01774424073568,5896.706941747003
1.616,5.730678535241351,5896.252543421392
1.62,5.471149862120159,5894.23633474362
1.624,5.234808073592359,5895.565139600885
1.628,5.020654084681783,5895.404595023549
1.632,4.834145384696169,5896.523462562829
1.636,4.685879942578001,5899.457036033095
1.64,4.586189182166136,5896.758332376145
1.644,4.537857501733293,5903.880607020196
1.648,4.530411772437186,5892.239452673479
1.652,4.539025119078213,5891.666539913689
1.656,4.529097276365256,5898.533865732344
1.66,4.465126120524207,5903.91076952619
1.664,4.320893124568707,5898.121582804175
1.668,4.087781858693219,5892.880687473664
1.672,3.7787754055518445,5895.845671233416
1.676,3.4267706836622427,5894.409837036215
1.68,3.077271576035657,5893.082972936224
1.684,2.777156761183868,5904.527422815539
1.688,2.5624861943895425,5890.161978030212
1.692,2.4488488452903536,5890.069963455986
1.696,2.427426811596101,5900.433872616817
1.7,2.4683815757066205,5904.043560516072
1.704,2.5304901346889723,5893.4717205229645
1.708,2.5734767792050524,5891.00973052705
1.712,2.568594689483421,5893.448197716427
1.716,2.50404241937239,5898.90206822445
1.72,2.384168651490523,5896.110938128814
1.724,2.224000714751138,5899.963762592267
1.728,2.042129539939366,5901.549128032274
1.732,1.854839742096946,5895.614493338421
1.736,1.6731985913533223,5902.904817222103
1.74,1.5034744316107527,5895.505693302937
1.744,1.3499766396317157,5901.828520614596
1.748,1.2182433366029235,5900.185525152087
1.752,1.1161297540029473,5890.460921962785
1.756,1.0515856858714308,5901.393326535067
1.76,1.0283076591424503,5899.182546017629
1.764,1.042158210109415,5894.226028194463
1.768,1.0807634312638543,5911.898581950928
1.772,1.126546487339029,5908.397546983344
1.776,1.16157796240253,5896.083958117887
1.78,1.172235840040291,5905.489692896076
1.784,1.1522992275948412,5894.078497034836
1.788,1.1037840466540199,5903.147836400906
1.792,1.035337147130278,5899.481072005285
1.796,0.9586457343225048,5903.534447350075
1.8,0.8840927175736596,5892.511174000346
1.804,0.8172828633986361,5896.785801101405
1.808,0.7576776695141239,5893.044229340311
1.812,0.6996623010056399,5888.4667574933055
1.816,0.6355270607358926,5887.620182387064
