时间(s),电压(V),幅值(高频80K)
0.0,-0.2615440313993239,5904.564830048209
0.004,-0.3510477361379163,5902.621232448298
0.008,-0.44519540451097683,5885.912267361735
0.012,-0.5435155169030471,5900.084018132301
0.016,-0.6411168047295072,5899.663722148765
0.02,-0.7280594495461892,5905.709757700451
0.024,-0.7902695651559573,5900.32178683712
0.028,-0.8122503834390936,5910.923484427826
0.032,-0.7815004691516414,5905.482664850067
0.036,-0.6936136185442214,5902.248658959583
0.04,-0.5558684231225788,5893.145513741001
0.044,-0.38708384037076543,5895.733346493001
0.048,-0.21329327575016913,5904.120145472758
0.052,-0.06100280721734998,5902.001669910147
0.056,0.04941607929429463,5899.18931444286
0.06,0.10838033050916555,5898.672034212032
0.064,0.11889295047265883,5901.991754945261
0.068,0.09498059679653063,5902.620596788772
0.072,0.05679351857789815,5904.797515016281
0.076,0.023737600308227125,5901.472439939298
0.08,0.008467130574932157,5891.785555368658
0.084,0.0144796294599235,5901.255772167993
0.088,0.03788172383235218,5902.51355604482
0.092,0.07124492407231899,5907.401498204879
0.096,0.10661807870699262,5901.362646953758
0.1,0.13631468204385477,5905.051103039346
0.104,0.15238301572059582,5904.276656341638
0.108,0.14656766927408013,5904.599598483504
0.112,0.11169345606905239,5900.25182261103
0.116,0.04412762325837377,5903.976235881552
0.12,-0.05358563431326191,5904.904402060355
0.124,-0.17100380015030198,5899.313602200477
0.128,-0.2903490514632573,5904.798991149205
0.132,-0.39044101661349706,5902.739169352268
0.136,-0.453467859828619,5897.785420351899
0.14,-0.47198838826974576,5896.8597938058265
0.144,-0.4528530158559003,5889.424990412446
0.148,-0.41601624649227903,5902.908297640537
0.152,-0.3884224378582233,5897.887235735328
0.156,-0.39496491557558977,5898.8694925932
0.16,-0.4493944732892351,5894.1957930140325
0.164,-0.5480993441250146,5904.94807012545
0.168,-0.6691396527946973,5896.151846780865
0.172,-0.7776464127269437,5901.040991645812
0.176,-0.8364343942062139,5897.937621457536
0.18,-0.8181315271594658,5901.458733852246
0.184,-0.7140319131250976,5903.004465871168
0.188,-0.536375442152381,5901.204542914819
0.192,-0.31390478518077436,5898.133387147163
0.196,-0.08314159283526748,5895.6513885805225
0.2,0.12131416276024243,5907.058136736625
0.204,0.2744950565354754,5902.81481728987
0.208,0.3646836771182632,5894.668305408618
0.212,0.3922814633382043,5900.136539938168
0.216,0.3651734017343,5895.087076669375
0.22,0.29325312933787795,5901.942253418853
0.224,0.18476628383709864,5898.945701830834
0.228,0.04565967708085037,5890.126988492316
0.232,-0.11882294930081955,5903.351798450568
0.236,-0.30212348286130736,5895.037537910419
0.24,-0.4952774549674294,5897.235796291552
0.244,-0.686784322807929,5894.071793808703
0.248,-0.8627749309464402,5896.140942632311
0.252,-1.0073098034448449,5896.065848734991
0.256,-1.1034827291263187,5894.458289420179
0.26,-1.1360878775955856,5901.73858251255
0.264,-1.095791201001496,5896.273071434887
0.268,-0.983563550644755,5908.339079777555
0.272,-0.8132407652990178,5912.566556723517
0.276,-0.6102208670470033,5892.314456784652
0.28,-0.4058176329383422,5901.264021632946
0.284,-0.22893776649016156,5899.612703661358
0.288,-0.09829631453160693,5903.655017568116
0.292,-0.01846887076425587,5889.311526946216
0.296,0.018547268018873044,5897.2424185482505
0.3,0.027286254490740715,5893.694119555383
0.304,0.021473697635704496,5898.936758803388
0.308,0.00880673853078326,5898.726059593738
0.312,-0.010395019161688565,5907.135874763084
0.316,-0.041060725162049914,5896.982655863986
0.32,-0.08942418459270385,5903.955786802873
0.324,-0.15903791907808584,5901.897720243536
0.328,-0.24796525656598084,5899.181512894899
0.332,-0.34765618635214807,5893.41739575426
0.336,-0.44350339095618496,5904.274067147175
0.34,-0.5169637681435566,5897.863098105599
0.344,-0.5491488375947197,5892.749979059632
0.348,-0.5254722149227286,5901.804510729191
0.352,-0.44032314249161825,5894.53313277449
0.356,-0.3003211435502379,5902.615640290895
0.36,-0.12486701828594286,5900.74217762064
0.364,0.05662793525282768,5902.18864169046
0.368,0.21059835516337402,5891.438222815885
0.372,0.30722971678387456,5899.73647563759
0.376,0.3285737504465509,5896.733677174243
0.38,0.27425739458795817,5893.285327811745
0.384,0.1621469928030486,5903.425921880351
0.388,0.022946140276150294,5893.837269542692
0.392,-0.10953689564391564,5899.823946643667
0.396,-0.2086647724821866,5896.296630577948
0.4,-0.2619683374977587,5899.563658421287
0.404,-0.2727283249238439,5907.598842425032
0.408,-0.2562820691134852,5906.0767796981245
0.412,-0.23308958957193968,5901.070698865102
0.416,-0.22145883965469362,5904.711068989429
0.42,-0.23243299811677182,5897.006281487476
0.424,-0.26803099888036175,5898.741503680041
0.428,-0.3225225147937299,5905.170840955804
0.432,-0.3853763126945312,5897.747040324769
0.436,-0.444343075672736,5891.844586080093
0.44,-0.48778042710612296,5907.803714964916
0.444,-0.5062313090475438,5904.631255334382
0.448,-0.4936857354518885,5889.190026763797
0.452,-0.44862381375670557,5893.976852216787
0.456,-0.3743800337927027,5903.205983010563
0.46,-0.27838591174605126,5904.776080066438
0.464,-0.170525506899432,5893.189900081432
0.468,-0.06142110257977833,5896.122757625137
0.472,0.03863553775730903,5901.898883295977
0.476,0.11999968005076307,5899.89298682716
0.48,0.1737532280047001,5906.120125431234
0.484,0.19235124611980936,5904.550146018059
0.488,0.1713359771382747,5897.211441446676
0.492,0.11166442490172833,5907.549194369899
0.496,0.021185336752918855,5905.966207350824
0.5,-0.08624561026752649,5906.409692484874
0.504,-0.19428762798306634,5901.261586377264
0.508,-0.2889102120896925,5906.618775346785
0.512,-0.3622308426090574,5886.388255043789
0.516,-0.4135057979567885,5902.393036190585
0.52,-0.44670461007949114,5902.197998208243
0.524,-0.46590684270728294,5890.760206068542
0.528,-0.47116998898061585,5901.773742700888
0.532,-0.4574560978803158,5903.924926292598
0.536,-0.41749313439632674,5894.787586309951
0.54,-0.3471902440609144,5888.2084250879325
0.544,-0.25077915434773485,5898.162294370031
0.548,-0.14285983123998103,5900.592727274694
0.552,-0.04591027577870721,5901.116473441661
0.556,0.016047343238626065,5904.414783435157
0.56,0.025141750233961018,5905.475557340626
0.5640000000000001,-0.024282714716431442,5901.56866406919
0.5680000000000001,-0.1234472745860343,5906.557287181173
0.5720000000000001,-0.25161861721211837,5911.769764164181
0.5760000000000001,-0.38266072099197246,5899.123659918927
0.58,-0.49354033490811905,5896.766263898458
0.584,-0.5715948139743878,5895.088586311263
0.588,-0.6175518062322043,5888.697607846303
0.592,-0.6430659602341933,5897.428895152033
0.596,-0.6641017771147766,5892.520342063467
0.6,-0.6933539010863967,5892.149425060271
0.604,-0.7350138954531147,5906.130779432224
0.608,-0.7837118275814658,5900.741759260292
0.612,-0.8274381284969244,5907.392790302409
0.616,-0.8527676765879907,5900.209924781078
0.62,-0.8502102093495781,5906.104957683029
0.624,-0.8177919073659208,5897.814726306449
0.628,-0.7616904427558226,5897.482801672748
0.632,-0.6937439092236459,5894.627774063364
0.636,-0.6267185841326169,5899.258376145303
0.64,-0.5690258229966332,5902.536314879913
0.644,-0.5209423147255501,5899.853642953035
0.648,-0.47413367153404634,5894.703350914719
0.652,-0.4151429371254387,5909.200836147927
0.656,-0.3316692363912585,5903.509613400844
0.66,-0.21889643780924858,5903.504432215167
0.664,-0.08292823672180914,5901.616455707774
0.668,0.06025198674690685,5901.652106811643
0.672,0.18977149333675117,5889.555126831384
0.676,0.28647494657789274,5894.625776319269
0.68,0.33809613205036765,5900.16736566042
0.684,0.3408537857382259,5899.07563626086
0.6880000000000001,0.29757072634607296,5901.818146077144
0.6920000000000001,0.21448938549397675,5900.942007744607
0.6960000000000001,0.09932537076094633,5895.834672963786
0.7000000000000001,-0.03838014696939258,5912.136542249137
0.704,-0.18560492531929026,5899.978080973514
0.708,-0.32500037482618954,5899.512487170442
0.712,-0.43653453625158894,5903.738984950643
0.716,-0.5017869957241031,5901.472932740016
0.72,-0.5094268491196997,5900.324293245845
0.724,-0.45952194113520517,5903.080549459596
0.728,-0.3646379250229447,5893.044063199537
0.732,-0.24700337712894213,5893.232547400088
0.736,-0.13265820955083762,5895.581288131756
0.74,-0.04473740923537286,5895.76734148063
0.744,0.0016035994671826544,5902.25050955789
0.748,0.0008560497032199059,5900.135337992857
0.752,-0.04468748354205793,5899.222061730664
0.756,-0.12863823953174508,5896.849289482197
0.76,-0.2436953097729774,5898.201046894795
0.764,-0.38269793874396857,5912.196837329403
0.768,-0.5375948716859147,5903.392610722102
0.772,-0.6977561710523229,5906.815253608103
0.776,-0.8492666766232346,5898.231627530062
0.78,-0.9759394217609999,5898.177681636023
0.784,-1.061633618280086,5905.195310689931
0.788,-1.0928756387003937,5906.6687347923225
0.792,-1.0609176749301612,5899.398537434533
0.796,-0.9629012245636956,5899.470941628316
0.8,-0.8023486568005851,5889.43527244006
0.804,-0.5894250758638524,5905.515900623461
0.808,-0.3410208199925037,5885.923561473147
0.812,-0.08003570316553418,5889.457891134515
0.8160000000000001,0.16684697065187806,5909.940542664401
0.8200000000000001,0.37289990722852406,5898.333343829559
0.8240000000000001,0.5157992091538665,5896.465250245514
0.8280000000000001,0.581582874133846,5902.667213029207
0.8320000000000001,0.5669216351630926,5901.947439159891
0.836,0.478961864745654,5902.16270380276
0.84,0.3329340227893997,5899.67043398202
0.844,0.1485729158729969,5905.687424415311
0.848,-0.05338690396622349,5901.957640679702
0.852,-0.2536810789801345,5892.635543277814
0.856,-0.43548865548947213,5898.833446349227
0.86,-0.5840892327219901,5896.36133979141
0.864,-0.6860845602758167,5897.798959883175
0.868,-0.7294861917524993,5898.648572102319
0.872,-0.7056909416810742,5901.676065135611
0.876,-0.6131041078569196,5900.69285638308
0.88,-0.4604979500797424,5896.286407244763
0.884,-0.2676536490581361,5905.989362937566
0.888,-0.06219305571622546,5895.044995276323
0.892,0.12640553043821373,5902.957428201285
0.896,0.27336370397537013,5902.0912255188905
0.9,0.36348986642404724,5897.84105912916
0.904,0.39305666021704516,5898.31045123154
0.908,0.3686255340861133,5888.531109366003
0.912,0.3038585840871235,5898.019162309373
0.916,0.21578145879156718,5906.789251463171
0.92,0.12164232639691011,5893.244933192523
0.924,0.0366700213170938,5897.712127121719
0.928,-0.02771433950061399,5903.169435154432
0.932,-0.0656002768129634,5907.33784166924
0.936,-0.07773069519970371,5896.079739155877
0.94,-0.07105653119714331,5898.527325974147
0.944,-0.056256556137767776,5906.3109841042615
0.948,-0.044060256149904324,5893.177711184104
0.952,-0.04201218797695612,5894.82217147174
0.956,-0.05298255384826248,5898.003860683171
0.96,-0.07564797631916369,5897.070920334246
0.964,-0.10621807241150803,5895.383088183021
0.968,-0.14041571273174913,5908.085912838281
0.972,-0.17501643954049112,5903.703369596549
0.976,-0.2086576255458792,5907.886623310346
0.98,-0.24181365019342888,5896.25302199181
0.984,-0.2758591395788284,5892.513211222453
0.988,-0.3113636494903704,5895.990089366588
0.992,-0.3462993021485972,5894.538604640002
0.996,-0.37523226089332734,5902.192999656264
1.0,-0.39025875787041525,5894.490254529769
1.004,-0.3835074098146343,5895.635409202508
1.008,-0.35012531311897,5902.703970978563
1.012,-0.29042820700393124,5910.548429140988
1.016,-0.2103572539961473,5905.608953060103
1.02,-0.12006029327073332,5912.911459178707
1.024,-0.03102137298460251,5898.527481023942
1.028,0.04720202635716738,5896.422464031681
1.032,0.10915757021645288,5892.368273532562
1.036,0.15353254374784403,5900.404960152598
1.04,0.18123293103752314,5903.7612872511545
1.044,0.19291620481849012,5895.4007788120725
1.048,0.1876956118015297,5896.689147796466
1.052,0.16394349549980647,5898.948055016459
1.056,0.12174581149848054,5895.779580319312
1.06,0.06536106761851805,5898.458543816566
1.064,0.0037091456795574967,5899.660496084637
1.068,-0.05209642905828015,5907.512787399793
1.072,-0.09318896366471183,5901.098551164362
1.076,-0.11677486744519516,5892.074136520594
1.08,-0.12686984461570264,5889.764979657862
1.084,-0.13128403142073994,5903.138611879268
1.088,-0.1363935170543226,5892.232429128372
1.092,-0.14249313289893478,5899.915193110869
1.096,-0.14236977604410203,5903.720255022005
1.1,-0.12429331156598947,5902.631436867461
1.104,-0.07833347005055113,5905.002129118205
1.108,-0.002867997756628396,5893.989150934993
1.112,0.09214661857339299,5898.48218516442
1.116,0.18671731933238503,5895.795958492126
1.12,0.2562531716615445,5898.261576909906
1.124,0.2786921490806175,5900.266240741684
1.128,0.24120091937164723,5897.98560089387
1.132,0.144723857583148,5903.920961355887
1.136,0.004918213377496759,5899.823456493962
1.14,-0.15121608894619268,5901.864869189808
1.144,-0.2922005596113268,5901.261341897526
1.148,-0.39025175248638927,5899.829279002127
1.152,-0.4281719749593343,5906.338624038882
1.156,-0.402942968887351,5891.745154022734
1.16,-0.3252253134645327,5894.601486105692
1.164,-0.215408203703337,5891.428158611679
1.168,-0.09787491751640758,5901.10929257664
1.172,0.004707429112152597,5897.117259908781
1.176,0.07572784524498224,5894.8502014915175
1.18,0.10683931151707586,5898.776881438935
1.184,0.09790327894473987,5902.2678041377885
1.188,0.05523244191741289,5905.001026537337
1.192,-0.010805930787414831,5896.313339050848
1.196,-0.08778898785678765,5899.631374036718
1.2,-0.162411105425088,5906.097994179537
1.204,-0.22118696899894438,5904.663121869213
1.208,-0.2514298856577201,5905.683762197146
1.212,-0.24299125068829314,5895.963159678318
1.216,-0.1905396113092765,5901.325731933023
1.22,-0.09553107060946399,5899.171616284412
1.224,0.03306137786575937,5905.210181598236
1.228,0.17977333071792062,5897.865096218181
1.232,0.3253337841248792,5904.628899688111
1.236,0.45030195870902784,5902.652203403228
1.24,0.5385689184790198,5903.033897348549
1.244,0.5798044714929181,5902.76880197102
1.248,0.5705219570987337,5901.632961998914
1.252,0.5138695542944949,5899.414434618216
1.256,0.41832737364376327,5902.808472712787
1.26,0.295599303754072,5903.460144175616
1.264,0.1583375213194522,5898.645153607474
1.268,0.018542506164407637,5899.041334560728
1.272,-0.11286112025438183,5893.678010943414
1.276,-0.22560732504948497,5902.940987969142
1.28,-0.3099628191432462,5895.2311539457605
1.284,-0.3580765992286824,5906.570434577546
1.288,-0.36695125776023124,5902.039485921769
1.292,-0.34155123899227435,5901.261926229936
1.296,-0.29559805575238235,5903.354549309113
1.3,-0.24842677629820548,5902.71918536803
1.304,-0.21860193234090866,5901.762925673949
1.308,-0.21708387804105037,5906.532573752204
1.312,-0.24308841315965785,5904.932359846737
1.316,-0.2843765662511489,5910.472736312125
1.32,-0.32164990642213287,5902.796269010461
1.324,-0.33520916004767226,5900.253993273688
1.328,-0.3115973793237176,5896.015408775032
1.332,-0.24831933898169817,5898.617961763033
1.336,-0.15539017383159826,5903.685345298951
1.34,-0.05321574571133227,5905.837146476631
1.344,0.0327934152591424,5900.836235579521
1.348,0.07941648721266031,5890.250407291695
1.352,0.07225923686492634,5897.389076931592
1.356,0.00936654052805717,5895.9717260609295
1.36,-0.09944461591136516,5907.060021537206
1.364,-0.23670177863096495,5893.0308308705935
1.368,-0.38243663570590836,5901.105375385463
1.372,-0.5180626414487942,5907.472144487686
1.376,-0.6281880115380146,5910.270352088679
1.38,-0.7012247175469851,5896.180635860461
1.384,-0.7301040040008477,5901.181204961024
1.388,-0.7135374450367783,5895.064965740389
1.392,-0.6571036647663242,5899.15059733954
1.396,-0.5730686874858456,5899.524188819326
1.4,-0.4784302927765463,5903.986196329523
1.404,-0.39165149280963263,5891.872044301246
1.408,-0.32924741619898434,5901.852731186302
1.412,-0.3033866953329051,5897.821195773037
1.416,-0.3209393356906776,5902.726779143818
1.42,-0.3833996246216078,5902.850102892748
1.424,-0.4866369242413815,5905.330389817036
1.428,-0.6200715248379166,5901.265311845128
1.432,-0.7662224440912028,5900.514112529618
1.436,-0.9022605215622325,5897.7678292682185
1.44,-1.0042773793186208,5905.007504606191
1.444,-1.0531294029024527,5892.818726631343
1.448,-1.0395504291416202,5897.615215159122
1.452,-0.9665413784748076,5903.615576472332
1.456,-0.84828716891227,5902.425357670049
1.46,-0.7060689594583901,5899.167815006882
1.464,-0.5623881058510452,5899.133262468724
1.468,-0.4348982560100956,5898.831524096843
1.472,-0.3318478156528042,5896.391127144739
1.476,-0.25039961453257337,5902.216400184169
1.48,-0.17841588374991152,5899.557494576111
1.484,-0.09942212333456013,5893.694033684632
1.488,0.0003281232115144411,5903.542221652505
1.492,0.12459139155900527,5900.533573311102
1.496,0.2621750821829639,5902.567144343753
1.5,0.3864231898831322,5904.2727394074855
1.504,0.4598361296911491,5898.846352946687
1.508,0.44288133506258914,5901.286719650676
1.512,0.30517210451525206,5902.874224622519
1.516,0.036972248299606325,5898.0607032131165
1.52,-0.34122483523858504,5906.750456205868
1.524,-0.7736080359210501,5898.335002676637
1.528,-1.170974704215013,5901.332346622433
1.532,-1.421374183346248,5905.711929887171
1.536,-1.409363900959053,5906.73359710291
1.54,-1.0411256762060055,5910.590129815289
1.544,-0.2700558792685278,5900.575554245987
1.548,0.8840263511105607,5910.253455440998
1.552,2.3286245845856928,5900.0242228188445
1.556,3.9096716359503225,5906.520020195222
1.56,5.440131933979217,5893.857107632643
1.564,6.740145619718453,5899.329241936217
1.568,7.677068895437853,5903.936887749785
1.572,8.192264771330885,5910.021973337185
1.576,8.306304889793267,5894.87185071238
1.58,8.10298992704184,5898.726774676504
1.584,7.700174825348762,5902.127698833227
1.588,7.2182515868193695,5896.543253116065
1.592,6.755224215642186,5909.369851868752
1.596,6.372825437710376,5901.381070757408
1.6,6.09367259864949,5905.073760379405
1.604,5.9067792674222614,5897.286986920557
1.608,5.778227948474267,5891.904353297746
1.612,5.664500283727669,5899.342191534492
1.616,5.526246997384027,5901.6798873988655
1.62,5.33961065084476,5909.545415363321
1.624,5.101937957446764,5905.50531063174
1.628,4.830325617289381,5897.274966376167
1.632,4.554299686881509,5905.228164740233
1.636,4.305861153253527,5891.835632177178
1.64,4.110089730199145,5891.860470521272
1.644,3.9784587379110388,5903.375611748202
1.648,3.9061726811287394,5899.8591076089615
1.652,3.8741151172155344,5897.036722746073
1.656,3.854818690964987,5901.434888691361
1.66,3.820512111205249,5892.357568156264
1.664,3.7506069685830736,5895.477440668346
1.668,3.636315626633417,5908.840260890539
1.672,3.481157216109322,5900.166852084034
1.676,3.2974963283355687,5899.83843027639
1.68,3.1005708256098563,5894.511058749922
1.684,2.9022886875559055,5903.123207821421
1.688,2.7071203043693672,5888.332585600176
1.692,2.511622117514865,5895.546350551991
1.696,2.3076916967415126,5902.028471074776
1.7,2.0880770447651695,5909.566578919625
1.704,1.8516727720621826,5898.485581959541
1.708,1.606253706724042,5902.3697509422245
1.712,1.3674242152044138,5896.9982469381575
1.716,1.1541601127096104,5893.863346928452
1.72,0.9828427753975162,5892.808921496827
1.724,0.8624864634236966,5906.882743198403
1.728,0.7931923228434734,5891.461973699307
1.732,0.7678822146688298,5894.404459563979
1.736,0.7756279312521859,5901.95733712757
1.74,0.8047196520175974,5891.829483268268
1.744,0.8445698823875781,5896.707077083722
1.748,0.8864451673985442,5902.93354860688
1.752,0.9234701616008854,5901.336705775668
1.756,0.9504565355334123,5899.5266484195145
1.76,0.9638609070606037,5891.982783290181
1.764,0.961794514690317,5902.59632270879
1.768,0.9438972806506106,5902.166783336502
1.772,0.9110321559366242,5900.393681115131
1.776,0.8648277162213184,5895.554843353853
1.78,0.8070486463478015,5891.99345319063
1.784,0.7388781857007459,5898.402362494479
1.788,0.6605891352838852,5885.960690010306
1.792,0.5723435947115346,5900.157867458092
1.796,0.4763098663675276,5882.122464497942
1.8,0.3789995589077375,5891.56892221395
1.804,0.2919294032462901,5877.835379422147
1.808,0.22949201297870583,5894.025783895144
