时间(s),电压(V),幅值(高频80K)
0.0,0.9566394365871322,5906.837987493723
0.004,0.5027953953239944,5894.462390643713
0.008,0.09015314295172852,5903.650950367808
0.012,-0.24289094561519614,5901.056291138285
0.016,-0.4689907216384808,5902.925030945549
0.02,-0.5757188258326584,5899.537434759121
0.024,-0.5664972797063796,5897.291622966461
0.028,-0.45862314825216305,5894.133949468953
0.032,-0.2796004678277945,5909.56930366835
0.036,-0.06306474637327895,5902.649056003227
0.04,0.15528902530812347,5900.389918979077
0.044,0.34200032713076783,5906.637475160606
0.048,0.47030031696025565,5897.9053623030295
0.052,0.5240471263782355,5903.309524141929
0.056,0.5002884802524249,5899.510386148014
0.06,0.40982643989610423,5908.517156279025
0.064,0.2753126150039033,5902.83004337545
0.068,0.1265626090505176,5903.679917560415
0.072,-0.0065443505399091165,5899.259417076264
0.076,-0.10194173145012808,5903.349572275131
0.08,-0.15135045367149905,5902.800172837326
0.084,-0.16193468331836253,5904.291420470545
0.088,-0.1528941196671193,5902.953223917114
0.092,-0.1483106130895202,5901.254024644078
0.096,-0.16882707966274066,5908.015023940619
0.1,-0.22476617964363763,5896.124387636516
0.104,-0.3125139120535238,5898.242731465739
0.108,-0.41502321493411026,5898.519163174712
0.112,-0.5063434506052679,5903.533160980378
0.116,-0.5590381318726012,5897.743020039258
0.12,-0.5523623795054736,5900.8405909273415
0.124,-0.47870970834871296,5895.451292321892
0.128,-0.3465182822148287,5905.600422688127
0.132,-0.17917639956808357,5903.163869796404
0.136,-0.010560355195978437,5909.908921847434
0.14,0.12182147920427962,5900.717451875181
0.144,0.18506403135343785,5907.063049711188
0.148,0.15905609934707585,5900.71440416004
0.152,0.042573316616309344,5903.227628005155
0.156,-0.14481099223945496,5901.22849408325
0.16,-0.3661163176151293,5902.752354043367
0.164,-0.5752048476146268,5901.910923932671
0.168,-0.7279307942638455,5897.482383085785
0.172,-0.793221313785144,5897.690080306495
0.176,-0.7609375621961779,5903.519195900587
0.18,-0.644184934641725,5903.460894676616
0.184,-0.4754336554219966,5900.411687198915
0.188,-0.2977328444789295,5899.826412092666
0.192,-0.1536319850045471,5895.172446951224
0.196,-0.07481183527382715,5900.638691053089
0.2,-0.07501972178488912,5904.754127571484
0.204,-0.14794384639469954,5903.9073142858415
0.208,-0.27035782010282283,5898.138443317326
0.212,-0.4094339105557289,5898.767384140218
0.216,-0.5318873058474429,5899.664858373774
0.22,-0.6121506835206934,5901.751037053513
0.224,-0.6374742732458801,5898.3764019580485
0.228,-0.6091928967813478,5899.521972277555
0.232,-0.5404651356530344,5893.184478893972
0.236,-0.45135899153487846,5910.3633523074
0.24,-0.36260406283936303,5908.7690039228455
0.244,-0.2897206408448256,5899.963609704916
0.248,-0.23932517793639752,5905.441743952
0.252,-0.20894980972306446,5893.9573874856405
0.256,-0.19050258320966026,5908.157420211408
0.26,-0.17580562413669928,5899.591357073409
0.264,-0.16151687824509336,5894.799166718913
0.268,-0.15112727158348033,5901.0136714170985
0.272,-0.15337178741219162,5905.176435316284
0.276,-0.17805901579813166,5901.316885656985
0.28,-0.23112758035255596,5901.109352585058
0.284,-0.31075250659336606,5898.788617312426
0.288,-0.40592982766463376,5907.687062791057
0.292,-0.4982417118914666,5895.726059225272
0.296,-0.5664213352737993,5904.451422648595
0.3,-0.5922171951898271,5902.111302685536
0.304,-0.5655055229401114,5898.339612460568
0.308,-0.486964752019118,5898.881747391567
0.312,-0.3676660010958336,5896.883486887451
0.316,-0.22605654094586325,5904.528560537692
0.32,-0.08355419321248102,5898.937585678681
0.324,0.03982043856101568,5904.935018097712
0.328,0.1286427169464094,5901.442440396511
0.332,0.1736265776892205,5904.915181093414
0.336,0.17170919391423775,5901.59747138003
0.34,0.12532611837232263,5896.817441881586
0.344,0.041610994089479186,5898.499880671714
0.348,-0.06807194225274092,5908.828721034455
0.352,-0.1884692115418346,5905.015765911249
0.356,-0.301383418368987,5899.720106735231
0.36,-0.3879911783236375,5903.991117019198
0.364,-0.43273378586937183,5893.784586812849
0.368,-0.4279653453367915,5905.923410147638
0.372,-0.3775384758505354,5901.225681050719
0.376,-0.2972741964641354,5899.678978671746
0.38,-0.21130505401452265,5908.718715278766
0.384,-0.14517560883014172,5902.17684181336
0.388,-0.11822199544640621,5894.642796769206
0.392,-0.1381505346374176,5902.340444684355
0.396,-0.19963989019174025,5886.972790141328
0.4,-0.286897139948057,5896.482092490599
0.404,-0.3785720057580614,5900.123757497034
0.408,-0.4529985760315182,5896.84996954565
0.412,-0.49234140763076095,5898.977992224332
0.416,-0.4852980838936996,5894.6458489038005
0.42,-0.4287561443579623,5895.182925122894
0.424,-0.3287385213629009,5899.511503057075
0.428,-0.20037717669300836,5907.122341707427
0.432,-0.06622126895128463,5896.795477491796
0.436,0.04761947396319311,5898.162802969123
0.44,0.11716710672148882,5901.877623226196
0.444,0.1267371331341894,5896.237169336256
0.448,0.07356490340671894,5908.833989761065
0.452,-0.030929149549044063,5900.463428476431
0.456,-0.16401580040651587,5902.361539125096
0.46,-0.29794903481435003,5896.439214706928
0.464,-0.407704871082333,5893.972414960328
0.468,-0.4777222905003595,5903.361146718694
0.472,-0.5055363649333106,5900.291406269717
0.476,-0.5011671717999007,5893.55964013312
0.48,-0.4824558762993625,5900.131387530553
0.484,-0.46782701966661244,5899.744671692972
0.488,-0.4688621974202963,5903.628232958686
0.492,-0.4853445043682137,5896.533880819433
0.496,-0.5048067023929853,5902.209768597405
0.5,-0.5070044713215077,5893.634949086395
0.504,-0.4717201577847358,5898.532626054438
0.508,-0.38700118232601494,5897.147959989614
0.512,-0.25498522251382977,5908.037780116355
0.516,-0.09345647294636389,5912.074198861536
0.52,0.067448360058241,5897.993920365412
0.524,0.19259143484132835,5902.925789236329
0.528,0.251095126185423,5900.364642502615
0.532,0.22457791454285664,5895.392688546447
0.536,0.11180117031464151,5898.773125363055
0.54,-0.07132454544141827,5908.224093074266
0.544,-0.2956079780666281,5902.796683320648
0.548,-0.5245334310075387,5903.170665316175
0.552,-0.7206753091860456,5895.501290138711
0.556,-0.8516608246732048,5899.818109699062
0.56,-0.8952238587662423,5893.235828324907
0.5640000000000001,-0.8428330324700681,5893.811593810756
0.5680000000000001,-0.7011785815375062,5894.936515100562
0.5720000000000001,-0.4909968252813254,5897.9339923506695
0.5760000000000001,-0.2434053276852453,5892.088967783059
0.58,0.005391072614182319,5909.082116296908
0.584,0.220017297809056,5894.553611737124
0.588,0.37172185869974944,5896.555579976408
0.592,0.44336821077829697,5895.765236763356
0.596,0.43259012468653985,5898.306945908678
0.6,0.3518013817241903,5889.752006920153
0.604,0.22430490170297626,5883.538386762376
0.608,0.07732123978630476,5902.086119618495
0.612,-0.06549429940033982,5904.471854275629
0.616,-0.18892571537207703,5904.044033355665
0.62,-0.28664192889447276,5896.636457765082
0.624,-0.35782970116130786,5904.771772442824
0.628,-0.40269612943835653,5892.987555411725
0.632,-0.4199494857085541,5894.429308139035
0.636,-0.4078527709444502,5904.312261783961
0.64,-0.3679244044127187,5906.814298237022
0.644,-0.30849222020843337,5905.074436456665
0.648,-0.24527510447584774,5902.25347084943
0.652,-0.19783835164122912,5901.663649672211
0.656,-0.18302754983853128,5904.861825190888
0.66,-0.2081701627737152,5895.232612553468
0.664,-0.26721151708598534,5885.23544165741
0.668,-0.34177600371605643,5897.699095451833
0.672,-0.40691001221172646,5897.405749562683
0.676,-0.4392124324139164,5900.655061665037
0.68,-0.42425643058308776,5897.188500848826
0.684,-0.3607392495944637,5910.377841489672
0.6880000000000001,-0.2601898392727847,5894.193896073843
0.6920000000000001,-0.1428072773773768,5900.60397755206
0.6960000000000001,-0.031400906821573066,5894.698214572184
0.7000000000000001,0.054239278544158546,5904.625352604926
0.704,0.10098359870229769,5894.271691817146
0.708,0.10373419199010163,5899.636503791793
0.712,0.0651601027340595,5900.395022299747
0.716,-0.0054750444971289666,5900.552962466968
0.72,-0.09405696580851665,5897.384150620427
0.724,-0.18389479059929698,5901.505365955133
0.728,-0.2585307906969538,5904.836871531843
0.732,-0.30497282501615525,5906.43041192792
0.736,-0.3168479391734778,5897.437303801508
0.74,-0.296428861996886,5905.502794484716
0.744,-0.2544371354569269,5893.633357631491
0.748,-0.2073856031506919,5904.976144356799
0.752,-0.17338250639493152,5900.90561451828
0.756,-0.16780940015956491,5888.549321345593
0.76,-0.19993012254093298,5895.625486094424
0.764,-0.2709391616064646,5900.016126156608
0.768,-0.3737193240331492,5897.573425574584
0.772,-0.4944153017531159,5902.178827957433
0.776,-0.6154205264711249,5903.288928144864
0.78,-0.7187811957503931,5902.833040135566
0.784,-0.789026623398104,5900.83567239275
0.788,-0.8150754348839224,5897.527592269148
0.792,-0.7914538089790599,5900.618579224374
0.796,-0.7191483180080684,5899.885014020111
0.8,-0.60614934807017,5892.64860187635
0.804,-0.46737800279948494,5896.648690972676
0.808,-0.3234096541530663,5897.520519400705
0.812,-0.1974968583016236,5901.461313733302
0.8160000000000001,-0.11105951965664887,5908.052313718675
0.8200000000000001,-0.07874886630294622,5902.754013509132
0.8240000000000001,-0.10467538968483654,5895.874424993427
0.8280000000000001,-0.18100662959037303,5897.507648996025
0.8320000000000001,-0.2893018264343181,5899.998128495568
0.836,-0.4043031234644822,5887.664121515386
0.84,-0.49946427445133135,5902.421324903546
0.844,-0.552991019379866,5903.578573510768
0.848,-0.5528628375173151,5904.761083513035
0.852,-0.4996705092387159,5905.02152939887
0.856,-0.4068645273903226,5897.551070000034
0.86,-0.29845129746077886,5902.772893596895
0.864,-0.20424634174719775,5906.355487510329
0.868,-0.15310955520111744,5896.414559355983
0.872,-0.16536755939566458,5906.557360163656
0.876,-0.2463487449427922,5905.294621792856
0.88,-0.3830686670750021,5899.604880556186
0.884,-0.5455286488643338,5888.377710162197
0.888,-0.6929835469055412,5899.048447692798
0.892,-0.7840491757333041,5895.639113672497
0.896,-0.7879900847358016,5905.035851658625
0.9,-0.6936713678609702,5900.980897759169
0.904,-0.5132177099660207,5899.273323860051
0.908,-0.27932397009539234,5905.738590372051
0.912,-0.037310370211628724,5902.351383171956
0.916,0.1656475693366039,5901.372130144837
0.92,0.2913022662733653,5894.324997035053
0.924,0.31857069323808224,5905.121377853254
0.928,0.24738484058133173,5900.540717535331
0.932,0.09738110313942192,5900.649152460689
0.936,-0.09809454429347036,5902.736483734218
0.94,-0.30090110271995685,5901.900405157804
0.944,-0.4772349110111023,5893.6469532785495
0.948,-0.6042292640464321,5905.464812765208
0.952,-0.6723328251377608,5898.305673204334
0.956,-0.683619390038999,5898.73519257444
0.96,-0.6478467298130601,5900.388554063001
0.964,-0.5784412572413061,5885.741976355478
0.968,-0.4895407468968855,5905.901776393435
0.972,-0.39397466613928267,5902.532142601425
0.976,-0.3016745861574347,5901.166426011614
0.98,-0.21845192401257438,5896.435548285721
0.984,-0.14563106753470176,5903.090625864068
0.988,-0.08098638166088022,5903.615689327155
0.992,-0.020728564169665547,5896.356933020939
0.996,0.03837585367067845,5903.823643731714
1.0,0.09761202132859716,5892.970804955927
1.004,0.15587544391278985,5894.524784244805
1.008,0.20984990390494818,5893.264930725663
1.012,0.2544629688997777,5894.393755174608
1.016,0.28367327321428215,5900.083951930698
1.02,0.2917807594957327,5907.180393951907
1.024,0.2749711062047918,5900.170074868773
1.028,0.23232089791809735,5901.03022928442
1.032,0.16578253012005756,5898.636861076617
1.036,0.07949486900484196,5911.675547819937
1.04,-0.020828783023141156,5897.1388947356345
1.044,-0.12812608111053003,5903.499763676973
1.048,-0.23426368962263663,5911.4453161998645
1.052,-0.33100842628983684,5901.199925325149
1.056,-0.4117274104343205,5902.791159348714
1.06,-0.47306729445052925,5900.47560264213
1.064,-0.5157086737505093,5895.663141817736
1.068,-0.5438415850725895,5895.366608784423
1.072,-0.5636375184850457,5902.086557767722
1.076,-0.5812742817759613,5896.951963992313
1.08,-0.6011178740787982,5896.774903302964
1.084,-0.6246035382083477,5894.952493066972
1.088,-0.6500676067981045,5896.059577123727
1.092,-0.6733396912052972,5898.657974922547
1.096,-0.6887126128613796,5896.685117705775
1.1,-0.6901358156868501,5894.046034515933
1.104,-0.6727209998612839,5893.57016833379
1.108,-0.6344097569262652,5895.799751368047
1.112,-0.577093789199759,5901.988026128111
1.116,-0.5063702790090017,5902.294911244492
1.12,-0.4298734011065174,5902.613657096448
1.124,-0.35515420110312684,5903.485287665099
1.128,-0.2883884279282724,5892.984234373223
1.132,-0.2344778584089368,5901.6363350237725
1.136,-0.19801813853516828,5898.092855942907
1.14,-0.18399021000107557,5902.485961510344
1.144,-0.19723622946452166,5897.773963929073
1.148,-0.240581196489294,5889.124034115866
1.152,-0.3123907317215736,5905.367154032027
1.156,-0.40487191082323737,5897.644863741093
1.16,-0.5041600114366183,5899.07822764105
1.164,-0.5924338704940105,5902.791217567266
1.168,-0.6516071140230333,5905.190259570381
1.172,-0.6677860373539911,5897.07049578456
1.176,-0.6354159207464507,5907.38846578342
1.18,-0.5597780303458686,5903.815241087377
1.184,-0.4565886247769606,5894.906531170771
1.188,-0.34825295034839426,5895.832032846144
1.192,-0.25771057832412386,5901.709883837643
1.196,-0.20198372162312064,5898.789091022994
1.2,-0.187685673109768,5898.916518450069
1.204,-0.20988121708386667,5897.73883962467
1.208,-0.25448271671559275,5892.012222643066
1.212,-0.3032309468781549,5892.409948688913
1.216,-0.33941696775939156,5908.182659539297
1.22,-0.3523073461654101,5900.470436613371
1.224,-0.3390460101939019,5906.133820116487
1.228,-0.3040592481236373,5897.134810663147
1.232,-0.25680583556969216,5900.3591673096025
1.236,-0.2088986444513596,5900.22401109778
1.24,-0.17148107746638117,5897.384329953969
1.244,-0.1533376425283746,5908.373038442964
1.248,-0.15959840648686735,5905.861116938665
1.252,-0.19060600996912994,5907.808110156539
1.256,-0.2410011581069191,5894.8857889881
1.26,-0.29980540744933387,5901.864856644939
1.264,-0.35224429283413883,5906.327724159898
1.268,-0.3831570683019093,5897.630085913702
1.272,-0.3809430126916927,5899.875665739498
1.276,-0.3407750191982897,5903.62090419674
1.28,-0.2661762750330634,5892.446267807052
1.284,-0.1685618676846605,5902.018600235947
1.288,-0.06475144016842867,5893.312620185858
1.292,0.027105497056823132,5898.824732565307
1.296,0.09213320684395462,5899.791496328575
1.3,0.12233129666552124,5899.440348576406
1.304,0.11784488123639567,5903.774406511817
1.308,0.08547356304017914,5903.413872160441
1.312,0.035111051961644345,5904.042728640543
1.316,-0.02431126536745461,5894.764129414844
1.32,-0.08753170435953066,5897.254473389441
1.324,-0.15314687998022752,5899.153644329783
1.328,-0.2215478616154577,5905.328664554319
1.332,-0.29211385976768467,5901.061427080159
1.336,-0.36137517614890446,5898.314987675015
1.34,-0.4230753260411296,5895.172147935658
1.344,-0.4699456954356199,5907.067696029528
1.348,-0.4962079193454301,5902.792970038657
1.352,-0.4996955460752814,5902.453417921222
1.356,-0.482856373792392,5900.488630109561
1.36,-0.4523037159309276,5902.682694649333
1.364,-0.4169668406947455,5892.77002672416
1.368,-0.3854579240817625,5900.043002121725
1.372,-0.36375446146820484,5902.153914029768
1.376,-0.3541021783295123,5895.223569528826
1.38,-0.3551960468425471,5905.880553805703
1.384,-0.36292953233088177,5898.347435678483
1.388,-0.37095045619438977,5894.190194376019
1.392,-0.37090926727347584,5904.202495686254
1.396,-0.3530158057701924,5903.95252569419
1.4,-0.307618862347007,5900.606451117032
1.404,-0.22788552220860175,5885.487559936337
1.408,-0.11289985725308989,5898.325519604594
1.412,0.029847130696279818,5898.477270953542
1.416,0.18363236098856345,5903.7171534274285
1.42,0.3242514028109777,5898.967350094653
1.424,0.4246405977211582,5903.342781873535
1.428,0.4614666838122197,5896.589110983418
1.432,0.4216686711651854,5897.316287489743
1.436,0.30674872462266933,5897.760568970242
1.44,0.13345489315374273,5895.147751337273
1.444,-0.06922859877972022,5901.305221444548
1.448,-0.26586315201321337,5896.72274615405
1.452,-0.4217246311546204,5895.2301304843
1.456,-0.5099077642023022,5907.0064406922265
1.46,-0.5170190216569199,5908.840610237674
1.464,-0.44625924422657837,5888.57496314447
1.468,-0.31696226912856446,5898.162413190984
1.472,-0.16032016100094248,5888.233670656683
1.476,-0.012155517674174832,5897.741844566291
1.48,0.09531021630611032,5889.239850824757
1.484,0.14035124003924979,5895.581155760249
1.488,0.11551290569873414,5904.684137676658
1.492,0.027770988925132432,5900.641250709377
1.496,-0.10410448366323885,5885.970805547079
1.5,-0.2536241557711199,5900.901660418322
1.504,-0.39117199256650187,5901.948563235626
1.508,-0.48890771028569213,5893.862461829238
1.512,-0.5257855842260172,5892.658846002222
1.516,-0.4916694192951771,5908.315064888358
1.52,-0.38903021549561323,5903.167218602874
1.524,-0.23157264515021023,5902.769255300212
1.528,-0.04060624636209465,5905.19833907805
1.532,0.15934610546868264,5901.653684982592
1.536,0.3444940163956438,5903.998838036967
1.54,0.49466544847013444,5898.634891026221
1.544,0.5951399329031448,5899.113227646881
1.548,0.6379145414685075,5901.768998365875
1.552,0.622781508453022,5900.87706983909
1.556,0.5578917268921513,5901.54902764572
1.56,0.4589876325595123,5900.799936222808
1.564,0.3468904265547924,5906.868784453869
1.568,0.2436790526866173,5895.903480319669
1.572,0.16842128166361564,5898.402296433019
1.576,0.1332751561046223,5891.901611532537
1.58,0.14072385177022653,5895.080440201474
1.584,0.1825769229081025,5892.390121314212
1.588,0.24101456434027216,5901.187772707606
1.592,0.2916520017058895,5898.702917120166
1.596,0.30840888770239355,5900.078423288776
1.6,0.26951126432110484,5896.856967787202
1.604,0.16323851958767172,5892.151152206648
1.608,-0.008397142416630457,5904.728077016825
1.612,-0.2295306001526706,5905.929965733382
1.616,-0.47425375077812043,5899.570814567589
1.62,-0.7131604042731449,5900.513347314911
1.624,-0.9202556616593216,5910.519308469163
1.628,-1.0779213923540396,5908.39307311308
1.632,-1.1788419695006562,5900.86229811956
1.636,-1.225129516118695,5906.892534228264
1.64,-1.2255461827799732,5899.129093474652
1.644,-1.1917831631137044,5898.749748437763
1.648,-1.1346671322303106,5900.698059096259
1.652,-1.0611628879058073,5901.158014094466
1.656,-0.973052756576466,5907.30018868173
1.66,-0.8678892971972195,5904.490891578055
1.664,-0.7419988133137593,5898.535539340508
1.668,-0.5942450022279333,5904.17453188249
1.672,-0.42874882917713614,5903.779109812254
1.676,-0.2553646172365374,5896.9271641342575
1.68,-0.0880130013362546,5898.307271088944
1.684,0.05807878010405987,5910.274384400869
1.688,0.16913749205437087,5892.064455111798
1.692,0.23504078434981018,5908.639096739184
1.696,0.25087884062507054,5895.557440036576
1.7,0.21797380382756754,5901.413787638469
1.704,0.14427149049072613,5897.2156528792175
1.708,0.04367852779752619,5898.173293914489
1.712,-0.06619566833340154,5901.569523623502
1.716,-0.1679595265238283,5904.67705746107
1.72,-0.24906997002204323,5905.851188504264
1.724,-0.30525414672484663,5894.81042620261
1.728,-0.340812438980656,5895.915919240583
1.732,-0.3652731718509668,5897.554574074131
1.736,-0.38781228675630014,5914.895428282159
1.74,-0.41204334870596476,5904.201248504651
1.744,-0.4336294989179186,5899.132956186147
1.748,-0.4418858336418599,5901.249399961504
1.752,-0.42467581885444067,5893.086075739447
1.756,-0.37432056691415133,5900.181609328662
1.76,-0.2918522438136223,5900.105140288083
1.764,-0.18789762046157224,5901.842245424202
1.768,-0.07998838232287511,5903.590613326124
1.772,0.012638998709637455,5899.392438287204
1.776,0.07486756598075804,5895.617627904413
1.78,0.09995842281370983,5895.4445877590615
1.784,0.0906188792252521,5907.135211442613
1.788,0.056696361796369506,5900.630565048516
1.792,0.01082031728171984,5903.719700214439
1.796,-0.03604286310823294,5902.603677317941
