时间(s),电压(V),幅值(高频80K)
0.0,-0.8800580123486942,5902.082279345368
0.004,-0.7677956471273912,5908.145953758408
0.008,-0.6611689206347686,5903.718243138937
0.012,-0.5625815647547185,5905.464231799045
0.016,-0.4715386442223191,5900.222047754414
0.02,-0.3857646639826821,5897.421165835671
0.024,-0.3026552491812411,5904.690693401892
0.028,-0.22007603904683617,5897.059317017518
0.032,-0.13676702542425498,5901.986533993361
0.036,-0.05303987901210544,5893.428235373077
0.04,0.028274269722045046,5901.315433056079
0.044,0.10151050205936125,5900.9378602154575
0.048,0.15925247985783894,5903.262410902127
0.052,0.19457505251385684,5899.7489444838975
0.056,0.20338986361939645,5898.208017399313
0.06,0.18592634991384846,5897.219754796322
0.064,0.1470599525964127,5899.976470741024
0.068,0.0957209816110908,5900.035911595232
0.072,0.04368537949607937,5904.961965311886
0.076,0.003909997781972994,5903.880102604399
0.08,-0.01148559588395016,5896.610671617807
0.084,0.006522552588856261,5886.316144008096
0.088,0.06149327205225767,5900.940040396537
0.092,0.149367697221835,5900.242601152607
0.096,0.2573566940282981,5897.97431215535
0.1,0.3649934517154331,5901.1666681634215
0.104,0.44789059074069115,5905.423458361684
0.108,0.48340994607004406,5909.212571450392
0.112,0.4564386178139374,5894.840514529761
0.116,0.3635344944218821,5899.331704307377
0.12,0.214451264396047,5901.787798879917
0.124,0.030623375195454418,5903.888677867267
0.128,-0.15947277376954325,5911.369777852595
0.132,-0.3274476509576785,5905.373335715829
0.136,-0.45275493604563927,5905.077324208246
0.14,-0.5282742724421826,5897.867100876889
0.144,-0.5612736096505073,5898.54456047916
0.148,-0.5691775541920318,5908.025334096934
0.152,-0.5720197093953863,5897.106078456042
0.156,-0.584907893372231,5906.230052266162
0.16,-0.6133671192263694,5901.091241809978
0.164,-0.6527032823347717,5907.476711072909
0.168,-0.6909457428246181,5896.473043359655
0.172,-0.714011507120166,5900.106639572181
0.176,-0.7111397558070629,5905.263727373183
0.18,-0.6784487296016866,5899.235571552781
0.184,-0.6192985335927449,5894.602265428586
0.188,-0.5418756476469129,5899.55653524456
0.192,-0.45579530249040534,5891.057095247979
0.196,-0.36954573560746057,5895.345224910509
0.2,-0.2895676055778591,5895.298328686889
0.204,-0.22067602013496618,5900.94680337912
0.208,-0.16702662793915102,5890.199580192938
0.212,-0.13284846637535427,5897.137861810293
0.216,-0.12241313560683421,5899.621179693943
0.22,-0.13909139192361358,5888.779476483929
0.224,-0.18385861922938707,5891.866286897782
0.228,-0.2539860416925358,5903.0575674960255
0.232,-0.3425698136077448,5896.473578963156
0.236,-0.4390844608210016,5896.383963790919
0.24,-0.5307230853926813,5899.41957677054
0.244,-0.6041899850676454,5909.526655248466
0.248,-0.6477352587836749,5897.670698542325
0.252,-0.6532482208871525,5895.664543877751
0.256,-0.6180643764514544,5900.3054546610165
0.26,-0.5460618374189233,5899.33509254588
0.264,-0.4477511788623552,5902.688514927493
0.268,-0.3391017711589502,5897.220184906889
0.272,-0.23878004898751098,5902.792206029907
0.276,-0.16388007378761626,5900.594553988551
0.28,-0.1252389291048431,5897.35003166803
0.284,-0.12414234776168807,5894.321496906184
0.288,-0.15185241258938617,5898.647617377496
0.292,-0.19226882641420856,5892.6573641708765
0.296,-0.22691654412292706,5901.83707537622
0.3,-0.24063681601956058,5892.748936539703
0.304,-0.22602369531822986,5893.368846848533
0.308,-0.18509347013141642,5907.285440620765
0.312,-0.12782619974457798,5906.824885164819
0.316,-0.06849433176153938,5901.640415419137
0.32,-0.02143865329381412,5894.773734625256
0.324,0.002188666550513019,5905.685596876141
0.328,-0.003979130954464342,5901.955329798205
0.332,-0.041400269913198194,5901.079189729594
0.336,-0.10729026882156216,5906.622240496035
0.34,-0.19528964702892243,5903.621785976553
0.344,-0.295676352007832,5901.402468199562
0.348,-0.39546009337423604,5901.295104767973
0.352,-0.4794072220318424,5895.439863524168
0.356,-0.5328072007631361,5901.779602421178
0.36,-0.5455452003441015,5896.431319143158
0.364,-0.5158235333767325,5904.087458526586
0.368,-0.4517118924424984,5903.952583617034
0.372,-0.3696089197666442,5897.712085924775
0.376,-0.28990273255554616,5902.446617672648
0.38,-0.2310515756626748,5893.220199319361
0.384,-0.20388003235145902,5896.821433792239
0.388,-0.20805299773912497,5908.055283265561
0.392,-0.2322163616906819,5900.6221098919
0.396,-0.2580521208017951,5897.644984148042
0.4,-0.2668376419306845,5901.325820711335
0.404,-0.2459172739434494,5907.448448054844
0.408,-0.19263359863416055,5903.713320012002
0.412,-0.11463267150774038,5898.795700751852
0.416,-0.027051145521171847,5897.389317546594
0.42,0.05196329582040556,5894.6254028325175
0.424,0.10579828089486329,5908.891488942531
0.428,0.12279086762210947,5908.287391634417
0.432,0.09800936590222448,5893.314929287637
0.436,0.03358707841998415,5900.475752137011
0.44,-0.061923946296962844,5896.074004655356
0.444,-0.17492211364041954,5897.184829359641
0.448,-0.2888764474143822,5898.080705618899
0.452,-0.38707834454781614,5898.370288537403
0.456,-0.4554251929398765,5892.501778249135
0.46,-0.48451705438727366,5906.88975588366
0.464,-0.4708765075870282,5896.441404132444
0.468,-0.4175829481338523,5896.005705854766
0.472,-0.3344049877050573,5896.976277842849
0.476,-0.23702041116286746,5891.47593023594
0.48,-0.14484491566000665,5911.351125686533
0.484,-0.07743684132721258,5898.062597093965
0.488,-0.05011831974560031,5899.243379632942
0.492,-0.07005064047381461,5907.808579221063
0.496,-0.13416947474089563,5897.349544313487
0.5,-0.229919604823351,5905.207991429864
0.504,-0.3387856728610958,5897.475331586338
0.508,-0.4415697737919968,5904.26085589241
0.512,-0.5236068223995859,5895.589562284895
0.516,-0.5779683825613798,5902.825781300957
0.52,-0.6054091084714118,5887.206569749891
0.524,-0.6112348283057415,5900.199980870448
0.528,-0.6007476483563479,5900.464307355774
0.532,-0.575601125277502,5901.345409556357
0.536,-0.5329135239205951,5898.372475379228
0.54,-0.4676092089083756,5904.117393715341
0.544,-0.37680975740816597,5904.487825246583
0.548,-0.2639669025669299,5903.530748605122
0.552,-0.1404633616730162,5898.64491610496
0.556,-0.02361096450360283,5898.491290982195
0.56,0.0683003789744528,5895.552699098153
0.5640000000000001,0.12183907024011432,5911.200692574532
0.5680000000000001,0.13264667481676523,5895.711515736654
0.5720000000000001,0.10628231241706938,5899.925748563343
0.5760000000000001,0.05554841391694921,5898.153462553104
0.58,-0.004227241561918372,5888.078985215538
0.584,-0.059714064367809475,5893.391929206153
0.588,-0.10221237076156403,5899.117118469544
0.592,-0.12814327585142132,5903.716599345997
0.596,-0.13832465425468843,5894.067796371419
0.6,-0.13705550360461793,5903.451012099235
0.604,-0.13133046120822628,5896.114829664911
0.608,-0.12988663775313805,5900.253186424699
0.612,-0.1416788028106225,5903.16742226524
0.616,-0.1737175128259199,5896.284790720097
0.62,-0.22877780258682162,5895.1007330023485
0.624,-0.3039175159079458,5884.763604175647
0.628,-0.3906137333469089,5901.003932518603
0.632,-0.47664205870553017,5902.1139937428325
0.636,-0.5490717044027476,5903.640119521922
0.64,-0.5973763642858553,5901.363610801292
0.644,-0.6157603454203012,5898.431988667456
0.648,-0.6042236793395201,5892.510561673173
0.652,-0.5683620008477434,5893.263297512017
0.656,-0.5180968737407412,5899.774154924847
0.66,-0.4654150918636369,5905.846107312506
0.664,-0.42119562187653437,5902.061398331722
0.668,-0.391771636624904,5900.288952986681
0.672,-0.3767037374707769,5901.814832482213
0.676,-0.36929119247049264,5894.898200703392
0.68,-0.3600538472099361,5895.468425169207
0.684,-0.3416295107609662,5896.045895868524
0.6880000000000001,-0.31270670993352173,5904.985211511216
0.6920000000000001,-0.27922478773326515,5896.973559638843
0.6960000000000001,-0.25241024912466653,5909.007134875365
0.7000000000000001,-0.24443146839960134,5897.225207704708
0.704,-0.26319366496542473,5900.311443711389
0.708,-0.3080946379877061,5896.274420705503
0.712,-0.3684671096543442,5888.921854187195
0.716,-0.4257375435100936,5898.871494641528
0.72,-0.45891720734428587,5895.262963528759
0.724,-0.45147951178266366,5902.907754670426
0.728,-0.39694175758378925,5898.479651621519
0.732,-0.30108413121844935,5898.74651741939
0.736,-0.1803829906077801,5894.728541794053
0.74,-0.05787646951213892,5897.9216624625205
0.744,0.04173949485292443,5904.413811766819
0.748,0.09657440956997229,5894.658979487463
0.752,0.0912167472259189,5906.365814821572
0.756,0.01956847580757856,5905.924104676128
0.76,-0.11347218210547458,5905.560292709785
0.764,-0.2920411696869474,5903.410088134063
0.768,-0.49140987921005713,5899.65110503674
0.772,-0.6819643767064356,5898.447135368646
0.776,-0.8343482178758018,5899.30933606342
0.78,-0.9247375014612146,5903.862287046492
0.784,-0.9391114090664979,5895.832295886316
0.788,-0.8755679483576372,5894.807713512297
0.792,-0.7442447458511127,5892.953742448897
0.796,-0.5650473502678584,5902.095767072583
0.8,-0.36387729102978267,5903.255413849068
0.804,-0.16822656626579927,5907.0833246914735
0.808,-0.0029088126724403363,5898.768884300907
0.812,0.11351003258053698,5903.128186146882
0.8160000000000001,0.17120351890391422,5896.851799537084
0.8200000000000001,0.17019365325035576,5903.189257355367
0.8240000000000001,0.11975598499234955,5901.441826299826
0.8280000000000001,0.03596316521753933,5898.857785768164
0.8320000000000001,-0.062226114708962145,5902.056742288009
0.836,-0.15725049554082965,5899.706844284651
0.84,-0.236308113885346,5904.125012123342
0.844,-0.2929572130953037,5898.379097211491
0.848,-0.32687358008410367,5898.817223213928
0.852,-0.3422346548000348,5898.412687819167
0.856,-0.34538933139457956,5903.2267107218095
0.86,-0.34251183003412816,5893.595817477922
0.864,-0.3378912807670915,5899.9683894078025
0.868,-0.33318330600077717,5892.794069649623
0.872,-0.3274554281789113,5898.705512998376
0.876,-0.317682250144938,5902.744727181565
0.88,-0.29961286110945234,5899.028087844794
0.884,-0.2691226877549226,5906.859915974747
0.888,-0.22384135484354203,5902.382835946185
0.892,-0.1643344505273922,5902.838791954655
0.896,-0.09414425223505271,5903.523239726379
0.9,-0.018741772463059206,5904.40336168074
0.904,0.05577589329318054,5895.771797217264
0.908,0.12332539363453544,5895.307890537294
0.912,0.17755586812173696,5898.309951832431
0.916,0.21126528356369062,5895.12734516629
0.92,0.21655562703291853,5894.50585939689
0.924,0.18637670818013932,5900.8042465479775
0.928,0.11719015935557899,5902.015916192348
0.932,0.011683815205770776,5901.160730602664
0.936,-0.1198088520808332,5903.018212646809
0.94,-0.26018407077095873,5901.644908624369
0.944,-0.3888032435538652,5901.091731883446
0.948,-0.48600231212518835,5897.444051073009
0.952,-0.5372288512714596,5906.761480365703
0.956,-0.5356782620938635,5898.658724621331
0.96,-0.48333956909432374,5897.977852276141
0.964,-0.3908714901622098,5895.899804194935
0.968,-0.276370065025241,5900.608139149022
0.972,-0.16260730864708323,5906.167273035127
0.976,-0.07263836877539584,5902.471129758143
0.98,-0.024703965468050943,5906.135596629015
0.984,-0.028078686890303496,5898.892802453631
0.988,-0.08126819112180071,5906.389090341112
0.992,-0.173049794311,5897.459661076448
0.996,-0.28588725493490763,5899.925555348998
1.0,-0.40052579802084404,5895.031393559582
1.004,-0.5002541726818567,5900.950449717111
1.008,-0.5736200282952757,5906.105845268709
1.012,-0.6152654571259947,5906.312268216084
1.016,-0.6254748840871175,5896.232775971787
1.02,-0.6092919574846922,5902.627954104743
1.024,-0.5755444843454948,5893.279887447379
1.028,-0.5355132295269189,5899.615183930234
1.032,-0.5009490740594161,5899.368269973807
1.036,-0.48155049701702374,5909.4122641471085
1.04,-0.48241267014841394,5895.059316095172
1.044,-0.5022062851312641,5900.806408185785
1.048,-0.5328486881482583,5898.526130891512
1.052,-0.5609948193124001,5900.8530105941
1.056,-0.5709552754676328,5902.126262210473
1.06,-0.5482085148951242,5898.355675567938
1.064,-0.4828055183178279,5904.390321373819
1.068,-0.37232181230983863,5897.908518368093
1.072,-0.2240549399646777,5904.4362770215575
1.076,-0.05576909541825923,5902.135275380356
1.08,0.10604780401921622,5892.485499790833
1.084,0.2310333855501647,5904.284101010934
1.088,0.29229363776577394,5905.306276469733
1.092,0.27427606466299237,5896.222207911662
1.096,0.17849196781236232,5897.622228329794
1.1,0.024726062300387795,5903.384745516837
1.104,-0.15322427574272598,5896.239637908082
1.108,-0.31623611443869093,5899.713337621034
1.112,-0.4302233929412097,5905.437856210291
1.116,-0.4747650892888694,5906.875205707693
1.12,-0.4473082047603233,5904.323111561354
1.124,-0.3621043757698922,5899.136847458855
1.128,-0.2450674071007571,5900.48637823686
1.132,-0.12684710206264868,5904.142807650485
1.136,-0.036246636216865975,5903.14564989434
1.14,0.0048652339822609775,5903.117748811425
1.144,-0.015016907440994291,5904.17579804826
1.148,-0.09512339477777984,5900.560336467695
1.152,-0.22229697185719471,5897.33409270876
1.156,-0.37329942920715703,5891.010441108336
1.16,-0.5195921156937999,5894.515585652221
1.164,-0.6334604342137392,5892.511149015135
1.168,-0.6936827320959659,5895.044554955225
1.172,-0.6893489122711157,5900.303362061213
1.176,-0.621290645499766,5895.873554438963
1.18,-0.5011315158717944,5889.61916486493
1.184,-0.34825031617541197,5902.03943275422
1.188,-0.18533201582030148,5903.311916059134
1.192,-0.03358414114889312,5898.365069514171
1.196,0.09116309227164687,5907.357897955941
1.2,0.18045879441217919,5903.0186663852
1.204,0.23286434768984374,5910.702479804718
1.208,0.2515854780303335,5902.411691762778
1.212,0.24127036146921016,5903.838747330176
1.216,0.2053744602287653,5906.959047875762
1.22,0.14501891015815405,5898.170021852841
1.224,0.05951065283425347,5900.029769428359
1.228,-0.05184471142789822,5899.195398477631
1.232,-0.1872291893821249,5903.423603396958
1.236,-0.33989401851444806,5898.927731238875
1.24,-0.49695013596116844,5892.136188128215
1.244,-0.6404655995699328,5903.7266754827015
1.248,-0.7511174412940217,5903.072805980519
1.252,-0.8132443517514222,5900.063649055318
1.256,-0.8191870131421912,5894.737301553995
1.26,-0.771085384697459,5898.123738961107
1.264,-0.6797009829429581,5904.37495123853
1.268,-0.5613347562206803,5899.753064121829
1.272,-0.4344519424578014,5896.052884591307
1.276,-0.31700297090868723,5900.521770925225
1.28,-0.22440114966778554,5896.894103942474
1.284,-0.16763971977050932,5898.454348798993
1.288,-0.15140648418925262,5898.500161090816
1.292,-0.1727521413049747,5896.33635515331
1.296,-0.22118315188544652,5900.094584301653
1.3,-0.2807795581817648,5896.241205301049
1.304,-0.33425127661516424,5903.056030406953
1.308,-0.36792185734138083,5898.781876120593
1.312,-0.37583186725616824,5897.823832905708
1.316,-0.3611240413664314,5898.699455028886
1.32,-0.3339261339104135,5892.538002343079
1.324,-0.3065840033667321,5899.903416106902
1.328,-0.2883509962930634,5897.379272092621
1.332,-0.2818095545713414,5888.527336934563
1.336,-0.2823632651696907,5893.051568252964
1.34,-0.28068783875166153,5897.6551402287205
1.344,-0.2668282389262731,5895.028596977596
1.348,-0.2341303737335857,5898.485931578454
1.352,-0.1814943108981855,5908.93590057626
1.356,-0.11338212976207436,5901.185084047976
1.36,-0.038174472623831834,5897.615575483499
1.364,0.03380760321574772,5899.663881873433
1.368,0.09153777686265883,5891.480633636588
1.372,0.12378840421324734,5896.730516811744
1.376,0.11999027188488567,5906.673064869784
1.38,0.07274192660293513,5892.538262899721
1.384,-0.017481888993783758,5894.099568519936
1.388,-0.13615888866926293,5900.646031168995
1.392,-0.24922400111946932,5898.751371798447
1.396,-0.30133576556186664,5900.877499998426
1.4,-0.22077743433025224,5894.11150648517
1.404,0.06779638378838904,5909.994193609191
1.408,0.6242616220400491,5903.489066740987
1.412,1.4720337216555353,5895.648713443354
1.416,2.581980526954995,5902.220164964575
1.42,3.868505916286342,5902.764903089325
1.424,5.202183366157375,5897.771564385227
1.428,6.436962127208661,5896.185756264496
1.432,7.4431310937088435,5910.044839676849
1.436,8.134509004106748,5906.805515459544
1.44,8.481631003112854,5907.958031490696
1.444,8.509313995538525,5896.832220091097
1.448,8.282563559003917,5901.184238181062
1.452,7.88706264600485,5903.475045154754
1.456,7.40990678313324,5902.705807453543
1.46,6.92443881875036,5902.2897290202045
1.464,6.481196382059461,5896.59506091591
1.468,6.105445879109672,5907.478744733598
1.472,5.800487986549444,5911.963148510358
1.476,5.554845331637704,5899.160638850992
1.48,5.3506782638091455,5899.208855110572
1.484,5.17078694761402,5901.404341788076
1.488,5.0027295595865535,5897.893468592338
1.492,4.840214898038839,5896.37139116629
1.496,4.6827227529887585,5899.700089952641
1.5,4.533990660410871,5904.4305905719175
1.504,4.399466962097756,5888.891964038264
1.508,4.282923872111974,5902.46174061576
1.512,4.183183628409574,5902.039550826284
1.516,4.092493101383412,5895.316707055424
1.52,3.997574765579521,5891.0877236658125
1.524,3.883005302664398,5900.110334094571
1.528,3.735515166076819,5894.42540173391
1.532,3.5477654149590374,5901.253963815531
1.536,3.320761034272977,5890.873768442166
1.54,3.064573153916016,5911.159679113509
1.544,2.7971968521251998,5896.520288393799
1.548,2.5414570652545945,5908.455585516007
1.552,2.3202439977361546,5905.341182225346
1.556,2.1510036701199184,5896.582261163816
1.56,2.041008819864041,5901.252048290491
1.564,1.985077107303088,5911.309427163935
1.568,1.966817184861537,5899.062938650323
1.572,1.9632870245012861,5901.504776166387
1.576,1.9516308134519444,5897.554700517552
1.58,1.915397987175,5902.515827681228
1.584,1.8483055642573123,5901.962643653992
1.588,1.7543185740313094,5898.969856031992
1.592,1.644551419272299,5895.566545584097
1.596,1.5326391066411749,5899.2068457059695
1.6,1.4303863980476201,5901.923615459874
1.604,1.3449881440474503,5901.084816471273
1.608,1.278342733305717,5892.170056418915
1.612,1.2281140383312055,5901.185891073085
1.616,1.1895323472875727,5901.41844845974
1.62,1.1569084118366513,5901.02560828658
1.624,1.1244988229455128,5902.931467430294
1.628,1.087121873197398,5900.091810537101
1.632,1.0411067925132897,5902.3581429815085
1.636,0.9856564516211146,5904.670674031816
1.64,0.924012172186988,5891.17946942753
1.644,0.8634800504530606,5898.625522627884
1.648,0.8136564090029887,5893.883978808377
1.652,0.7830413760896818,5889.2423417308255
1.656,0.7752425121339458,5889.078421694308
1.66,0.7864588348090772,5883.652274523816
1.664,0.8055736091603375,5875.457311910333
1.668,0.8172095239854165,5884.030039504873
1.672,0.8068843891786457,5883.359066508136
1.676,0.7664052812321202,5880.123593380804
1.68,0.697412842490677,5887.71723712794
1.684,0.6116646308141123,5885.304325963368
1.688,0.5277969389131779,5875.225218949643
1.692,0.46547947519319266,5882.004605318397
1.696,0.43880981511441425,5871.977252077442
1.7,0.45122249049457624,5873.624605729271
1.704,0.4938497116287698,5875.654376670376
1.708,0.5480817082256573,5872.117918136487
1.712,0.5913687948810112,5872.099271132103
1.716,0.6039218966498135,5869.470733089226
1.72,0.5738092967654675,5868.43361628474
1.724,0.4991351101704506,5865.802862493782
1.728,0.3875176036747271,5869.72234484684
1.732,0.2538208419353128,5860.251435904054
1.736,0.11693223735435204,5862.624629650278
1.74,-0.003976865332328926,5869.899278207911
1.744,-0.09330122738085471,5861.400367529403
1.748,-0.1422408626802513,5864.431075374472
1.752,-0.15037929956892163,5859.562377406708
1.756,-0.12473491757661655,5858.554744329654
1.76,-0.07640582395220513,5861.700840944579
1.764,-0.01626235195991736,5854.212034132547
1.768,0.048238689619763124,5861.376828346719
1.772,0.11379147276693541,5850.0059648858205
1.776,0.17970335109055416,5856.154482404008
1.78,0.2452513156203883,5855.271852244349
1.784,0.30717900012870947,5854.261180006211
1.788,0.35831420498811856,5849.5095645565925
1.792,0.3880250893567208,5856.806872139344
1.796,0.3847076011218035,5844.4453141551685
1.8,0.3396769721618466,5847.388446286613
1.804,0.25117941191909393,5849.703216866432
