时间(s),电压(V),幅值(高频80K)
0.0,-0.9284800307384306,5902.654272606863
0.004,-0.6711703091449184,5895.81426747029
0.008,-0.4314342298565622,5910.078097987326
0.012,-0.22533555166873964,5894.000614352423
0.016,-0.06433324704278372,5896.302107306965
0.02,0.044476922460762396,5903.71436774269
0.024,0.09782624882667601,5898.90170317728
0.028,0.09659841684204395,5897.633763707929
0.032,0.04672482777303537,5902.939544834132
0.036,-0.04023785501678294,5909.4918839839
0.04,-0.14721899633318752,5899.295332808464
0.044,-0.2525101477631565,5892.136714840007
0.048,-0.33196616347471963,5893.7832257773225
0.052,-0.36324945811813536,5897.41282278023
0.056,-0.33166529105274006,5905.047477948368
0.06,-0.2354107940457591,5898.899142658996
0.064,-0.087559266926602,5895.811384415632
0.068,0.08649959727421634,5905.4909591641135
0.072,0.2552378852656925,5898.093672804698
0.076,0.3883985471745256,5897.2710686874525
0.08,0.46320330283017774,5901.767239597248
0.084,0.4679544558020529,5902.386588180277
0.088,0.40287240577067746,5900.332542872356
0.092,0.2787788395110064,5898.66813182052
0.096,0.11444670316118574,5901.515402207113
0.1,-0.06663306678160814,5903.893581332106
0.104,-0.23957250590256546,5897.888170057123
0.108,-0.38134968144454523,5898.55291556989
0.112,-0.47394577651967107,5896.392326668879
0.116,-0.5069132420989849,5907.042934006536
0.12,-0.47855645161660865,5901.851724924895
0.124,-0.39517519146959745,5906.906944981618
0.128,-0.2687917881472007,5899.999564469164
0.132,-0.11466114843822446,5894.273092802103
0.136,0.050333034177497224,5901.461594135605
0.14,0.2085490572793169,5892.68153917371
0.144,0.34289166785095876,5901.520017214525
0.148,0.43927145164398695,5904.805949164991
0.152,0.48944211363651563,5895.823174887436
0.156,0.4925634068599794,5897.831442363367
0.16,0.4545942307905918,5898.230196641825
0.164,0.38616614420357726,5896.885906066985
0.168,0.3002562799106153,5904.050760961322
0.172,0.21026931261290013,5899.7591828465065
0.176,0.12815513219366864,5897.800280533707
0.18,0.06212639139964391,5896.655412418519
0.184,0.014358387155454174,5895.471050610885
0.188,-0.020204315897013464,5900.1099094093215
0.192,-0.05289161643792769,5897.863847694336
0.196,-0.09800462340496392,5902.740317953766
0.2,-0.16801713713676528,5899.069756820948
0.204,-0.2688640980340191,5902.334032100842
0.208,-0.396936444544605,5911.276803521295
0.212,-0.5386563593685098,5896.560289676197
0.216,-0.6725323982865494,5901.4958279451
0.22,-0.7731204429141668,5895.456894206096
0.224,-0.8162738875389959,5906.484838981148
0.228,-0.784851675497391,5897.756211965139
0.232,-0.6736051450785356,5895.776525016633
0.236,-0.4917672157885896,5902.550710740396
0.24,-0.2622305090717512,5897.744393891243
0.244,-0.017156845123288744,5898.664717982562
0.248,0.20880514251051613,5899.31048500166
0.252,0.3855152633315722,5898.431212593133
0.256,0.4924701663787422,5901.406615056549
0.26,0.5210931837511136,5900.18398480456
0.264,0.47445460995716315,5905.081277142433
0.268,0.3653630915593843,5903.616881277187
0.272,0.21377807136408972,5903.373335368624
0.276,0.044078694260819395,5899.587190100287
0.28,-0.11776148539786109,5897.786936846621
0.284,-0.24723327552031926,5895.20891137252
0.288,-0.32450788960322574,5900.862559110318
0.292,-0.33739262215264537,5906.79904473374
0.296,-0.2834485841910885,5897.908569199154
0.3,-0.17075717362083204,5895.7460153217335
0.304,-0.017038079758045943,5897.369730724877
0.308,0.15290039785917753,5895.0663822873385
0.312,0.3111633679346892,5897.310397208925
0.316,0.4317088557076653,5896.881297452466
0.32,0.49519096836481863,5895.074049252911
0.324,0.4922870255162961,5899.1380231001
0.328,0.42442329898485875,5900.1075435058765
0.332,0.3018609940817612,5908.8946090360005
0.336,0.14020842844716205,5903.886299274966
0.34,-0.04309523079771049,5897.2967864049215
0.344,-0.23117613912751925,5900.196992584035
0.348,-0.4088383270222133,5903.178396278374
0.352,-0.5630790816391334,5892.606119848727
0.356,-0.6837090517448915,5903.8101550465735
0.36,-0.7640867400730791,5906.844340506089
0.364,-0.8015543474873509,5891.307274789602
0.368,-0.797486455081927,5897.306978502224
0.372,-0.7571948468552655,5900.177110762668
0.376,-0.6895945422671472,5897.357956650945
0.38,-0.6060455090660969,5897.524674131904
0.384,-0.5180645606902176,5896.098596560196
0.388,-0.4346252813963017,5903.169436491935
0.392,-0.36043023619065717,5897.471207681932
0.396,-0.2959701387175474,5907.151917014738
0.4,-0.23892877869039397,5909.558178562223
0.404,-0.18586188351486652,5904.361612425349
0.408,-0.13345194812984923,5895.939521231144
0.412,-0.07926353190459687,5902.093682662458
0.416,-0.022167527381605576,5904.363439287209
0.42,0.03742228377534349,5898.477062013977
0.424,0.09739875926575414,5903.957227984565
0.428,0.153917514834818,5898.164590400117
0.432,0.2017046746112271,5897.8065679409
0.436,0.23497479235245275,5897.183672540771
0.44,0.24883147361455077,5899.504210413635
0.444,0.24061807625671786,5898.543954890441
0.448,0.21075483158397554,5897.530693331861
0.452,0.16301848964200955,5894.188229566975
0.456,0.10440000772070435,5894.823326077292
0.46,0.04437765261680275,5905.538178396128
0.464,-0.006819583699305637,5896.6427297510345
0.468,-0.04094176242032409,5899.753675118582
0.472,-0.05445445316157243,5904.279207800324
0.476,-0.049796872421376606,5908.815198242784
0.48,-0.03426713215936701,5894.524296593206
0.484,-0.016896630211366823,5905.925767835641
0.488,-0.004757225358573631,5904.643996634215
0.492,-0.000458458317799423,5900.801606744333
0.496,-0.0019365057157758252,5908.82692635774
0.5,-0.0043591524360494975,5900.075489203749
0.504,-0.0029083005414082238,5895.233720082108
0.508,0.0049815406188236265,5898.964854869988
0.512,0.018671093761352116,5897.062599963023
0.516,0.034413232916302314,5899.158473411264
0.52,0.04577634636474009,5892.14640988181
0.524,0.04416906503764613,5897.453082419132
0.528,0.02012818698216002,5893.203060209313
0.532,-0.033984585051841744,5908.685890659787
0.536,-0.12044644441426672,5893.3803598973
0.54,-0.23356430138932607,5889.517219113767
0.544,-0.359731786189253,5902.988302406859
0.548,-0.4806600310350227,5896.581506972375
0.552,-0.5786718366433896,5906.782097116055
0.556,-0.6417919635038717,5902.598294902443
0.56,-0.6663714589726686,5898.251948632673
0.5640000000000001,-0.6563530636917075,5906.449011386062
0.5680000000000001,-0.6201711623385552,5899.296253260718
0.5720000000000001,-0.5673155219110243,5893.38322149228
0.5760000000000001,-0.506181123842366,5901.857798897664
0.58,-0.44353451467284183,5899.715001337834
0.584,-0.3847815650486188,5898.486092887333
0.588,-0.33397559655687575,5903.235662317101
0.592,-0.2931782405474511,5891.927394691756
0.596,-0.26166498144494865,5902.709464437062
0.6,-0.2357153498268774,5899.443014605399
0.604,-0.2092193229424097,5900.458497875525
0.608,-0.1747924046321532,5892.706058056242
0.612,-0.12517114457225068,5898.468454821462
0.616,-0.05512048014194892,5899.653926381039
0.62,0.03588268390112928,5896.360758811038
0.624,0.1407986173890905,5903.006575026336
0.628,0.24380876900829773,5899.93203064072
0.632,0.3226179554028122,5895.191644398331
0.636,0.35450197136197553,5901.41107555156
0.64,0.3241310518200218,5903.282450681509
0.644,0.2300662016469993,5902.221532842469
0.648,0.08718688520538483,5908.3858482088335
0.652,-0.07624973001904686,5899.135071925912
0.656,-0.22624587425777537,5895.923421438949
0.66,-0.33291764115066813,5898.172968401474
0.664,-0.3791574574570117,5907.26001700202
0.668,-0.3650350199192332,5899.697957803982
0.672,-0.30646343334742304,5896.7354001522535
0.676,-0.22896444657379142,5898.621636634616
0.68,-0.15931542790272357,5898.59350887027
0.684,-0.11844038442643962,5896.316221029034
0.6880000000000001,-0.11782459223940597,5897.607298200871
0.6920000000000001,-0.1596137635283587,5894.282955876246
0.6960000000000001,-0.23872204140901673,5899.214569362935
0.7000000000000001,-0.3449329657576529,5892.001949434625
0.704,-0.464156252011414,5906.31114318279
0.708,-0.5794234817619459,5895.107659401671
0.712,-0.6726424938912958,5895.800599803445
0.716,-0.7275392528061643,5901.298513409453
0.72,-0.7332925796108805,5903.088165709951
0.724,-0.6876588655362534,5901.903242235758
0.728,-0.5981689723266832,5886.883385288486
0.732,-0.4804556299717006,5897.583494068357
0.736,-0.35395478993526697,5904.308801424329
0.74,-0.2366350631253469,5905.888482008921
0.744,-0.14105830374849668,5905.522354333954
0.748,-0.07328142442476475,5901.231891526048
0.752,-0.034355080272744344,5901.755107732526
0.756,-0.022739170452671462,5898.81178201011
0.76,-0.03577013311800021,5899.921756925425
0.764,-0.06940163197967393,5897.693185520491
0.768,-0.11704472505961702,5899.227925284844
0.772,-0.16925593342637174,5900.688960143012
0.776,-0.21541688505635487,5903.123002083775
0.78,-0.2469115777560288,5899.201413792482
0.784,-0.2601174665219853,5904.163456296594
0.788,-0.2576517822905487,5894.76424091675
0.792,-0.24734683862269052,5902.383353958742
0.796,-0.23950449292341272,5893.503366207538
0.8,-0.2435502659640458,5900.534900096562
0.804,-0.2651748037042,5896.43179627018
0.808,-0.3046690689251815,5898.740255627607
0.812,-0.3567354539073582,5901.196636822479
0.8160000000000001,-0.4116797330350508,5903.025851170544
0.8200000000000001,-0.4575706401224384,5901.509888145025
0.8240000000000001,-0.4828356874864024,5899.707610060813
0.8280000000000001,-0.4788945921790518,5902.710768880704
0.8320000000000001,-0.4425256802407299,5900.136685470394
0.836,-0.37744054247716596,5904.095980747265
0.84,-0.29426112835298707,5895.169951342904
0.844,-0.20832317721068874,5896.699894795953
0.848,-0.13564509005358985,5899.322546505663
0.852,-0.08845130162862082,5888.555931331155
0.856,-0.07196591794833408,5899.562010422093
0.86,-0.08349210287497205,5902.975326155294
0.864,-0.11373609049711501,5907.36017150325
0.868,-0.14979296788864596,5902.215790655052
0.872,-0.17915268932783243,5898.951237685412
0.876,-0.19381162814481762,5918.943093233497
0.88,-0.1930371933667594,5895.749367528712
0.884,-0.18343331623464246,5899.947757378293
0.888,-0.17620381176297076,5900.1833899044495
0.892,-0.1830218928161979,5901.430363557098
0.896,-0.21235394477111594,5908.787667321584
0.9,-0.26727862597976293,5907.115238501395
0.904,-0.34482362236011366,5902.651160248351
0.908,-0.43650802876530836,5902.311520441934
0.912,-0.53000385074941,5892.614639484606
0.916,-0.6118756487785222,5898.712283881745
0.92,-0.6708630094260907,5892.7669010259215
0.924,-0.7006264028599369,5904.866985346285
0.928,-0.7009743546886932,5904.579537745191
0.932,-0.6773147309434112,5895.859262954096
0.936,-0.6388058522730808,5895.061245569076
0.94,-0.5959532957875329,5900.095901140974
0.944,-0.5582330140432844,5905.307676194345
0.948,-0.5320502560734046,5900.48376909685
0.952,-0.5192635104021438,5902.15850010307
0.956,-0.5166997741141697,5903.168260784301
0.96,-0.5173241457021408,5903.614126458961
0.964,-0.5134143282429533,5898.219799559069
0.968,-0.5009036915089442,5898.16863816387
0.972,-0.4827579016175997,5903.245374850617
0.976,-0.4692054314822674,5907.907304061391
0.98,-0.4742335028733877,5892.9304756563215
0.984,-0.5098100270672693,5900.351182979767
0.988,-0.5802931158370895,5892.501166106919
0.992,-0.6790946559442136,5894.511108817649
0.996,-0.788672784323223,5902.400126051536
1.0,-0.8840405321096765,5900.200656096764
1.004,-0.9391385979357924,5901.190749664645
1.008,-0.9344256895158395,5896.671434845031
1.012,-0.8632454597152822,5902.324149765848
1.016,-0.7346381772461226,5897.028914068886
1.02,-0.5714758134036189,5906.936094886387
1.024,-0.404477314984986,5902.73346850448
1.028,-0.2640253482340823,5894.496843423217
1.032,-0.17238415138227123,5892.76976835754
1.036,-0.13872922380057015,5898.024160919527
1.04,-0.15830893520964076,5898.072823819154
1.044,-0.21552973664170103,5900.385275734681
1.048,-0.28956806463410417,5896.776310728455
1.052,-0.3606495954649944,5906.299056467283
1.056,-0.415195141797097,5907.870104238164
1.06,-0.4483893121115374,5901.433919917781
1.064,-0.4635283001888728,5904.406975550368
1.068,-0.46876066182315024,5897.121454872008
1.072,-0.47290892723165107,5900.267194144059
1.076,-0.4821788042447379,5899.860159269399
1.08,-0.4987130783302577,5905.879629716757
1.084,-0.520836416171481,5908.418302692558
1.088,-0.5441696749552952,5894.080765250441
1.092,-0.5628389850120318,5906.369647245462
1.096,-0.5705548667365821,5903.417151153917
1.1,-0.5618147515047454,5899.878369188623
1.104,-0.5333768194784477,5906.144732140287
1.108,-0.48555012065083303,5903.68244398066
1.112,-0.4224504983896252,5892.271197556886
1.116,-0.3508109374428594,5902.456321102976
1.12,-0.27795846880745867,5890.749413870221
1.124,-0.21017561752525413,5901.326470494335
1.128,-0.1522327355885794,5897.421816191939
1.132,-0.1078836719808067,5904.6063434743455
1.136,-0.08047714636277438,5899.048978782176
1.14,-0.0729316863106092,5902.15639589212
1.144,-0.08691049763030136,5900.908781454396
1.148,-0.12166068951312486,5901.82856463694
1.152,-0.17324331428547665,5903.302482401017
1.156,-0.23465953412912421,5897.022555558138
1.16,-0.29693684417846605,5902.754166976933
1.164,-0.35088557297662176,5898.921117870069
1.168,-0.3890541938357208,5905.327393582189
1.172,-0.40735993234409534,5896.045386861559
1.176,-0.40590961558803224,5897.510010350512
1.18,-0.3886874547456434,5902.666517991447
1.184,-0.3621342900668994,5903.175340282245
1.188,-0.33307331350331587,5899.8611442299925
1.192,-0.3066920424253892,5901.874128036407
1.196,-0.2852217555102917,5894.201560182454
1.2,-0.267663328967339,5899.09508759057
1.204,-0.2506122553908756,5892.2204210923965
1.208,-0.22997459942556223,5895.95775165282
1.212,-0.20300170014502758,5903.706946771963
1.216,-0.16979981583095394,5910.2007076086575
1.22,-0.13374878295510717,5900.3704131470295
1.224,-0.10090918261167969,5906.845394093789
1.228,-0.07875705549928577,5899.025731359345
1.232,-0.0743741329253592,5898.524304125102
1.236,-0.09223578049539963,5902.789887826444
1.24,-0.13217320117569228,5900.157983384007
1.244,-0.18831577573146147,5891.203529148554
1.248,-0.2494670698030743,5904.651065187027
1.252,-0.3007951181953837,5912.370698199238
1.256,-0.32637884904153436,5902.59369458031
1.26,-0.31212395384516173,5899.440688294124
1.264,-0.2486917296977462,5897.898878405706
1.268,-0.13415828647698808,5898.364234123671
1.272,0.024006694975142927,5897.01806016629
1.276,0.20825858875679262,5896.749518548155
1.28,0.39222673502420186,5907.007208996184
1.284,0.5442418245706737,5899.956771627024
1.288,0.6329403884865596,5892.919178900925
1.292,0.6340227908066475,5899.921719708119
1.296,0.5365655324055659,5904.22053414531
1.3,0.3469759135853478,5903.816808249233
1.304,0.08899478417273886,5906.093799564102
1.308,-0.20080874380181798,5897.516389922771
1.312,-0.4810890698716184,5903.985811090967
1.316,-0.7149561571599234,5900.26950213895
1.32,-0.8774356556832739,5904.943568639262
1.324,-0.9588950736766794,5895.684159795527
1.328,-0.9639280892399611,5901.092309575053
1.332,-0.9070161681992427,5896.653936634001
1.336,-0.8071493267130988,5895.672111206188
1.34,-0.6832872724884989,5907.139627039043
1.344,-0.551637230614089,5898.681121513746
1.348,-0.4248409947156219,5903.426723465997
1.352,-0.31257634567933046,5899.610760645147
1.356,-0.2227258211369748,5901.285280291845
1.36,-0.1620771931826723,5901.072734857723
1.364,-0.13569123591639293,5903.789855916699
1.368,-0.14485058043949003,5898.957520163883
1.372,-0.18463324591874394,5887.932374395048
1.376,-0.2427652719012029,5897.735713328009
1.38,-0.30087702023855284,5907.6328431836655
1.384,-0.33810305271857,5895.730396282067
1.388,-0.3360807562485587,5903.639510556336
1.392,-0.2840243964531417,5906.84668457095
1.396,-0.18236313225964804,5891.709529224622
1.4,-0.04354561728531332,5902.7917416757655
1.404,0.11062106852675159,5906.668516175449
1.408,0.2544698381162214,5901.210110182291
1.412,0.3650503934879471,5894.712562817361
1.416,0.4276480440846172,5898.848099285895
1.42,0.43870565252588106,5902.8784279982365
1.424,0.40572626913142745,5895.940838714457
1.428,0.3445900441817807,5896.53179858297
1.432,0.2750763717697341,5906.703833485311
1.436,0.21567402195824809,5902.072209536966
1.44,0.17917479615551152,5900.498535026536
1.444,0.1705176496123752,5897.108961179249
1.448,0.1874082131526057,5899.266481686094
1.452,0.22287357438923971,5899.616908617465
1.456,0.2681193317244671,5898.488173729036
1.46,0.3143394000353666,5894.90227012599
1.464,0.3531939289204903,5910.536587836977
1.468,0.3766978019460705,5892.230120467598
1.472,0.37748230149359996,5894.078018865658
1.476,0.34982602669365737,5905.438767829982
1.48,0.29125571531484007,5889.044315323004
1.484,0.2043401692479267,5901.028095867615
1.488,0.09821626266952431,5895.504829262207
1.492,-0.01096479967438846,5905.097024819872
1.496,-0.10179057936411559,5896.16650391405
1.5,-0.1521623449014891,5896.49013880252
1.504,-0.14579600345842578,5902.927575920639
1.508,-0.07819832100200988,5901.298565036188
1.512,0.0405976122550402,5898.338288005994
1.516,0.18795628534342587,5892.460226609213
1.52,0.3346082621579701,5893.758269405521
1.524,0.452289143241294,5893.051885747093
1.528,0.5199819241520046,5904.71179010579
1.532,0.526592559908784,5904.476999928854
1.536,0.4700566000194019,5899.696078582094
1.54,0.3548047442419116,5887.760850435016
1.544,0.18971079573957544,5897.780295003018
1.548,-0.012714334874933543,5904.141892324343
1.552,-0.2364623037611688,5895.698023242459
1.556,-0.46235735835652886,5890.823619408616
1.56,-0.669050729855057,5902.057604732859
1.564,-0.8349251470555663,5903.397286259075
1.568,-0.9410299540288503,5904.621453973138
1.572,-0.9746410428540087,5903.299951823546
1.576,-0.9323881046355051,5903.451802870864
1.58,-0.8218985130331447,5895.336256177514
1.584,-0.6614995506819125,5900.123934634661
1.588,-0.4778907755472729,5898.69434940865
1.592,-0.3017754520492945,5907.836758129957
1.596,-0.16194374466365224,5902.031336322712
1.6,-0.07926320035327786,5899.517621846357
1.604,-0.0625648652246721,5902.230641016307
1.608,-0.10799156450451296,5904.1017115765
1.612,-0.20224004151700511,5906.746147983785
1.616,-0.3286163252262713,5901.252305612904
1.62,-0.47335028016807085,5901.242841278666
1.624,-0.629057922135556,5912.043197163084
1.628,-0.7933118619275319,5901.269510283771
1.632,-0.9625057040520908,5893.697438516554
1.636,-1.1232249688939293,5899.125544219203
1.64,-1.2443733067545226,5900.88952080101
1.644,-1.2735728546086502,5883.706913650031
1.648,-1.141020401530038,5898.060627128798
1.652,-0.7724682675020984,5902.224155042919
1.656,-0.10990525248181264,5898.544856703493
1.66,0.8653098761215963,5903.484602891831
1.664,2.1148390387825686,5893.897990250232
1.668,3.5392805705774255,5888.117222492022
1.672,4.992104553859581,5892.6230211898455
1.676,6.30946024005418,5899.080348349331
1.68,7.346674331233482,5904.572573318716
1.684,8.009197389593162,5900.818365551347
1.688,8.268755260823632,5911.666889189109
1.692,8.162073904341712,5902.962692760813
1.696,7.7755318569918055,5904.254215568734
1.7,7.222163883037647,5901.286138498181
1.704,6.617724633212094,5891.937917649028
1.708,6.060994477909422,5896.793590425809
1.712,5.621038164279233,5896.579484266268
1.716,5.33161720415123,5898.500814551732
1.72,5.191435108474234,5902.779045552876
1.724,5.1688405518813205,5890.60482162337
1.728,5.210411468710321,5900.683258060926
1.732,5.253227495034019,5897.6739364543655
1.736,5.239714692909144,5898.569966896517
1.74,5.1320409043122694,5904.244763970072
1.744,4.921668483114024,5902.571814106844
1.748,4.630331250788735,5897.500462286664
1.752,4.301603228045509,5898.79352766999
1.756,3.986054436164238,5899.124032651773
1.76,3.7256073524426156,5900.484669277313
1.764,3.542587473979963,5894.134166269971
1.768,3.436439567683886,5890.707328438039
1.772,3.3878681607079275,5908.029600264413
1.776,3.3677551308442775,5893.47527553214
1.78,3.3472712684200396,5904.9387394120695
1.784,3.306136537570598,5901.882419765892
1.788,3.2373060310321806,5905.453515574585
1.792,3.1474759482462393,5897.887643123357
1.796,3.053453928734143,5898.782584561213
1.8,2.975212532275677,5904.270930425357
1.804,2.9276093318476812,5901.280604800637
