时间(s),电压(V),幅值(高频80K)
0.0,-0.6110582043514952,5901.6375860393055
0.004,-0.43100233256827597,5897.203315604523
0.008,-0.2787309725997791,5901.137906279409
0.012,-0.17289952704952047,5898.983424897389
0.016,-0.11888188176645971,5894.439493841301
0.02,-0.10845179901491428,5900.334224306605
0.024,-0.12343050967985371,5902.242493906773
0.028,-0.1418184640252096,5906.795337777422
0.032,-0.1445784459495664,5903.762752082716
0.036,-0.12121620396578917,5898.086719602813
0.04,-0.07251702680901967,5896.471163454761
0.044,-0.009526620107181367,5894.205231799583
0.048,0.050819699541865423,5906.094882240644
0.052,0.0917359401334783,5901.742575162096
0.056,0.10214753989087808,5899.651638108933
0.06,0.08007444458599287,5899.21084371215
0.064,0.03294164396567771,5897.443287901632
0.068,-0.025245779024175286,5897.120152545829
0.072,-0.07896320219616523,5892.811836488931
0.076,-0.11657926986605305,5903.199967008454
0.08,-0.1339405688322389,5897.396225225652
0.084,-0.134848179006273,5901.747463702624
0.088,-0.12871666381057356,5899.140767217501
0.092,-0.12682839158906029,5890.848787371864
0.096,-0.13865369852910883,5897.515416718274
0.1,-0.16901687322076767,5898.944222551169
0.104,-0.21632296349005947,5894.348175012216
0.108,-0.27214924722585226,5892.168620110628
0.112,-0.3227520346523661,5901.314052212411
0.116,-0.3526165930365246,5902.140792529949
0.12,-0.349190583334353,5905.632697358246
0.124,-0.30731022117440904,5912.407007898778
0.128,-0.23203804596905933,5901.091342838632
0.132,-0.13916718091801564,5903.0493120380615
0.136,-0.05281072450582034,5897.507836855988
0.14,0.00044734473025582106,5902.545385818864
0.144,0.00033611829255396705,5893.343130098636
0.148,-0.05812431155035937,5891.257361607715
0.152,-0.15997254267376615,5900.391371410838
0.156,-0.2735922217899705,5895.44980949496
0.16,-0.36172245176725326,5899.279459760453
0.164,-0.3957590695450314,5894.059929296901
0.168,-0.36721576600164824,5899.589482309017
0.172,-0.29173617289554155,5899.158040604534
0.176,-0.20427654571540496,5884.548370212773
0.18,-0.1472386232625431,5898.466282023031
0.184,-0.15557094938703633,5899.990206394054
0.188,-0.24386205486449217,5902.615345052059
0.192,-0.39986817188008794,5905.165659812955
0.196,-0.5867102016009818,5887.677159047263
0.2,-0.7530239051347563,5899.586524927247
0.204,-0.8479541159619992,5900.044472648622
0.208,-0.8366065029735046,5891.159393116558
0.212,-0.7112951181789718,5894.555096662698
0.216,-0.49483802486653133,5897.238190138019
0.22,-0.2345438270354541,5900.066653144419
0.224,0.011231283609700897,5897.494412690988
0.228,0.18940633101126886,5902.729318110892
0.232,0.26591340401860974,5897.742176460656
0.236,0.2326277418056819,5900.6135728043855
0.24,0.1061141667868743,5907.328680888953
0.244,-0.08011943468744631,5899.735534959641
0.248,-0.286277259504155,5898.896500028537
0.252,-0.47604900099118874,5908.128869381442
0.256,-0.6228754786225394,5890.007255675639
0.26,-0.711944865365209,5898.811349594737
0.264,-0.7388915291047112,5898.101085476316
0.268,-0.7070462321400925,5899.488316625202
0.272,-0.6248603583781702,5893.548131495417
0.276,-0.5041584929213319,5893.754137020524
0.28,-0.3589716183272428,5902.250660720998
0.284,-0.20449358148583813,5896.642375462181
0.288,-0.0560160343450431,5896.425206701529
0.292,0.0720792698253879,5904.965591134931
0.296,0.1673101138267296,5893.381045124496
0.3,0.22028032747104548,5889.023792574896
0.304,0.22611767608722122,5902.499115249402
0.308,0.1857318776410226,5902.179748525601
0.312,0.10613355711839453,5903.666526816034
0.316,-0.0006754211128923995,5910.605347233291
0.32,-0.12000366904425372,5903.738468613518
0.324,-0.23717932435914188,5900.694799346317
0.328,-0.33994582663165257,5901.177602708685
0.332,-0.4202494799340282,5907.061946108734
0.336,-0.4753179164433496,5890.867140258511
0.34,-0.507719545663543,5885.623947214387
0.344,-0.5240255133407085,5893.610202268189
0.348,-0.532310320754837,5903.226117352956
0.352,-0.5396043169758684,5905.084364026702
0.356,-0.5505248293689734,5898.520508046904
0.36,-0.5673957450519895,5909.884172129066
0.364,-0.5910242024109537,5899.217850855009
0.368,-0.6208417176870512,5908.856751708525
0.372,-0.653707767812587,5899.931867722964
0.376,-0.6821048189120756,5893.427981541301
0.38,-0.6937084813282993,5904.832783748229
0.384,-0.6740184008488891,5900.261633455003
0.388,-0.6117180159941997,5891.890130794242
0.392,-0.5042943608269839,5904.0684489929
0.396,-0.36093617256904176,5902.445728364468
0.4,-0.20110234107078423,5896.863248036159
0.404,-0.049350501427809064,5909.117106149553
0.408,0.07128426343262169,5891.202568871275
0.412,0.14468667844012398,5893.357440459115
0.416,0.16413492344041242,5901.309334114092
0.42,0.13179267433109898,5901.202776824534
0.424,0.056428249099252634,5901.062040028761
0.428,-0.04917643658219826,5905.506480101683
0.432,-0.1702037307582504,5905.470772454684
0.436,-0.2909785013861041,5904.054805538392
0.44,-0.3957437389095741,5898.90756732454
0.444,-0.46969165263338153,5913.374895819924
0.448,-0.5006888520528329,5895.155175665095
0.452,-0.4815075266799346,5893.263046237476
0.456,-0.4117646664820406,5897.664928100753
0.46,-0.298613581791184,5900.40659857206
0.464,-0.15563642593090202,5900.040663197355
0.468,-0.00015676269792729822,5895.938404625981
0.472,0.15005772594835703,5898.240703704618
0.476,0.2794696541789489,5890.614151638627
0.48,0.37609150268798175,5903.496660804912
0.484,0.43168205626519734,5898.152990976398
0.488,0.441654512470443,5898.431058575924
0.492,0.4052721881983968,5896.350815292899
0.496,0.3260619109988494,5897.177193430522
0.5,0.2120921242048152,5898.613512003252
0.504,0.07585518642243216,5896.742899126484
0.508,-0.06646906937718199,5889.544658402158
0.512,-0.19664021625380423,5896.453965280667
0.516,-0.29695741075130394,5902.939913964399
0.52,-0.35339430244181597,5893.164384571662
0.524,-0.35834116914454694,5894.50111967725
0.528,-0.31206621933357337,5901.166486144502
0.532,-0.22260003025940142,5895.442769635665
0.536,-0.1043609886276094,5903.715076427719
0.54,0.02395790682148747,5903.678332815259
0.544,0.1418708669322548,5903.183401027568
0.548,0.22980288415955386,5894.11954892012
0.552,0.27193997844958756,5897.891412147018
0.556,0.25896392553916026,5891.788664264299
0.56,0.19006009230842394,5899.191363133127
0.5640000000000001,0.07341184798156583,5887.33438460629
0.5680000000000001,-0.07529336214062879,5899.739691073663
0.5720000000000001,-0.23608758907768485,5906.4426178570775
0.5760000000000001,-0.38866157292322584,5900.00418118487
0.58,-0.5156845179144729,5899.637272881164
0.584,-0.6046001727130093,5896.925308717686
0.588,-0.6479896021034599,5903.084108578932
0.592,-0.6433428819211542,5907.431512240646
0.596,-0.5929885895024098,5897.16421182378
0.6,-0.5042686259148504,5894.594759601464
0.604,-0.3894564639043043,5899.367690500885
0.608,-0.2647473804241657,5898.20287713017
0.612,-0.14796029063364283,5898.576439890515
0.616,-0.05522579416587212,5896.1936234688055
0.62,0.0024512790141054215,5900.190378211038
0.624,0.021606928676715917,5901.248661613611
0.628,0.006849901763612657,5901.811509774143
0.632,-0.030627175024419525,5895.779472845781
0.636,-0.07603243858350588,5884.677783153291
0.64,-0.11464611359021461,5895.900306197091
0.644,-0.13521929190474144,5897.085249116989
0.648,-0.13204723072867006,5910.131701835326
0.652,-0.1050974808836927,5896.179613360624
0.656,-0.05855581280259132,5898.876937386195
0.66,0.0012039800249872981,5900.317559419294
0.664,0.06749266819322176,5898.62789099656
0.668,0.13484217793751124,5886.371100312026
0.672,0.2000339755412645,5902.716322453296
0.676,0.26212695786551105,5906.595194162793
0.68,0.3211475145584585,5893.030257433271
0.684,0.37586736179091196,5897.020600259285
0.6880000000000001,0.4218103626226191,5902.171895075748
0.6920000000000001,0.4506965203803073,5894.470256746876
0.6960000000000001,0.4519211360068217,5898.540639972796
0.7000000000000001,0.4157394562474556,5901.920825803135
0.704,0.33701753657931205,5899.422971446065
0.708,0.21809068484847727,5895.945831947098
0.712,0.06956519737737445,5904.770247368434
0.716,-0.09133981978283869,5901.737670037765
0.72,-0.24431247711259976,5896.842389256323
0.724,-0.3699580858229355,5907.857556257946
0.728,-0.45304407110143124,5896.683719973082
0.732,-0.4846277899011817,5896.530752531466
0.736,-0.4633087999908066,5896.2354621138775
0.74,-0.3955655935224496,5902.700255758639
0.744,-0.2947329952296994,5905.852591787251
0.748,-0.17842707942831285,5904.720091508208
0.752,-0.06491735582280835,5906.496741953987
0.756,0.030530525941875147,5899.754367388789
0.76,0.0982690250197732,5900.281776759902
0.764,0.13517382335335848,5904.574631623784
0.768,0.14381482894486708,5905.576066216809
0.772,0.1304306495947985,5901.979348730246
0.776,0.10252064062873537,5896.255837264644
0.78,0.06683543381757703,5897.419875031969
0.784,0.028270001680716247,5895.259552968863
0.788,-0.010246200577250515,5899.048650924128
0.792,-0.04709939262535092,5899.695379137782
0.796,-0.08092786080785129,5899.512425913278
0.8,-0.10955579949835424,5886.973427178487
0.804,-0.129514562869698,5896.318819894913
0.808,-0.1366799374699292,5902.992068384933
0.812,-0.1279204986383627,5898.329970822722
0.8160000000000001,-0.10289833331586545,5903.372163534585
0.8200000000000001,-0.06503518332038266,5904.384532986872
0.8240000000000001,-0.021167084947657813,5908.181486620206
0.8280000000000001,0.020042438484880146,5909.427521455413
0.8320000000000001,0.0505463120324242,5901.679185525789
0.836,0.06554423668113399,5899.448903143096
0.84,0.06533084021830607,5895.361968498915
0.844,0.05540809902110119,5887.638681796164
0.848,0.04450022488230663,5896.669277257067
0.852,0.04105998684506878,5900.863140439054
0.856,0.04957461881797,5901.276214356977
0.86,0.06806059418829495,5901.414214473373
0.864,0.0876281723360856,5899.376133247942
0.868,0.09421086896485875,5902.319056024118
0.872,0.07187805825530738,5900.987789975147
0.876,0.006877287095668797,5895.822432489231
0.88,-0.10836978352293355,5892.38568428199
0.884,-0.2720676991962188,5902.022015050324
0.888,-0.471613814710953,5891.188393156673
0.892,-0.6849059754125449,5890.0265730749215
0.896,-0.8845571953917862,5901.335963705375
0.9,-1.0438286570218507,5906.85478153248
0.904,-1.1422447964623579,5896.699137192927
0.908,-1.1691432751914117,5908.915942891589
0.912,-1.1244895354760664,5900.760508192543
0.916,-1.0174187329315323,5890.690879555014
0.92,-0.8636009865249656,5896.203860920352
0.924,-0.6824322163568861,5901.816166018845
0.928,-0.49442999007302113,5906.76040701313
0.932,-0.31861561894836093,5902.4942357564505
0.936,-0.16966733053407848,5899.498250182432
0.94,-0.05532846273375642,5900.4266240661445
0.944,0.024757591245242017,5902.30741924957
0.948,0.0778757339384002,5896.322928989802
0.952,0.11504979771938911,5907.597024773225
0.956,0.14728259855667045,5892.045443758952
0.96,0.18276251229830703,5899.134841148475
0.964,0.2257616676368572,5902.636273321306
0.968,0.2770153378854731,5901.548408744891
0.972,0.3348431204017401,5903.41150960447
0.976,0.39620112323801654,5898.926738126706
0.98,0.45709786590713364,5902.704754320388
0.984,0.5122501973552432,5899.315216651115
0.988,0.554415383819547,5897.22907071273
0.992,0.5742645800197587,5900.727510977194
0.996,0.561523791533856,5903.706827172749
1.0,0.5073580438981643,5907.149950095993
1.004,0.4072576308513649,5904.160748813734
1.008,0.263467825629228,5898.305264202426
1.012,0.08607040091690095,5898.934643975141
1.016,-0.10793665725597823,5897.2019965214095
1.02,-0.2975732549771287,5899.036207441275
1.024,-0.4619815442376091,5892.25085092758
1.028,-0.5844159689447608,5891.24918000962
1.032,-0.6550397316343919,5902.508234203785
1.036,-0.6719413585386914,5889.807943794297
1.04,-0.6402624005251779,5891.799323904517
1.044,-0.5698408482618597,5898.012512347091
1.048,-0.47226636780770714,5895.159905049212
1.052,-0.358372131199451,5904.108882582146
1.056,-0.2368591805138745,5902.884543412637
1.06,-0.11427967939195512,5892.397051512718
1.064,0.003765661263145818,5897.619988650658
1.068,0.11073414344675288,5903.712505442025
1.072,0.19754868910437162,5900.610422561977
1.076,0.2525259225473,5899.884921549366
1.08,0.2634609262953413,5912.314724171148
1.084,0.22128309786920786,5896.143051513309
1.088,0.12371610999853917,5891.61666123732
1.092,-0.022718961074215237,5910.096901663058
1.096,-0.20319482466749553,5897.896892877661
1.1,-0.3971755045112068,5898.29380840008
1.104,-0.5819956681939706,5901.626246506613
1.108,-0.7364580985528766,5900.782488418619
1.112,-0.8439530139448768,5907.667373118498
1.116,-0.8947440215785303,5901.765796902541
1.12,-0.8870350565916955,5907.143575080629
1.124,-0.8266194720830574,5907.526972849436
1.128,-0.7252890704613277,5903.906974332678
1.132,-0.5984677439137865,5899.889349878258
1.136,-0.462596769150328,5895.345722329808
1.14,-0.3327790704496697,5902.566562806061
1.144,-0.2211961500200296,5892.813129080038
1.148,-0.13659033449739313,5896.838721431823
1.152,-0.08451643552505961,5894.852703217067
1.156,-0.06761894160618867,5901.738243272965
1.16,-0.0854176524417791,5899.638715311397
1.164,-0.1337365581154958,5905.09840271634
1.168,-0.20431477821253402,5903.82516159867
1.172,-0.28508591927959387,5905.042341311926
1.176,-0.36144292209087703,5898.210830244913
1.18,-0.4186741211113195,5911.253388351304
1.184,-0.4453599274113488,5900.158063661131
1.188,-0.43678353152678007,5901.916549625612
1.192,-0.3969096472431582,5892.727959183571
1.196,-0.33782692326756575,5894.438371684424
1.2,-0.2765848350012684,5900.332694213393
1.204,-0.23030617028687586,5903.331051937542
1.208,-0.21084025290946817,5897.057169788384
1.212,-0.22033857583527247,5905.338858519076
1.216,-0.2492677564539872,5903.585205073717
1.22,-0.2780702291306158,5904.194659553696
1.224,-0.2825284320342749,5902.583645909716
1.228,-0.24138601375612095,5910.781192743214
1.232,-0.14377163245894886,5911.306010533031
1.236,0.006126675711631222,5906.763324482754
1.24,0.18882611816347683,5895.736064180339
1.244,0.37391823531512347,5903.858431412064
1.248,0.5276813860303812,5894.595220643528
1.252,0.6215864129372085,5902.483555065116
1.256,0.6391270417268601,5903.618906971039
1.26,0.5791043757015235,5903.2574409927465
1.264,0.45486752436809985,5895.643824482087
1.268,0.290245077144992,5900.281030903873
1.272,0.11345171627189911,5896.41398979596
1.276,-0.04956457066402355,5894.752669428736
1.28,-0.18069053068179614,5897.85798960329
1.284,-0.27262964605032236,5908.200476823349
1.288,-0.3286148961169403,5911.937179686505
1.292,-0.3593025824731435,5896.341924265506
1.296,-0.3781112975674533,5906.126030179
1.3,-0.3965304479995599,5901.78020543833
1.304,-0.4207261873624645,5903.513397757722
1.308,-0.45026359494760587,5909.502052491358
1.312,-0.4791213299595692,5897.91200215211
1.316,-0.4985814931968679,5903.474590423633
1.32,-0.5011092807477183,5901.477659852684
1.324,-0.48400618482821417,5900.469812279134
1.328,-0.45152606559158465,5902.747514644716
1.332,-0.4144939332086547,5888.597565941179
1.336,-0.38731296275564153,5901.764411408415
1.34,-0.38321585833488103,5901.0778946326745
1.344,-0.40923603167399303,5898.130645821128
1.348,-0.46256847528247313,5908.162129884771
1.352,-0.5298596379072215,5902.64534003107
1.356,-0.590273301904096,5906.258638161239
1.36,-0.6217103767330042,5895.565141374603
1.364,-0.6079036047558418,5898.985666183884
1.368,-0.5434479930986634,5901.327599012117
1.372,-0.43479408801066916,5901.354379653243
1.376,-0.29724256863878407,5897.677269887267
1.38,-0.14974603391717856,5894.708654604051
1.384,-0.009836985274872503,5901.731889707406
1.388,0.10978582800898976,5899.00404861244
1.392,0.2026718057027689,5899.169304473584
1.396,0.2683482939484704,5897.587383857689
1.4,0.31074518930338973,5898.526097675844
1.404,0.33571565618076515,5909.224437529807
1.408,0.3482635874071929,5900.543451357866
1.412,0.350292354144141,5901.241669947071
1.416,0.33972054316729705,5896.613390578619
1.42,0.3115781202639669,5902.007773943342
1.424,0.2610690267081963,5900.407447959361
1.428,0.1876173212879213,5900.499852084943
1.432,0.09808446330120224,5894.490617002367
1.436,0.007290708271935579,5906.97993109236
1.44,-0.06508148937710768,5898.55410740904
1.444,-0.10057923564001064,5894.050000789479
1.448,-0.0890068504937287,5901.261297823463
1.452,-0.033585426035600247,5891.815455183543
1.456,0.048252054199367476,5900.989086876408
1.46,0.1293769872192282,5896.651577698798
1.464,0.18132356543548575,5895.814700915783
1.468,0.1830557900096834,5899.129425115375
1.472,0.1266209419395418,5911.370269520955
1.476,0.017982610908918683,5891.402762545009
1.48,-0.12637990787488732,5896.313904782117
1.484,-0.28510538121447543,5888.309354444454
1.488,-0.43762156512278666,5894.549712865596
1.492,-0.5683270580392824,5894.837509841038
1.496,-0.6687050937290298,5900.484835146744
1.5,-0.7374777980547884,5901.217843757773
1.504,-0.7792191088400728,5891.174393975544
1.508,-0.8020167560871915,5898.613412852468
1.512,-0.8148708915185654,5902.806387949081
1.516,-0.8253430590650745,5897.583030721212
1.52,-0.8376309498652366,5893.428020331023
1.524,-0.8512127691914636,5903.269942682945
1.528,-0.86051357437213,5900.348593832762
1.532,-0.8560673638878536,5901.337317616093
1.536,-0.8270572535731107,5893.004333454092
1.54,-0.7644324604878477,5895.309987993544
1.544,-0.663644177156731,5899.147531218923
1.548,-0.5263988060067001,5904.219756962044
1.552,-0.36126120791585903,5896.743570281205
1.556,-0.1831077421159111,5902.134612808387
1.56,-0.011313699409280781,5898.652582316327
1.564,0.13350682865138186,5895.1299939120345
1.568,0.23399812601843098,5902.130457127946
1.572,0.28074354508764293,5903.681250999645
1.576,0.2753972394085604,5892.262033068606
1.58,0.2307297301792391,5904.268602006664
1.584,0.16717551022953114,5896.107998995482
1.588,0.10683565775120114,5899.38311111546
1.592,0.06676243667200935,5901.5779680612095
1.596,0.053571990569487506,5914.423061664929
1.6,0.06120435069078471,5903.72813921762
1.604,0.07300054140974047,5900.61918669811
1.608,0.06798430432859526,5908.20817858453
1.612,0.02944703122575636,5885.071776671669
1.616,-0.04752381965451931,5895.407359382161
1.62,-0.15296388063819713,5900.41699716756
1.624,-0.26496287164440785,5912.664350098708
1.628,-0.3572860290593835,5905.890899875651
1.632,-0.40811197228484697,5896.158942720732
1.636,-0.406125476598805,5890.7742472682585
1.64,-0.35213982455116505,5900.606984384109
1.644,-0.2571062472037698,5908.732905703373
1.648,-0.13899351988110448,5895.950114888465
1.652,-0.020583670270919757,5893.359482293395
1.656,0.0717362283857289,5893.558314367
1.66,0.10985532922152044,5905.336042887666
1.664,0.0682663293404803,5898.496472846298
1.668,-0.06875753662549275,5910.447726100365
1.672,-0.2983286417275733,5904.46034966354
1.676,-0.5906827072426309,5905.303555815056
1.68,-0.8843516428637718,5908.441763724487
1.684,-1.0880476621044137,5904.4627621982845
1.688,-1.0921143278490388,5902.898684897925
1.692,-0.7902205163378966,5903.38871845804
1.696,-0.10798654402320097,5906.486756347698
1.7,0.969115885949453,5891.152925351205
1.704,2.3786561295729047,5899.196109163675
1.708,3.983619794540976,5901.688028224731
1.712,5.5972796155935525,5897.124218359344
1.716,7.024973788541459,5901.188330126887
1.72,8.109466356642361,5898.434086876875
1.724,8.764417285681237,5892.196868649263
1.728,8.985692532047354,5907.470893369873
1.732,8.839604578453981,5901.416400201631
1.736,8.435380215140468,5896.161534121955
1.74,7.892873275749663,5906.270675558751
1.744,7.315582804939015,5898.26468634631
1.748,6.775018840527455,5909.360483183946
1.752,6.307465408571344,5895.241665682328
1.756,5.9201885118363595,5894.433259277185
1.76,5.602360816777492,5895.359052887141
1.764,5.336306927318113,5905.622033158415
1.768,5.106022006520217,5899.212245051678
1.772,4.901431246395895,5904.30049836645
1.776,4.718412841766742,5900.001806743023
1.78,4.556085259503249,5902.795010895425
1.784,4.413626335316032,5897.631388732748
1.788,4.288395108171392,5892.288446382529
1.792,4.1757182518097995,5894.360469126999
1.796,4.069503854727513,5893.238180235379
1.8,3.962708109867954,5905.588989596921
1.804,3.8473837595970535,5894.035574421874
