时间(s),电压(V),幅值(高频80K)
0.0,1.3450449444702681,5902.483906850399
0.004,0.7223208705197565,5893.304162346211
0.008,0.172760650487235,5898.385105693852
0.012,-0.2480949732419553,5895.887425465188
0.016,-0.5118606325838498,5905.64192034115
0.02,-0.6217853728077471,5902.253371305838
0.024,-0.6094742457556025,5909.401608278344
0.028,-0.5248942972939962,5905.357310953393
0.032,-0.42251012039913055,5894.8792512822
0.036,-0.3471084182575019,5893.726189195376
0.04,-0.3227558090781206,5894.020663213445
0.044,-0.34783326934765235,5906.803084304072
0.048,-0.3979320285980793,5893.423643444016
0.052,-0.43616781696454593,5895.118517588366
0.056,-0.4276664408861021,5890.17678346829
0.06,-0.3530115191128322,5895.072467484191
0.064,-0.2157567407090835,5908.818728240301
0.068,-0.04185404266150155,5899.271754491445
0.072,0.12764337367690717,5898.016654431398
0.076,0.2472470415459192,5894.136856147647
0.08,0.27800685894338806,5904.823880652559
0.084,0.19697291823920565,5900.065059366449
0.088,0.0037458412064074907,5893.180251983592
0.092,-0.2776274997345968,5895.697025166958
0.096,-0.6026989813358452,5896.643728312434
0.1,-0.9160740357833268,5905.288976930508
0.104,-1.1637745668355761,5905.779512957677
0.108,-1.3051694436384509,5894.966925690602
0.112,-1.3215549076682978,5901.838231016543
0.116,-1.2194717453848338,5897.1319420881055
0.12,-1.0279708310056386,5890.45141369421
0.124,-0.790492970651895,5903.793763934046
0.128,-0.5537645164999109,5906.747485005886
0.132,-0.3570596650820478,5902.112789792135
0.136,-0.22450641461596105,5898.946149767623
0.14,-0.16160579412753423,5910.178552248884
0.144,-0.15614467482429406,5903.243663341592
0.148,-0.18322844417903672,5900.118477535851
0.152,-0.2133207237507398,5910.615777486178
0.156,-0.22094727967944247,5901.287228577542
0.16,-0.19121020496664423,5899.514382518516
0.164,-0.12218094239103904,5900.236220498015
0.168,-0.02312377847426416,5901.48631046785
0.172,0.08978772835070983,5897.5708617560085
0.176,0.19808326761735198,5904.561268533245
0.18,0.2846056585213089,5898.078183742647
0.184,0.33598008777232974,5892.83510142076
0.188,0.344191929816971,5899.231690516891
0.192,0.3072001960585545,5904.088678047783
0.196,0.22844863398308932,5901.190545513659
0.2,0.11563826468884192,5899.870560011706
0.204,-0.020471407904784848,5911.292794476356
0.208,-0.1667665895349266,5900.4331598001245
0.212,-0.30827562330207015,5913.715816513983
0.216,-0.42906280990497636,5909.610510961019
0.22,-0.5136168186211736,5900.161258150028
0.224,-0.5483299970391081,5913.9681282411975
0.228,-0.5230579369340307,5902.552951622299
0.232,-0.4334072479567575,5905.691777919378
0.236,-0.2839663229736543,5905.663763819028
0.24,-0.09117569163635121,5899.070160683001
0.244,0.11648347880380218,5893.822178446926
0.248,0.3025329673843238,5894.513018697854
0.252,0.4302109687146325,5898.779779286763
0.256,0.47142618475784936,5897.122670375188
0.26,0.41395524171558146,5905.083429231019
0.264,0.26449838841502105,5901.68942030543
0.268,0.04650769006478247,5897.400875872336
0.272,-0.2065506132265623,5902.3347055941085
0.276,-0.4599979627324325,5893.257091997742
0.28,-0.6853032219712817,5902.228766541799
0.284,-0.8633279338376428,5898.695107592299
0.288,-0.9832930306174691,5898.714245908982
0.292,-1.039810812978806,5901.7241350775375
0.296,-1.0310473272583516,5897.78372712648
0.3,-0.9596096330073313,5895.404717284096
0.304,-0.8352691343359759,5898.318166317157
0.308,-0.6770559324934594,5893.722884816022
0.312,-0.51264350823217,5895.517557682098
0.316,-0.37447616884404705,5902.651019743974
0.32,-0.29338871455166554,5902.671461626112
0.324,-0.29129873559901953,5893.692530537813
0.328,-0.37520918979850776,5902.010629216236
0.332,-0.5347338211342952,5894.397974714535
0.336,-0.7441477148546367,5900.65584652456
0.34,-0.9682845084958671,5904.090011802814
0.344,-1.170431416373524,5905.76985670267
0.348,-1.3198258499336661,5895.528451781182
0.352,-1.3964818005381299,5905.799862994013
0.356,-1.3923251250220405,5894.67247054942
0.36,-1.3095974629621494,5898.561743310071
0.364,-1.158650143803683,5898.946029521786
0.368,-0.9566222852703727,5905.263361936385
0.372,-0.7268157650841791,5898.931695126857
0.376,-0.4973698506668722,5905.265919141807
0.38,-0.2979466296136344,5894.291587705105
0.384,-0.15429724804951472,5894.160303660716
0.388,-0.08200166285505872,5907.1239285171205
0.392,-0.08161869356919516,5899.293255408194
0.396,-0.13737972761041234,5898.25206642157
0.4,-0.22032141510724143,5899.239402472078
0.404,-0.2950658546765338,5891.421138871895
0.408,-0.32823688276051144,5888.896691295343
0.412,-0.2961311048842809,5902.730539200555
0.416,-0.18966084075395548,5904.319127923817
0.42,-0.015586154482977507,5890.4986340789455
0.424,0.2057067879010328,5898.998358075472
0.428,0.44476368398475774,5903.701928199013
0.432,0.6686743670606367,5896.269642733762
0.436,0.8466589933703819,5905.424683711359
0.44,0.9547802584556061,5886.701488011461
0.444,0.9792589562820471,5893.757152473338
0.448,0.9181930026470447,5899.047811009721
0.452,0.7815530668571756,5895.883316451655
0.456,0.5893841468111196,5900.965619781461
0.46,0.3685068575774066,5903.091072896122
0.464,0.1484221013673919,5905.222518357437
0.468,-0.0428323023385379,5903.986458626938
0.472,-0.18242500202939382,5904.21384846437
0.476,-0.2559526129399709,5900.097493213055
0.48,-0.26004853338403017,5897.861983885274
0.484,-0.20395149072486568,5906.912237424564
0.488,-0.1091834716535106,5898.705202869549
0.492,-0.006449587411716472,5896.624621200328
0.496,0.07041660303607676,5911.1028447770905
0.5,0.0923714740217422,5903.437985898762
0.504,0.042831147529548905,5892.464667382873
0.508,-0.0771966528192383,5906.960337092366
0.512,-0.24822828765629962,5901.122501386677
0.516,-0.43627113459089656,5900.565398123034
0.52,-0.6007721819672089,5902.611994117882
0.524,-0.7043593876940953,5902.133566706877
0.528,-0.721701044261926,5897.34166839153
0.532,-0.6453057115989338,5897.756641614091
0.536,-0.48715064330363894,5909.25326088749
0.54,-0.2761005834514058,5903.624765697871
0.544,-0.051840744115495475,5895.199163717131
0.548,0.1433779166507407,5895.396901691351
0.552,0.2733578599691687,5900.308937732523
0.556,0.3149577753547859,5893.065738783072
0.56,0.26197152327400386,5898.244237125781
0.5640000000000001,0.12521205148335895,5899.056120489259
0.5680000000000001,-0.07097470232417974,5903.688579174626
0.5720000000000001,-0.2946555257180895,5897.902321347202
0.5760000000000001,-0.5129695660095794,5898.196371012103
0.58,-0.6977371582157462,5908.288480882171
0.584,-0.8288844454693283,5908.08186234811
0.588,-0.8954899912733881,5907.672162332359
0.592,-0.8950425791763462,5903.9240267626255
0.596,-0.8318098087784729,5894.084656106579
0.6,-0.7150521107884948,5900.524850893404
0.604,-0.557328473784932,5905.750867205655
0.608,-0.37265530752190723,5904.020004801534
0.612,-0.17440011316199114,5901.6066415816695
0.616,0.026432125798931016,5903.469715685569
0.62,0.22148914945366832,5895.831276359437
0.624,0.40374086031070655,5903.000586265001
0.628,0.5656478985959664,5892.233813847169
0.632,0.6984956549007999,5897.164830407987
0.636,0.7939079795728673,5900.502758661015
0.64,0.8470154177481833,5894.705008016232
0.644,0.8591609626794635,5895.768309166284
0.648,0.8377200706509209,5900.065681774895
0.652,0.7922716267257972,5900.531556822479
0.656,0.7289112386650147,5895.504484834453
0.66,0.6460296240413186,5897.099422531157
0.664,0.5343155106490999,5901.893292910326
0.668,0.38141758344167814,5912.4817278288365
0.672,0.17898565481526485,5894.685033455101
0.676,-0.07149638306148007,5901.735271781798
0.68,-0.35657772138507604,5901.835317905724
0.684,-0.6524629692947426,5907.831832541747
0.6880000000000001,-0.9289325624645937,5904.958649792401
0.6920000000000001,-1.1543712967090947,5901.651622112061
0.6960000000000001,-1.3014538338929447,5904.3495463690215
0.7000000000000001,-1.3529040242338022,5902.546750227497
0.704,-1.3060266369300266,5903.420119852174
0.708,-1.174404345831784,5893.585494503434
0.712,-0.985568915085203,5907.526228444893
0.716,-0.7744923428238506,5891.716594879438
0.72,-0.5744157047569386,5907.676932709563
0.724,-0.40824733588290396,5897.091768664539
0.728,-0.2841646471806778,5893.685553325796
0.732,-0.19740756819580318,5906.987442774098
0.736,-0.13728702023813888,5896.188107167078
0.74,-0.09577720151473473,5893.17647336976
0.744,-0.0732490129361996,5904.979975038076
0.748,-0.07844684817318,5902.580083962329
0.752,-0.12279614019443957,5889.605969216792
0.756,-0.21193279706787177,5898.750372057977
0.76,-0.3386805482702857,5899.979914683538
0.764,-0.480927123256177,5899.529270301633
0.768,-0.6052993697690038,5908.806761653853
0.772,-0.6748679533740592,5896.304125606567
0.776,-0.6580210435860244,5894.005166899694
0.78,-0.5361352230800517,5898.194968496251
0.784,-0.3086211746968906,5902.025145217761
0.788,0.00533271619182937,5898.796866305534
0.792,0.3685328790400419,5891.499562884105
0.796,0.7310177879168444,5904.702316420922
0.8,1.0383513219292206,5898.889098927406
0.804,1.241840579907833,5892.764064110871
0.808,1.308613728685925,5906.847732099236
0.812,1.2288930072955708,5900.231972495288
0.8160000000000001,1.0180844400972333,5898.963165279165
0.8200000000000001,0.7126297075160566,5904.439354203849
0.8240000000000001,0.36051784152216426,5896.096604266118
0.8280000000000001,0.00928967364809599,5912.480316248456
0.8320000000000001,-0.3044282251759666,5908.551203229612
0.836,-0.5602177584562136,5892.993305631386
0.84,-0.7526743806265263,5896.073139931349
0.844,-0.8855279968001181,5900.383550667109
0.848,-0.964785761175382,5897.672470962605
0.852,-0.9941449050218351,5899.066011278909
0.856,-0.9737872074405529,5902.232072570504
0.86,-0.9016311784240697,5891.311117565877
0.864,-0.775512333712018,5895.123355401917
0.868,-0.5954321331248711,5895.192324672407
0.872,-0.3657827926032858,5908.577945382352
0.876,-0.09754070848965288,5897.999017047204
0.88,0.18997695283679467,5908.030096678107
0.884,0.4686444629510883,5899.604191696831
0.888,0.7034851141086493,5892.761725275553
0.892,0.8579600442596322,5898.652413126205
0.896,0.9023336602981694,5901.201004179856
0.9,0.8230955128988962,5896.034755366603
0.904,0.6301464119132876,5892.670501168819
0.908,0.35847092592155255,5905.18146583286
0.912,0.062372057694057355,5896.4394186823
0.916,-0.19715029784364174,5889.74693153086
0.92,-0.36834664332473915,5901.830735254312
0.924,-0.42266068939794404,5901.010633202125
0.928,-0.36189396448017064,5909.73326194776
0.932,-0.21636801890004329,5900.049925482756
0.936,-0.03508641981679074,5901.8846444222045
0.94,0.12843926051578494,5899.586607945337
0.944,0.22981200340291813,5901.998766294697
0.948,0.2426326123232929,5904.03375535644
0.952,0.16093204434963956,5901.48559062137
0.956,-0.0034881916513075893,5900.99853181314
0.96,-0.22570885407963107,5905.263239317757
0.964,-0.47192839444969853,5904.387364001191
0.968,-0.7030093374183447,5903.144756775993
0.972,-0.8785817619143921,5896.761568729664
0.976,-0.9627274707315966,5899.411950956709
0.98,-0.9308126122185467,5894.358134916465
0.984,-0.7756265354947233,5904.032519231816
0.988,-0.5106127959619996,5904.637027303063
0.992,-0.16878496919168479,5895.793269538176
0.996,0.20271337748489152,5897.417403467961
1.0,0.5512676879098708,5903.5301953291655
1.004,0.8288396138774878,5906.326349958713
1.008,1.0012344052991102,5903.473742797329
1.012,1.0543663081474377,5898.272927330808
1.016,0.9957113983989362,5898.355985629121
1.02,0.8502681797994667,5896.6344991688175
1.024,0.6522123707721511,5895.066668156019
1.028,0.43535545653496166,5895.907468650587
1.032,0.22615456116258578,5891.300184772976
1.036,0.04156617689719541,5903.527444077664
1.04,-0.10869342753422855,5897.674952445792
1.044,-0.21811156639720788,5897.172025835236
1.048,-0.28063457144593323,5903.672206289673
1.052,-0.2910422174284715,5898.145045543502
1.056,-0.24824946491135297,5895.61397694354
1.06,-0.15953178972432008,5902.130224258665
1.064,-0.0427506927095543,5907.106426217506
1.068,0.07585592549531409,5889.019288182309
1.072,0.16853447898375618,5904.347152040686
1.076,0.21460194268743538,5897.873426416945
1.08,0.20614743949346598,5907.400465441562
1.084,0.14785370195078104,5898.092765388419
1.088,0.051678432291785745,5898.634493341383
1.092,-0.07003461751755422,5907.913787267543
1.096,-0.20910480324712308,5891.656761114691
1.1,-0.36150252670732325,5910.664057582799
1.104,-0.523321687300344,5907.504333518321
1.108,-0.685882601625387,5900.587043747059
1.112,-0.83379203532081,5892.269279877745
1.116,-0.9477983796635008,5907.13584414434
1.12,-1.0110860248243834,5899.3544345968885
1.124,-1.0156323591232828,5898.138493588162
1.128,-0.9654646111789986,5897.644408244624
1.132,-0.8753749035870483,5902.970250149021
1.136,-0.7657308983220924,5896.466848709295
1.14,-0.655737219720301,5895.325245369964
1.144,-0.5581345882739712,5904.991863179841
1.148,-0.4773377353676936,5899.516700871946
1.152,-0.41103048660950303,5899.354158503685
1.156,-0.35364254852719035,5892.714147842312
1.16,-0.2997498037736064,5895.406889257686
1.164,-0.24614232911303452,5902.037429830256
1.168,-0.192384132090902,5894.123094211065
1.172,-0.14038894572165522,5899.247830576725
1.176,-0.09365704365988325,5901.999382027658
1.18,-0.05662485109332486,5902.878500965137
1.184,-0.034188320036800744,5897.783858080998
1.188,-0.030966157917906675,5900.407595713747
1.192,-0.04978743752926552,5892.585213316355
1.196,-0.08958771528439857,5893.661649248252
1.2,-0.14383290827114373,5901.297177659906
1.204,-0.2008477999047361,5903.173410534811
1.208,-0.24669005949609513,5899.446625265011
1.212,-0.2697918095345148,5892.966399933279
1.216,-0.26520526938520494,5890.0574990145415
1.22,-0.23601834872941582,5903.405420509933
1.224,-0.1909803974680874,5899.897085176739
1.228,-0.13977865297143519,5902.832285377258
1.232,-0.08896787930453688,5900.982083336783
1.236,-0.04106781481608985,5894.96149322806
1.24,0.002904233142107086,5901.6660652308055
1.244,0.03956554664687445,5900.407873137828
1.248,0.06083388547600784,5902.6050943539885
1.252,0.054818706758237815,5895.245124287676
1.256,0.009614735535453035,5897.113821346963
1.26,-0.08183435845157336,5895.330794130153
1.264,-0.21797458561974947,5896.211964890846
1.268,-0.3873510521639317,5904.126110196056
1.272,-0.5698711811875842,5903.169536911194
1.276,-0.739926012782794,5900.288546957742
1.28,-0.8707192319051247,5899.121465128419
1.284,-0.9393857966259183,5900.329561548404
1.288,-0.9322626474699846,5897.984309675169
1.292,-0.8490332515969335,5891.607164109575
1.296,-0.7039511000388483,5892.91396483311
1.3,-0.5226775556907396,5902.323850915518
1.304,-0.33484866749111447,5888.277050854017
1.308,-0.1647752648695967,5907.432585736727
1.312,-0.024247501759571383,5894.015113140702
1.316,0.08906234308229383,5904.158060823909
1.32,0.1866935410774926,5893.599205047658
1.324,0.2803777264300732,5908.312809940404
1.328,0.3734111813645949,5901.059607868375
1.332,0.4567008813810222,5910.63763621069
1.336,0.5113441892675723,5898.410883618513
1.34,0.5163439065089419,5896.154242260715
1.344,0.4577872421362899,5897.119410919012
1.348,0.33558672105192616,5904.592092385999
1.352,0.16544505633965745,5897.878072309206
1.356,-0.024118385209595524,5903.739718924335
1.36,-0.1982738373029814,5902.900158603091
1.364,-0.32389278535022786,5899.413267480109
1.368,-0.3770101916737182,5902.675940188978
1.372,-0.3480698582397458,5907.212147721699
1.376,-0.24399802248123328,5903.477918873179
1.38,-0.086851166691886,5895.026848215135
1.384,0.09062304484772664,5891.331400765769
1.388,0.25149648262475294,5906.384339429938
1.392,0.3617309091858955,5896.496086876249
1.396,0.39649900751748474,5898.994837380424
1.4,0.34510409962767397,5903.142611692778
1.404,0.21410536301581187,5899.392540872679
1.408,0.027882116957582716,5896.971461953837
1.412,-0.17441588263858337,5896.874491627433
1.416,-0.3460339082812878,5902.856166550538
1.42,-0.44305446712642094,5892.264861169804
1.424,-0.435805281130696,5900.490554149567
1.428,-0.31791859479517176,5892.532883624489
1.432,-0.10964862849139728,5899.075249056673
1.436,0.14661037100954383,5895.79210748235
1.44,0.3979018926346526,5901.027311995323
1.444,0.5956024103863676,5892.160715778971
1.448,0.7082835230040891,5894.523703626468
1.452,0.7282268514053251,5894.960755980106
1.456,0.6702631462465002,5905.37474974296
1.46,0.5646505938015594,5904.791673832939
1.464,0.44723278969598823,5903.302223875941
1.468,0.3498099761610733,5903.274577744985
1.472,0.29240655581229613,5903.422098106562
1.476,0.2782584049612619,5898.343239007455
1.48,0.29245224872914916,5904.308307904037
1.484,0.3054251656141064,5895.758065306052
1.488,0.28164184069812653,5902.299128663401
1.492,0.19149801097042096,5898.475464243036
1.496,0.0224293499313474,5904.8206058180285
1.5,-0.2148381523394594,5899.78568109928
1.504,-0.4870039903620397,5897.309760529971
1.508,-0.7455726496354864,5903.655232210617
1.512,-0.9387693119799594,5897.168271105183
1.516,-1.0247300812129363,5901.281416323448
1.52,-0.9824460761573048,5900.448905121788
1.524,-0.8177132208389156,5899.977247437665
1.528,-0.562568189221176,5896.25138025024
1.532,-0.2678510712840842,5896.941463220663
1.536,0.009863944640597656,5900.640499163523
1.54,0.22334599532442517,5893.9534169072585
1.544,0.34647550339729016,5895.880680406861
1.548,0.37844559072306566,5894.298276107949
1.552,0.3397888148828213,5900.972095977345
1.556,0.2632108805959239,5896.317024475571
1.56,0.1834209517968893,5916.757033769521
1.564,0.12902510572829842,5894.228817257117
1.568,0.1176379716259623,5904.172296481517
1.572,0.15395861477486225,5903.095327335717
1.576,0.23010690498111858,5894.23936296577
1.58,0.3277284824054745,5888.99282474744
1.584,0.4216018861520427,5903.353081257818
1.588,0.4844901055158828,5903.337189047758
1.592,0.4929283764523327,5896.828189098265
1.596,0.4332988876093626,5908.471766688572
1.6,0.306604849655593,5903.728318853172
1.604,0.1295667569696603,5897.896713108376
1.608,-0.06952700619576252,5906.691820221695
1.612,-0.2591834686117181,5902.615101290725
1.616,-0.4138099046627005,5907.454721010843
1.62,-0.5199675846492952,5912.7620828954405
1.624,-0.5782743185176112,5893.987104142015
1.628,-0.6016560702251252,5899.010522801852
1.632,-0.6113267068017356,5900.0609722081645
1.636,-0.6312997589551554,5900.091191869522
1.64,-0.6816873559056106,5904.122493850499
1.644,-0.7712951445003221,5891.292055975456
1.648,-0.8909176132064461,5895.758839795266
1.652,-1.009569658494507,5900.591341408221
1.656,-1.0758058335474663,5895.534535753397
1.66,-1.0249283497813935,5899.358263189932
1.664,-0.7910211536773131,5893.449776001127
1.668,-0.32152839731718946,5895.734630616876
1.672,0.40829388922752236,5895.12755931901
1.676,1.3839987770885815,5894.293203420023
1.68,2.5470078339578714,5903.363288061775
1.684,3.799285472538595,5895.464516264114
1.688,5.018894583247338,5898.537430830533
1.692,6.083744840628501,5892.331319757969
1.696,6.896570756396168,5906.993426199955
1.7,7.402900859801864,5896.847561120885
1.704,7.597040906280583,5896.885510837437
1.708,7.5164185872830975,5905.934150260691
1.712,7.2282847403249155,5900.998743397956
1.716,6.813600091393184,5900.254646360594
1.72,6.35218161810421,5896.34953281334
1.724,5.911826558607543,5896.423795619923
1.728,5.542246175447761,5902.872465171217
1.732,5.272648498697758,5901.302203327246
1.736,5.110997370378222,5897.789870489321
1.74,5.044095361862245,5903.036974371887
1.744,5.039552729772437,5911.052935863334
1.748,5.051424870900508,5900.793247671972
1.752,5.030038852442387,5900.155401089795
1.756,4.934087353987734,5899.564264913454
1.76,4.741074912315375,5903.820019187768
1.764,4.452255554643152,5907.25461281186
1.768,4.0905197851598745,5909.706124653645
1.772,3.6926212076764346,5903.704708026322
1.776,3.2988796482249962,5900.777097358286
1.78,2.943667057620444,5893.4407065190335
1.784,2.6491412764602984,5902.99096303454
1.788,2.4234817257500887,5893.945072535616
1.792,2.263633204512659,5898.113655583399
1.796,2.1611905844977177,5903.718661389161
1.8,2.1086542890314974,5897.33881454905
1.804,2.102778944914275,5897.930036124692
1.808,2.1430880416922444,5904.665117479756
1.812,2.226421510626671,5895.963568934049
