时间(s),电压(V),幅值(高频80K)
0.0,-1.078183857951465,5898.225346720081
0.004,-0.6669510112671425,5900.273304232298
0.008,-0.29571954874816936,5897.963243300659
0.012,0.0058737127805124955,5894.379044358782
0.016,0.22320009769350757,5891.703878757564
0.02,0.3566342550207342,5900.721987121665
0.024,0.41741502955156673,5895.768249702613
0.028,0.4220672193201742,5902.072106338668
0.032,0.3875456184878006,5901.935594789777
0.036,0.3280964062617366,5906.900054436536
0.04,0.25403672796811766,5904.2587257430105
0.044,0.17223794942730153,5899.225185570591
0.048,0.08761530449527656,5911.206126300855
0.052,0.0044884604290113435,5900.989640630777
0.056,-0.07305301913891371,5897.385827085589
0.06,-0.1416381913762718,5899.414818040595
0.064,-0.19907205970079575,5897.335435853379
0.068,-0.24413662598190541,5897.904659412018
0.072,-0.2759076368981729,5906.167975868017
0.076,-0.2932054840519468,5893.760485478453
0.08,-0.29466003149611175,5890.725839007049
0.084,-0.2794856626344093,5902.410886315011
0.088,-0.2487179249095325,5896.868398427103
0.092,-0.20641171867870944,5898.717248586397
0.096,-0.1601656352108499,5895.044443340028
0.1,-0.12040040656512578,5907.750541953188
0.104,-0.09820376599484149,5895.584257573895
0.108,-0.10226469862007814,5899.906417842403
0.112,-0.13607027627569873,5904.075567358626
0.116,-0.19653236754491007,5902.667036949143
0.12,-0.2744666102294082,5909.242096786092
0.124,-0.35650480955221003,5903.926158059956
0.128,-0.42771370525414043,5908.052491263764
0.132,-0.4743731886272169,5894.824671118042
0.136,-0.4865523039694756,5896.709024732431
0.14,-0.4600487172439582,5896.649480249998
0.144,-0.39715572042502556,5896.360399332161
0.148,-0.30595094301951764,5900.0368935881725
0.152,-0.1983219256757921,5892.694465735924
0.156,-0.08735646826350559,5904.698552364084
0.16,0.0151897426762472,5895.149166252137
0.164,0.10075352126568243,5896.428064211199
0.168,0.16472311257276218,5898.821711977449
0.172,0.20589039074465562,5893.085131837768
0.176,0.22479372126750757,5901.8102999676175
0.18,0.22174264112759032,5895.070235340051
0.184,0.1957392442368205,5902.970588042471
0.188,0.14522666149906954,5896.234924086512
0.192,0.07055957131847346,5903.954406660278
0.196,-0.023048215160998628,5908.798831945042
0.2,-0.12384732615295993,5900.530443285112
0.204,-0.21446302179158655,5896.60417995215
0.208,-0.2755369038879466,5898.702535279085
0.212,-0.2909534254046468,5897.971963296953
0.216,-0.2528422782712718,5906.63910797818
0.22,-0.16477791402873246,5898.811922959817
0.224,-0.04229710831245119,5905.9209011759485
0.228,0.08946729739406421,5906.156257468247
0.232,0.2006778762053541,5905.25577581384
0.236,0.26334540486138674,5907.809330110621
0.24,0.258214447378915,5899.1970330543045
0.244,0.1802234084676617,5894.767000920388
0.248,0.04063822641457452,5906.26313314115
0.252,-0.13536475005286003,5890.698284559447
0.256,-0.3153090718524039,5904.011585542854
0.26,-0.4681395189484875,5901.603833460865
0.264,-0.5721102189353521,5897.8864148206185
0.268,-0.6193493359549981,5901.149467046965
0.272,-0.616040520359904,5907.042123825733
0.276,-0.5787621815667283,5907.724977958607
0.28,-0.5285988599838957,5902.454480943336
0.284,-0.4849392659013083,5891.245078241699
0.288,-0.46058276363998,5907.7730494127545
0.292,-0.4592383847339031,5900.231976272607
0.296,-0.4758950827845653,5899.023857238921
0.3,-0.49981139409749276,5900.412562147897
0.304,-0.5190645768965151,5894.455590074337
0.308,-0.5250497211832895,5900.26797166423
0.312,-0.5153382247767361,5911.272587793181
0.316,-0.4938783664487657,5900.060910510841
0.32,-0.4684737788056228,5904.039091727615
0.324,-0.4466600970872964,5903.864822453949
0.328,-0.4320876716328891,5898.547147770072
0.332,-0.4234354823487597,5905.059647751009
0.336,-0.4163006980234094,5897.5037370039145
0.34,-0.4064626982886099,5895.004615395195
0.344,-0.39217687123707884,5903.671603243242
0.348,-0.37426109900544274,5903.427052983119
0.352,-0.3544702639216489,5907.323516753694
0.356,-0.3335677360162131,5902.209758476492
0.36,-0.31033633991417586,5905.9350735001935
0.364,-0.2820761105215545,5903.890799358373
0.368,-0.24635303065640354,5894.832949131413
0.372,-0.20313093883312305,5904.993732029687
0.376,-0.15619410883047533,5894.974577169558
0.38,-0.11307583647264685,5898.878149464233
0.384,-0.0833772973545958,5901.959985821288
0.388,-0.07602383586548303,5900.921659205199
0.392,-0.09633995826028774,5899.458967407502
0.396,-0.1437813160053627,5900.59053769431
0.4,-0.2109406281665834,5897.177629338485
0.404,-0.284210157817657,5899.605779668679
0.408,-0.3462383020444344,5903.401569774228
0.412,-0.37997936789185344,5900.570278332829
0.416,-0.37361434185216613,5896.792136383878
0.42,-0.3249838553634172,5894.451076314403
0.424,-0.24380258789294926,5905.987483883413
0.428,-0.15030839413169628,5905.423610245511
0.432,-0.07025153073342509,5900.003558270534
0.436,-0.027681807439596275,5895.562924785181
0.44,-0.03792494531064136,5899.712992729505
0.444,-0.1029667153431646,5903.112635653455
0.448,-0.21049914307817855,5904.959789560114
0.452,-0.3367679308264497,5905.971021717381
0.456,-0.45242097112328467,5901.794869040496
0.46,-0.5297954550034535,5903.112228072448
0.464,-0.5496035571947651,5906.280925313823
0.468,-0.5051126146437344,5896.559005666388
0.472,-0.4028206246956135,5903.775001308272
0.476,-0.2599188386431244,5901.603007646103
0.48,-0.09980004044930924,5898.619249271622
0.484,0.052878112439148986,5902.0171901799895
0.488,0.1763693732843971,5903.052056339833
0.492,0.2546098947693797,5899.762039601209
0.496,0.27856426116972216,5903.956578579879
0.5,0.24655437294061838,5894.38580279519
0.504,0.16396767264340803,5907.897037925434
0.508,0.04243458453596362,5902.905747969136
0.512,-0.1016477596731812,5894.906204443323
0.516,-0.2493385465729122,5900.612168806665
0.52,-0.38201135753460735,5900.981546799093
0.524,-0.4844003465089584,5891.645184703632
0.528,-0.5471376598043832,5899.212253119224
0.532,-0.5682247136221988,5900.988941807304
0.536,-0.5532195441024158,5898.710615351337
0.54,-0.514014506247639,5897.443225656455
0.544,-0.46606756231481533,5897.332187102321
0.548,-0.42435402647180226,5896.376598120066
0.552,-0.3990880952483352,5898.7554312819
0.556,-0.3927780302566846,5895.674726195833
0.56,-0.39990996310872484,5899.699118327994
0.5640000000000001,-0.4095933195605608,5900.953762360726
0.5680000000000001,-0.41030089291267385,5899.981767471222
0.5720000000000001,-0.394829367930334,5901.119630987447
0.5760000000000001,-0.3632944015417656,5903.158246027793
0.58,-0.3228424536720624,5900.904491327538
0.584,-0.2844891721282187,5901.1238413383335
0.588,-0.2588343784138066,5902.713844980879
0.592,-0.25245795174156205,5885.542409205778
0.596,-0.2659677585380441,5899.160790598389
0.6,-0.29391424557749324,5896.136180452884
0.604,-0.3264451554855567,5896.097660795084
0.608,-0.35232898360656656,5907.8192412047065
0.612,-0.3625696188742214,5899.909440550646
0.616,-0.35339448685233205,5904.972214870598
0.62,-0.3273154703598964,5907.01850115836
0.624,-0.2916045242506504,5899.366991334805
0.628,-0.2547837066963042,5890.872023413391
0.632,-0.22284743606036697,5902.541243825431
0.636,-0.1970921960890714,5896.138034655925
0.64,-0.17450524621017194,5910.219038684489
0.644,-0.15033950511435307,5904.342074390804
0.648,-0.12158899919071117,5893.390087580795
0.652,-0.0898445007519278,5898.413797009013
0.656,-0.06228213442554761,5901.440663937088
0.66,-0.05018977589846592,5898.464491395419
0.664,-0.06535124320579634,5902.565513893506
0.668,-0.11547280254110419,5905.533551641472
0.672,-0.2002921291243186,5896.399047503287
0.676,-0.3098646306937261,5900.183786637392
0.68,-0.4257993726525195,5904.310945440254
0.684,-0.5251778694180984,5896.330100425433
0.6880000000000001,-0.5859881116381289,5899.952150843927
0.6920000000000001,-0.5925426906230814,5900.285528512046
0.6960000000000001,-0.5395009245297879,5903.194636061191
0.7000000000000001,-0.4334362974072906,5898.517229989316
0.704,-0.29140185869048973,5911.874212990956
0.708,-0.13696751055711415,5900.025199834878
0.712,0.004703165633429698,5906.639716415405
0.716,0.11107729332834473,5907.173691371671
0.72,0.16515292050686908,5893.727859353199
0.724,0.15742442358123432,5899.048723821224
0.728,0.0874181304302664,5897.637552737742
0.732,-0.035234569894635095,5899.225718597377
0.736,-0.1907860361405086,5907.227050191172
0.74,-0.35129319307861656,5905.450706552364
0.744,-0.48508774582091185,5893.000411130479
0.748,-0.5634851211111206,5902.3533507343
0.752,-0.5681744024698447,5896.095672094455
0.756,-0.496915373383825,5896.441565398164
0.76,-0.3653308811471553,5910.568563954241
0.764,-0.2037814573780969,5896.531890211587
0.768,-0.05004693735453705,5909.616764456368
0.772,0.06005993150648024,5897.294256970874
0.776,0.10155290389207386,5902.995588781152
0.78,0.06637110444217373,5895.809173930141
0.784,-0.034724362779442824,5895.759199462122
0.788,-0.1749002318105174,5898.440799594007
0.792,-0.3179827269424445,5903.209044112037
0.796,-0.42750074128841925,5893.376307425071
0.8,-0.4757632706674756,5908.552552196238
0.804,-0.45063905834637413,5895.99197301696
0.808,-0.3582096513574373,5902.851014448854
0.812,-0.22054136239327143,5901.627292307894
0.8160000000000001,-0.06935291882560823,5898.966491897667
0.8200000000000001,0.06226062375511855,5898.10461267793
0.8240000000000001,0.14750941149101823,5896.129398718736
0.8280000000000001,0.17125456625947072,5898.609722927567
0.8320000000000001,0.13243960525834722,5901.923225702483
0.836,0.04369140932488359,5899.676990959832
0.84,-0.07174629919495976,5891.763557466514
0.844,-0.1854899654718257,5907.791011582421
0.848,-0.27100067372465647,5898.10120182159
0.852,-0.3102878624658787,5911.986797477319
0.856,-0.29836860092575324,5902.632517905577
0.86,-0.24434390915532725,5906.163634134553
0.864,-0.16898594459070723,5898.337351453534
0.868,-0.09933414990135797,5891.087910706703
0.872,-0.06131993024179056,5901.317869577391
0.876,-0.0722759487840343,5894.309333451408
0.88,-0.13580033630318925,5896.945608880985
0.884,-0.2409395132617578,5905.500590579124
0.888,-0.3659547443961853,5900.012728541152
0.892,-0.48501473913094717,5897.590019624458
0.896,-0.5751842990596321,5899.600108865721
0.9,-0.6215150122891989,5907.860959697525
0.904,-0.6193618499711485,5902.265309051626
0.908,-0.5742368718071783,5903.870574710219
0.912,-0.49989284663705497,5898.892200365904
0.916,-0.4150522329365589,5900.1548431246665
0.92,-0.3390003398962178,5893.675111544137
0.924,-0.2867071729297236,5899.302912603006
0.928,-0.2649305645980563,5895.892973299082
0.932,-0.27093130898701423,5904.437195917761
0.936,-0.2944643930607243,5903.600000803656
0.94,-0.32213795751906643,5889.929362111491
0.944,-0.3421425246398838,5903.926465497347
0.948,-0.3474326835641113,5898.702171812824
0.952,-0.33650288112970006,5893.539413625176
0.956,-0.31214410580548246,5890.7819638598585
0.96,-0.27929207665158323,5892.077272717798
0.964,-0.2430492586516802,5909.3687491943865
0.968,-0.20737515926144023,5906.888108394526
0.972,-0.1743328106652698,5904.650938644183
0.976,-0.14371543071353973,5898.709994299919
0.98,-0.11330640870130342,5896.144850743337
0.984,-0.08025365359930664,5900.070223403697
0.988,-0.04351270815562884,5899.503750905322
0.992,-0.006319562568007375,5898.998883297989
0.996,0.02284640380497925,5902.033772283002
1.0,0.031728474818010735,5894.858637529455
1.004,0.007821574606150078,5895.940534703172
1.008,-0.05733714455915487,5891.433818370083
1.012,-0.16452371696217719,5901.179998967176
1.016,-0.304815295636534,5898.431429270847
1.02,-0.4597380777293144,5896.271844457044
1.024,-0.6038064813163818,5902.221200533869
1.028,-0.7094037065219415,5894.712207042018
1.032,-0.7533837920896904,5897.503893361417
1.036,-0.72387835919367,5905.885959839309
1.04,-0.6250779217311986,5903.53295330194
1.044,-0.47790349483986216,5900.33068998691
1.048,-0.31567236747859306,5898.517147354592
1.052,-0.1756627190683729,5900.847876832868
1.056,-0.08915903473069291,5897.513798595132
1.06,-0.07333207209825854,5898.125113503318
1.064,-0.12769326723665253,5905.085980259525
1.068,-0.2360802154872191,5900.342911338173
1.072,-0.37302275576329025,5897.090895552618
1.076,-0.511841164794049,5900.078006792012
1.08,-0.6314739843508403,5901.644089430403
1.084,-0.7198739839014076,5901.201658873548
1.088,-0.7735187003408054,5893.434786131867
1.092,-0.7943948374303473,5906.504800865725
1.096,-0.7866785214907714,5893.684951420878
1.1,-0.7547027470473999,5906.962615388518
1.104,-0.7023442387369401,5896.378922576692
1.108,-0.6330098102502898,5898.154907505558
1.112,-0.5496199202984495,5910.250182947748
1.116,-0.4547847368656943,5897.044069847652
1.12,-0.35166547659414216,5907.7108648351295
1.124,-0.2453817696616973,5891.849840368276
1.128,-0.14390314897319828,5901.775495211183
1.132,-0.05721783830973155,5898.66946913102
1.136,0.005424083783741362,5903.650696436324
1.14,0.03899656952514087,5896.87216619876
1.144,0.04506531705298208,5900.124242804468
1.148,0.03177724127099852,5899.378715355354
1.152,0.011489699379300132,5894.42119929502
1.156,-0.002960429793761375,5902.256331447646
1.16,-0.0021060636933068638,5896.525381261107
1.164,0.017247188779122114,5904.526143622493
1.168,0.05091328845301307,5903.874290007387
1.172,0.08851914975388225,5897.603980474136
1.176,0.11681875946719916,5906.0662925742745
1.18,0.12410267130042185,5886.954303205175
1.184,0.10413631510002903,5900.830013397508
1.188,0.05810169617126051,5893.870631466415
1.192,-0.006302009171075016,5907.802202948381
1.196,-0.07821757393797517,5908.7858256094205
1.2,-0.14784508396157367,5900.246277128517
1.204,-0.20955657160976013,5900.376005361766
1.208,-0.26270458503695665,5898.470741357917
1.212,-0.31009878906966,5902.562541209543
1.216,-0.3550742226462729,5894.745809571238
1.22,-0.3986087563074368,5896.121698075687
1.224,-0.43782883715135,5896.964871066074
1.228,-0.4663374144700708,5892.453623487377
1.232,-0.4758018720877643,5894.001134806749
1.236,-0.4580661458795197,5897.825884426716
1.24,-0.40748870645578894,5904.658453881778
1.244,-0.3233063068390786,5887.768550144474
1.248,-0.21144306705222654,5909.481027728215
1.252,-0.08500069946327382,5902.230622519002
1.256,0.03707644506793356,5903.3790504050885
1.26,0.13324734855283618,5897.537689518247
1.264,0.18407821639486494,5901.1878642732845
1.268,0.17722967018235578,5892.185730141542
1.272,0.11102378507909343,5898.6276695175375
1.276,-0.004854110641514536,5901.948470980736
1.28,-0.151824462119681,5895.269643120439
1.284,-0.3070391898011545,5893.721266773645
1.288,-0.44851504507462364,5898.316021455831
1.292,-0.5593259337753306,5894.563192009093
1.296,-0.6299754146675959,5901.604836233011
1.3,-0.6586793184086732,5897.714210589968
1.304,-0.6498718133146781,5906.077908613345
1.308,-0.6116879809596492,5893.660206149593
1.312,-0.5533474774985588,5908.197462361741
1.316,-0.483260624446779,5892.9291446751695
1.32,-0.40829111728445866,5904.717803718084
1.324,-0.33403799128733086,5897.785645913124
1.328,-0.2656209832556809,5902.35653240462
1.332,-0.20850862673293055,5907.001002946692
1.336,-0.16913236565316347,5900.563429464588
1.34,-0.1549956539934231,5898.090250770696
1.344,-0.17379755566303778,5895.020182906549
1.348,-0.23120987577314434,5904.545697374644
1.352,-0.32763951818924547,5902.143413881769
1.356,-0.4552109947429634,5902.189084418171
1.36,-0.5966135497798248,5908.923017751138
1.364,-0.7270212355491175,5897.065214117337
1.368,-0.8192026480065137,5900.510308671349
1.372,-0.850582661725344,5891.108425409662
1.376,-0.8098740715508439,5897.69337922759
1.38,-0.7006337280294794,5893.276216462589
1.384,-0.5402260763351615,5901.283341493172
1.388,-0.35476752682995555,5902.375010737116
1.392,-0.17231590359199053,5901.039927806246
1.396,-0.01680476678424908,5899.911413667212
1.4,0.09575305684878933,5895.573947567856
1.404,0.15845698793736693,5903.558142380708
1.408,0.17256224258877412,5908.0180981781
1.412,0.14523708800489457,5894.448969112605
1.416,0.0870445366263558,5898.393822345893
1.42,0.010019972772060324,5901.732509157173
1.424,-0.07332006354829697,5903.298252502547
1.428,-0.15048538754717714,5898.297178426505
1.432,-0.20992675216618684,5893.819177811185
1.436,-0.24287953154223715,5900.5028734764455
1.44,-0.24574875989127087,5897.049562854525
1.444,-0.22191819071145216,5900.506953911192
1.448,-0.18183319530414357,5905.024627536912
1.452,-0.14092071497836686,5898.867553645882
1.456,-0.11587496275710325,5903.50119977347
1.46,-0.1203720799884064,5897.023112670507
1.464,-0.16129321106353434,5900.317539346956
1.468,-0.23645410559944455,5907.055317322122
1.472,-0.3346536167808825,5900.581736713903
1.476,-0.43819199863197345,5905.496003569505
1.48,-0.5270948726075892,5903.577948347961
1.484,-0.5837986018669719,5895.734050236787
1.488,-0.5971321122489331,5902.726146326275
1.492,-0.5646776366524291,5892.573379915775
1.496,-0.49299157044496744,5894.57343710414
1.5,-0.39587460737046715,5897.703848798185
1.504,-0.29144636065416313,5900.4760401087005
1.508,-0.19869500739946708,5900.895475772325
1.512,-0.13383279452915575,5898.231387630053
1.516,-0.1068874404654891,5893.3845565299625
1.52,-0.11937065180501799,5902.728580490801
1.524,-0.16391652223276737,5905.908882880487
1.528,-0.22621711154182816,5900.133929626687
1.532,-0.28872078505534843,5907.598591286358
1.536,-0.3348792179478995,5904.468765630247
1.54,-0.3525906434700765,5896.635726614127
1.544,-0.3359783156838963,5908.4399200838125
1.548,-0.2854754614184781,5890.8837792104205
1.552,-0.20685366305151978,5898.211929665656
1.556,-0.1099722983932733,5906.901037530029
1.56,-0.007660777408193903,5904.554613084764
1.564,0.08539157845608793,5899.024548331551
1.568,0.1541664209581132,5901.784373003633
1.572,0.1855616944963892,5898.361101725903
1.576,0.17113839677427406,5903.221231974911
1.58,0.10952486232658899,5894.88402103611
1.584,0.007327620580280902,5902.123688359217
1.588,-0.1221162084743719,5904.073173756547
1.592,-0.26169539635977135,5898.037076431798
1.596,-0.3939191726256541,5894.57877532121
1.6,-0.5036274947418513,5907.00395341038
1.604,-0.5796904293907057,5900.097224158046
1.608,-0.6159787314649372,5904.962107247687
1.612,-0.6118416583209397,5906.929962012539
1.616,-0.5719126318707075,5905.116478912487
1.62,-0.5049723713997746,5897.128914565926
1.624,-0.42208110783652986,5895.47655046194
1.628,-0.3346981962346422,5907.376737610128
1.632,-0.2534085976782364,5892.598596399962
1.636,-0.18724717878094416,5898.052445757605
1.64,-0.14308429178546062,5902.519372649937
1.644,-0.12459399391367307,5900.308561623486
1.648,-0.1309248984559975,5913.455342243607
1.652,-0.15585813171357837,5895.384181738616
1.656,-0.18840905610179334,5899.098732999327
1.66,-0.21528657038195315,5902.328391427172
1.664,-0.22465857799289765,5892.716976233387
1.668,-0.20986908539672577,5897.178616526884
1.672,-0.17161531478320743,5905.658379805661
1.676,-0.11773527166356712,5895.87593604883
1.68,-0.06077523233776174,5899.725621842096
1.684,-0.014298722523175725,5898.6992125217885
1.688,0.010817911745610836,5901.843462874891
1.692,0.008994797493006587,5904.268212219064
1.696,-0.019210627400935397,5910.35448204469
1.7,-0.06807991424982454,5899.511181704919
1.704,-0.12898792687961366,5901.38624894779
1.708,-0.19304940471573637,5899.919687369639
1.712,-0.2532236226701538,5903.353947417631
1.716,-0.30522195944795344,5896.19480857963
1.72,-0.34713621151623253,5905.016749637291
1.724,-0.3782691834665033,5902.110451316815
1.728,-0.3978188415327001,5901.947653578928
1.732,-0.40385771637697676,5906.76245015604
1.736,-0.3928513910987226,5895.559604366352
1.74,-0.36000897313511854,5895.054603189615
1.744,-0.30083772919976304,5885.461781289671
1.748,-0.2139564413449916,5900.053805686197
1.752,-0.10437902860794095,5912.1911527668935
1.756,0.014416265984500881,5898.646396106977
1.76,0.12145093852712648,5893.785581596091
1.764,0.19294767200244678,5904.495021459132
1.768,0.20953501634305943,5894.0751201325465
1.772,0.16319444590234258,5904.85961578981
1.776,0.061109893841335236,5904.133844415003
1.78,-0.07515000185521706,5905.957366432524
1.784,-0.21494460841519672,5896.217075016683
1.788,-0.32668370779063083,5905.489354151812
