时间(s),电压(V),幅值(高频80K)
0.0,1.157061199636829,5898.960370759151
0.004,0.764230439743835,5898.2017887887705
0.008,0.4082995451344053,5890.816727765725
0.012,0.11950034732507685,5896.12900252556
0.016,-0.08507323174101682,5906.634648483414
0.02,-0.20303688631295524,5892.687199051661
0.024,-0.24474584202870475,5894.796470889743
0.028,-0.2289351362099247,5904.544619886828
0.032,-0.1777288068170211,5889.897378377147
0.036,-0.11232826502089013,5902.444996480399
0.04,-0.04983315637294204,5902.515739057805
0.044,-0.0012783678488223716,5899.077457998335
0.048,0.02883597033695722,5906.909857970471
0.052,0.041187450747431784,5894.893808022658
0.056,0.03873757363540123,5892.046658175055
0.06,0.023623708352816467,5896.880454011202
0.064,-0.004345649169816681,5899.499091921866
0.068,-0.046597910989497976,5896.691260112373
0.072,-0.10292827573386695,5896.099927166461
0.076,-0.16904277654183789,5893.787783651548
0.08,-0.23638401054858832,5896.720361513331
0.084,-0.29446379425094465,5893.454185192253
0.088,-0.3344297619971777,5894.430863641066
0.092,-0.3521892111621738,5895.537187225803
0.096,-0.3498429939891485,5894.121508127109
0.1,-0.33487356295287474,5902.046418478527
0.104,-0.31734732419742323,5899.422598235808
0.108,-0.3062526847244808,5900.09062774098
0.112,-0.30654095472589193,5899.168704328257
0.116,-0.31803835854322454,5906.724500017067
0.12,-0.336367367957683,5894.408928745475
0.124,-0.3550807938308837,5896.330891469128
0.128,-0.36789511278882714,5895.822149098862
0.132,-0.3701847031716905,5903.09845101156
0.136,-0.3594849323083076,5900.299494772016
0.14,-0.3353601380557628,5905.57774822101
0.144,-0.2993177809625509,5895.905182779849
0.148,-0.25524772247343513,5900.693505097206
0.152,-0.21014134728285508,5899.502802489124
0.156,-0.174055545921039,5903.3019479248205
0.16,-0.15823998337537934,5900.329915728997
0.164,-0.17144810473994254,5905.873441147397
0.168,-0.21598548540647566,5895.707139553965
0.172,-0.2856615568068795,5900.233002247383
0.176,-0.3668872308877515,5897.236525071189
0.18,-0.44243511348523434,5908.213941248212
0.184,-0.4961295573256532,5897.3309248478
0.188,-0.5166613640043783,5893.905784966391
0.192,-0.4995693347808009,5906.878615081175
0.196,-0.4473611749218948,5907.414542580366
0.2,-0.36816604878510695,5903.464448930182
0.204,-0.2734088427346647,5899.91490501681
0.208,-0.17518681998222474,5908.9064564001865
0.212,-0.08414983472222075,5897.079821409953
0.216,-0.008359716533535375,5905.305914671457
0.22,0.04697743992654042,5897.444900137057
0.224,0.07935950080787595,5890.970691418875
0.228,0.08884521744945853,5903.035495784488
0.232,0.0780861045256606,5895.982770537883
0.236,0.05235445858321952,5902.705927414908
0.24,0.019197705664370884,5903.546925345709
0.244,-0.012544616500794364,5898.489812813557
0.248,-0.03438512940220722,5903.858746343937
0.252,-0.04025977217687985,5896.468933487711
0.256,-0.028415215473471603,5897.285812350028
0.26,-0.0021981370379771004,5900.959591965473
0.264,0.03090172928842948,5901.608990993057
0.268,0.061731678763823496,5903.9061825575245
0.272,0.08241842087061746,5902.885184345218
0.276,0.08854860442588625,5897.210590160565
0.28,0.07992854293262718,5899.379844634306
0.284,0.06002607863327913,5895.840087337024
0.288,0.03459142348422859,5907.348774374165
0.292,0.009942120651440029,5901.348596001786
0.296,-0.008706025920654108,5897.448844698747
0.3,-0.018534412454929275,5899.686353884817
0.304,-0.019766693310597272,5903.002498135324
0.308,-0.015450239720736602,5898.183180110239
0.312,-0.010292976343013464,5892.350279554913
0.316,-0.00877516222500748,5898.132858213024
0.32,-0.013137272317604018,5895.292011367359
0.324,-0.022050968206670896,5905.86810319062
0.328,-0.030681808044847474,5898.828736616834
0.332,-0.03247322683216388,5904.219911042043
0.336,-0.022327821244151256,5903.618871967226
0.34,-7.238469336722764e-05,5898.6969686352495
0.344,0.027413585266039445,5905.259865463906
0.348,0.046813463616903785,5892.363452996586
0.352,0.04210244426584505,5899.162825775369
0.356,0.00032144269902478295,5905.964568084224
0.36,-0.08270628219073381,5898.552993504545
0.364,-0.19890664372435096,5904.487543625662
0.368,-0.3281529107897963,5904.976565713064
0.372,-0.4423284468224875,5906.135582153128
0.376,-0.5122349585354701,5905.542206753124
0.38,-0.5154930412974731,5907.734052663223
0.384,-0.44327976859403,5902.403616812022
0.388,-0.3039379912843043,5893.59721120293
0.392,-0.12215138021178407,5896.639615686892
0.396,0.06649257379065499,5902.449613664705
0.4,0.2242944415102648,5900.122717166019
0.404,0.3210495698004085,5901.560334427184
0.408,0.34145053486848137,5895.508424705115
0.412,0.287991416155529,5897.7198089813
0.416,0.17874351640480704,5889.49583027302
0.42,0.04118157465752333,5900.834909068703
0.424,-0.09561505422003888,5896.134943743761
0.428,-0.20798374221467802,5898.728890706369
0.432,-0.28227404846130055,5891.705478233813
0.436,-0.3163183209313899,5901.877766427949
0.44,-0.31786301830477015,5899.828729583134
0.444,-0.3007293135762269,5904.828920438242
0.448,-0.2799751198999448,5900.079483662004
0.452,-0.2673733947421194,5896.750414334612
0.456,-0.268187033744802,5888.425208081768
0.46,-0.27990932812482905,5889.783064013448
0.464,-0.2934070216525917,5899.266586416394
0.468,-0.2963882029763736,5906.270540328274
0.472,-0.27816031527679425,5899.316514145258
0.476,-0.23373159898979579,5898.322609522812
0.48,-0.1653257924804457,5907.073071245679
0.484,-0.08072026140502812,5895.190387774375
0.488,0.01030918382425335,5898.602384304798
0.492,0.09918837891051577,5895.981402841994
0.496,0.17980526305895142,5902.164480662666
0.5,0.24789741721032724,5898.320779921945
0.504,0.29992288810923606,5901.2305368799925
0.508,0.33278966839254515,5904.055677883648
0.512,0.34475255736057686,5907.58111503274
0.516,0.33663621681231154,5903.320448562019
0.52,0.3122355076914424,5905.247928721679
0.524,0.2773757867071658,5890.347879142839
0.528,0.2379986280543977,5895.368755957256
0.532,0.19809346059421395,5892.596323672788
0.536,0.15826099981240166,5905.053828217008
0.54,0.11546391577957567,5903.870141365037
0.544,0.06422533959282706,5907.898984039747
0.548,-0.0008932573398547435,5904.609003557264
0.552,-0.08229519500796985,5901.576189545321
0.556,-0.1771245938377345,5897.50004125629
0.56,-0.27707222266326875,5899.55773209709
0.5640000000000001,-0.37053740715809935,5906.016553959008
0.5680000000000001,-0.44610373765074934,5901.862360097296
0.5720000000000001,-0.495524081857826,5900.77424217918
0.5760000000000001,-0.5148979184121886,5899.532649195261
0.58,-0.5040588082764533,5907.280857489685
0.584,-0.4653006904558278,5899.324992000158
0.588,-0.4026862517875784,5896.512022970424
0.592,-0.3223909043708524,5904.668837013047
0.596,-0.23353585435052732,5901.562949452749
0.6,-0.14846698073377632,5891.809721211692
0.604,-0.08172003921931381,5899.463913125937
0.608,-0.04764656034006577,5895.8212889464585
0.612,-0.05727491111550897,5907.556677963199
0.616,-0.11517546765595318,5907.749804158047
0.62,-0.21704054628890723,5897.147958211788
0.624,-0.34864755083878957,5898.602840407627
0.628,-0.4869132872906028,5898.131124270802
0.632,-0.6036005357596141,5901.450696140587
0.636,-0.6715127568634012,5895.418283700171
0.64,-0.671738110576467,5898.546309845866
0.644,-0.5994498426156426,5911.29965233306
0.648,-0.46589402950469794,5903.561763729929
0.652,-0.2956484451941139,5899.345133955662
0.656,-0.12014459800776549,5899.6396083082045
0.66,0.030264729020032344,5905.029544426771
0.664,0.1331732216535141,5898.016308663276
0.668,0.17803327281265371,5892.193168191854
0.672,0.16638522620983787,5908.056981018918
0.676,0.10899877269820918,5894.920964844375
0.68,0.021467597981316148,5895.486011811991
0.684,-0.08003980461368158,5895.109125770518
0.6880000000000001,-0.18171273437244073,5895.489474115893
0.6920000000000001,-0.27335558234616647,5892.925334345934
0.6960000000000001,-0.348252148697548,5894.405938613964
0.7000000000000001,-0.402279894819639,5896.172055391113
0.704,-0.4330872111673241,5898.023030369963
0.708,-0.44001782379789284,5908.08743010112
0.712,-0.4247956034495631,5900.658064114631
0.716,-0.3921125597687214,5897.14974263598
0.72,-0.34909732787369574,5901.730609009894
0.724,-0.3034819390193414,5899.325615554661
0.728,-0.26132307355954293,5895.35802724284
0.732,-0.22545443579573313,5896.449414914247
0.736,-0.19539551975342032,5900.286641333891
0.74,-0.16872499100269092,5899.954823764678
0.744,-0.14325638974525992,5890.933012567061
0.748,-0.11888040092284789,5901.076493090747
0.752,-0.09801609444033405,5896.38106389417
0.756,-0.0844213021059012,5896.676387541179
0.76,-0.08110765837274142,5894.780733509203
0.764,-0.08849412998871639,5891.465825943538
0.768,-0.10357535276759644,5899.845125462417
0.772,-0.12029862069068513,5898.745701281314
0.776,-0.13096806358500068,5909.514012141405
0.78,-0.12831240490228665,5907.879326002867
0.784,-0.1076983962951527,5904.928376719382
0.788,-0.06887203118303735,5888.441609642002
0.792,-0.016716242868740024,5893.83311441603
0.796,0.03921334363866748,5894.441689826814
0.8,0.0863785641971374,5902.921331003711
0.804,0.11197698702490563,5891.066950410132
0.808,0.10614408202343216,5904.360117236753
0.812,0.06469552159924624,5903.970378508481
0.8160000000000001,-0.009614047686732186,5898.640072564755
0.8200000000000001,-0.10786801938894224,5903.557969450391
0.8240000000000001,-0.21748394727542383,5905.957763137852
0.8280000000000001,-0.3253523770068346,5896.499935960929
0.8320000000000001,-0.42041015239963103,5900.872968539824
0.836,-0.4949402722578411,5899.576565111025
0.84,-0.544561363094315,5902.498987220704
0.844,-0.5673726219426727,5901.122525176811
0.848,-0.5629803006980062,5901.832278955085
0.852,-0.5320702664340636,5897.74529394964
0.856,-0.47677733967825925,5900.396400090676
0.86,-0.40156398711691704,5900.700448009971
0.864,-0.31399834219242345,5895.063297145412
0.868,-0.22484254833762995,5905.884370828139
0.872,-0.1470984993474425,5901.632047561054
0.876,-0.09395858597237094,5892.809201134765
0.88,-0.07596498322196711,5896.866739811774
0.884,-0.09810975181370188,5895.3495237618845
0.888,-0.15793376408510168,5905.337011654932
0.892,-0.2455795002099066,5895.6901553452935
0.896,-0.34608255934044435,5902.919980778282
0.9,-0.4432287086969606,5900.4957696060565
0.904,-0.5236049355591872,5901.242397624475
0.908,-0.5794370739541149,5901.391144124353
0.912,-0.6093960884309182,5903.640286097221
0.916,-0.6174053898954969,5901.976125915587
0.92,-0.6101954139325853,5901.143943187762
0.924,-0.5946593758399075,5891.907007948104
0.928,-0.5759177900119586,5897.838697242983
0.932,-0.5565742176230057,5900.610617186225
0.936,-0.5371506391249081,5897.592138573354
0.94,-0.5172544292304622,5896.868749932
0.944,-0.49676645170802586,5898.844142246585
0.948,-0.4763870842388635,5907.043816612478
0.952,-0.45728644682405867,5904.461797022398
0.956,-0.44019694036875795,5906.382385245991
0.96,-0.42461968952349155,5891.250935049572
0.964,-0.4085705492393477,5895.400554434331
0.968,-0.3887995598999378,5894.4893536639465
0.972,-0.36136093967598404,5894.481997946382
0.976,-0.3227682456499217,5900.682454705447
0.98,-0.2719243233159534,5898.964366724359
0.984,-0.21216185579872446,5900.857863106157
0.988,-0.15182040758237636,5894.888266939589
0.992,-0.10202369368734007,5893.162187996783
0.996,-0.07200646044882003,5897.629090424487
1.0,-0.06432792020750808,5909.907147315999
1.004,-0.07297482810954722,5893.584463244112
1.008,-0.0860208282651438,5906.651017476342
1.012,-0.09189245236537398,5897.52567115812
1.016,-0.08600196253285415,5886.043149973049
1.02,-0.07405478340627003,5900.999495018703
1.024,-0.07010244609035798,5894.789990389491
1.028,-0.09026094004395362,5896.630664147047
1.032,-0.1451123006408495,5904.420484521288
1.036,-0.2340407936674337,5894.129857869469
1.04,-0.3434897804650893,5886.834600334756
1.044,-0.44949198842325944,5897.20127640268
1.048,-0.5235306182475755,5901.36007809544
1.052,-0.5399749875573464,5898.601615447567
1.056,-0.4830764378905519,5896.465170629449
1.06,-0.35179200779602227,5896.0751341515925
1.064,-0.161290876292705,5899.819810858186
1.068,0.05929147976272877,5890.039276360387
1.072,0.2724831262378643,5900.866729860098
1.076,0.4403103389146988,5902.034186435599
1.08,0.5325521373316147,5898.095124998818
1.084,0.5334197887665126,5902.559912236645
1.088,0.44491415202780005,5904.789831891549
1.092,0.2858522102556702,5897.772480512718
1.096,0.08680708328032533,5908.535768814921
1.1,-0.1173637407561426,5898.117060660759
1.104,-0.29493071585516417,5908.816962878097
1.108,-0.42262208887580444,5901.03175640009
1.112,-0.4882062541348581,5900.779277675365
1.116,-0.4908279942967432,5900.102315792874
1.12,-0.43978934996427715,5897.209191580076
1.124,-0.352012357457951,5913.403367365717
1.128,-0.2482414961476148,5899.055835586938
1.132,-0.1485053870850898,5905.207963954397
1.136,-0.06799502216609175,5911.353712341712
1.14,-0.014621042612164672,5889.830730677012
1.144,0.011170536872787087,5906.215837618085
1.148,0.014738266701772114,5901.666980555241
1.152,0.004698615623115952,5898.123881856795
1.156,-0.009724356292123947,5905.56854362227
1.16,-0.021118703308790215,5904.164373088898
1.164,-0.02582614890398866,5906.511648882456
1.168,-0.024807507417314138,5901.084961231053
1.172,-0.022722080584939373,5897.202837755467
1.176,-0.02525019496538793,5899.660327028458
1.18,-0.03588459480398892,5902.569256936726
1.184,-0.0539557401073325,5904.578605904852
1.188,-0.07494873490929879,5907.265066561246
1.192,-0.09278952976304841,5902.431046242963
1.196,-0.10279311912097046,5903.874878060307
1.2,-0.103858024327308,5896.831226613399
1.204,-0.09896325874970846,5894.121995541855
1.208,-0.09370988396941458,5900.022119547054
1.212,-0.09345965182859346,5903.637585827708
1.216,-0.10037886698024943,5903.10917621917
1.22,-0.11195685342858866,5901.684638385051
1.224,-0.12196451003746075,5903.02041614562
1.228,-0.123506326967144,5889.526273626541
1.232,-0.11263774322665106,5899.454088193562
1.236,-0.09082321919742527,5896.206404373471
1.24,-0.06526263109433002,5899.290924480343
1.244,-0.04706670849681096,5900.8239159668265
1.248,-0.047887512521763535,5897.608609950526
1.252,-0.07592527819117081,5899.542005774589
1.256,-0.1324318117780246,5911.048686329702
1.26,-0.20992421178564438,5889.055512105569
1.264,-0.29309955622794365,5897.889324679601
1.268,-0.3626942922647544,5901.637801633366
1.272,-0.4013696624963866,5897.205403797972
1.276,-0.39967430274634685,5901.548939847986
1.28,-0.3599076249864797,5897.608011077052
1.284,-0.29647622639796084,5901.396530914913
1.288,-0.23258854328715306,5902.141438277329
1.292,-0.1940902237241265,5903.755084070874
1.296,-0.20155627385343897,5899.094112407002
1.3,-0.2618334065765714,5901.430697952706
1.304,-0.3606532897409444,5899.151583574248
1.308,-0.45854817075440246,5905.059997889551
1.312,-0.49232575124062716,5903.027748646149
1.316,-0.38350575754036714,5902.900258583004
1.32,-0.05373240744573267,5900.082146743791
1.324,0.5546791270660771,5908.362738949083
1.328,1.4574871929506232,5893.614065174424
1.332,2.6135961356493964,5895.840966889246
1.336,3.924007290739606,5894.0342794907965
1.34,5.248638984347204,5893.813168516491
1.344,6.437804521741999,5898.886181554894
1.348,7.367945443086757,5897.049789792632
1.352,7.968814970196363,5896.010553325216
1.356,8.233491201723117,5910.83417238703
1.36,8.21039113249857,5893.283944078538
1.364,7.983007950232775,5898.950674124289
1.368,7.6456273963050245,5892.122495647088
1.372,7.28211657870904,5903.212758952564
1.376,6.951971531891258,5897.070106458987
1.38,6.684871374453681,5892.629255189764
1.384,6.4827535637934925,5892.482905739315
1.388,6.327079706511262,5896.126629808004
1.392,6.188524759301311,5906.551021869642
1.396,6.036618566823811,5897.406346114792
1.4,5.847546944300893,5893.308935803361
1.404,5.60904073048613,5904.903435797821
1.408,5.321914955110786,5897.958018699093
1.412,4.998436400377882,5895.896849838543
1.416,4.658319412124698,5895.755169242326
1.42,4.323626496255244,5897.841451825877
1.424,4.013993711366017,5899.168791689131
1.428,3.7433407331974635,5905.422291285899
1.432,3.5186476331591714,5897.252630332353
1.436,3.3406668361638796,5903.13468435478
1.44,3.205808884328006,5904.49688127891
1.444,3.1081576573471477,5895.519249003912
1.448,3.040813686867611,5908.187413117314
1.452,2.996347303967097,5900.330629765074
1.456,2.9666129599218047,5898.526736090983
1.46,2.9423681956492884,5905.845740497753
1.464,2.9132514670032683,5896.075039336405
1.468,2.86863589545311,5892.635895261672
1.472,2.7993821533715257,5900.110155576516
1.476,2.699827001266267,5903.844693862642
1.48,2.56918109571265,5906.059127553857
1.484,2.4119547999077664,5898.683344609936
1.488,2.23743422159041,5901.727180886176
1.492,2.0582313104469168,5893.44896237975
1.496,1.8878919045002374,5897.219216651538
1.5,1.7378920000923965,5902.3365218568015
1.504,1.6149206421098,5898.201443818569
1.508,1.519538235672492,5897.156843111788
1.512,1.4467817781699617,5891.487201478312
1.516,1.3884003720015787,5898.570131169509
1.52,1.335772057576973,5909.94887451224
1.524,1.282437741130081,5903.765934643176
1.528,1.2254226462184845,5897.744853356603
1.532,1.1649571834006303,5896.381812983754
1.536,1.1028434472952273,5897.64058671254
1.54,1.0403623713062093,5895.524099878072
1.544,0.9769057542561944,5908.076286675955
1.548,0.9101656592042154,5896.1185476361625
1.552,0.8378092208479715,5896.286763526161
1.556,0.7596487443862912,5900.443056279081
1.56,0.6790373934397202,5896.983483576801
1.564,0.6027319036054658,5891.057942480409
1.568,0.5392799177164189,5890.4589078405725
1.572,0.49657202404542367,5889.978883846493
1.576,0.47943056639463993,5890.291743026061
1.58,0.4880831023790302,5892.287805990657
1.584,0.518059764681836,5887.2612448669615
1.588,0.5614508641268123,5886.125631404663
1.592,0.608872812689945,5888.104577825503
1.596,0.6513564519587143,5885.964299681677
1.6,0.6817191679863405,5887.423634832004
1.604,0.6953938322495707,5887.615589531081
1.608,0.6908657189091625,5890.099609683606
1.612,0.6698585963125925,5882.03534257521
1.616,0.63729310492579,5892.66742664303
1.62,0.6008210551258267,5875.989364492509
1.624,0.5695453571562302,5880.546759892865
1.628,0.5516306723673505,5878.873221442425
1.632,0.5511006453214856,5885.366612546648
1.636,0.5650433860758822,5876.255239262116
1.64,0.5829721616486537,5879.309067653513
1.644,0.5894567479501435,5870.09663543679
1.648,0.5695150227313068,5868.855057769136
1.652,0.5146417109360665,5872.647658976528
1.656,0.42673358300614617,5876.155636576571
1.66,0.31800524688675746,5877.548901762119
1.664,0.20695959688916338,5866.662730423959
1.668,0.11242049165154316,5872.864407251417
1.672,0.04828490156929312,5869.066747096575
1.676,0.020708943063360085,5872.147574685107
1.68,0.027815262939434857,5877.137351984581
1.684,0.06097431395348771,5865.068329864259
1.688,0.10678048466581565,5863.981494533849
1.692,0.1494449585159701,5865.707150781703
1.696,0.173602839622878,5862.027009091815
1.7,0.16723600489834053,5867.900363903414
1.704,0.1240055918210028,5862.397891871362
1.708,0.04436718330222489,5871.319910752973
1.712,-0.06456221989358452,5856.94571541181
1.716,-0.1899698783431006,5863.930005956767
1.72,-0.31493637652897066,5863.962069248665
1.724,-0.42086619188835894,5862.107365354546
1.728,-0.4908714274147675,5858.4364799325485
1.732,-0.5135683445341983,5867.383745445971
1.736,-0.486146720034362,5855.289935955524
1.74,-0.4154663735818686,5860.144544163964
1.744,-0.3164500430728042,5855.374790751861
1.748,-0.2080411393003855,5863.345893042837
1.752,-0.10800583495035229,5858.899018049126
1.756,-0.02836859380371993,5867.014842939362
1.76,0.02692590370173244,5857.985756309677
1.764,0.06138206985856001,5860.439505456973
1.768,0.08283172446877526,5855.902558228947
1.772,0.09932696101293774,5860.499243301677
1.776,0.11583663957257746,5858.415789417729
1.78,0.1329500616254502,5863.87563253201
1.784,0.14772223505148052,5856.222989574717
1.788,0.15579786694297793,5854.47927620868
1.792,0.15346660976669196,5860.395560370888
1.796,0.13863961270860908,5850.979671758817
1.8,0.11072972131510614,5860.152110774149
1.804,0.07016178348758037,5855.381531720945
