时间(s),电压(V),幅值(高频80K)
0.0,0.20822754004489824,5903.441030628432
0.004,0.20071719508595737,5893.477000025398
0.008,0.18764987347029308,5905.69503644817
0.012,0.16480384641744109,5898.343529753729
0.016,0.1303283373349901,5894.23030620018
0.02,0.08456715479671352,5895.696101140021
0.024,0.028692486137350603,5901.277614149785
0.028,-0.0369120402563608,5898.783190445861
0.032,-0.11334371281884553,5893.745251969864
0.036,-0.20174576520108045,5901.042325790107
0.04,-0.29949055180714873,5895.301232140205
0.044,-0.39583092460512287,5896.881871860727
0.048,-0.4705841977860797,5904.974426615918
0.052,-0.49874147356566195,5899.266344586798
0.056,-0.4604509701443311,5904.818386097868
0.06,-0.3516782020169201,5896.354725580177
0.064,-0.1893950504302624,5905.516915407007
0.068,-0.008041194404202678,5904.385259020774
0.072,0.1509790321691176,5895.632273742037
0.076,0.25180431973236245,5895.54052359452
0.08,0.2739592524160051,5898.022089890767
0.084,0.21710431544055367,5900.7203709841215
0.088,0.10018518643954709,5903.668337759722
0.092,-0.04458885004549916,5895.18730552484
0.096,-0.18163397095056666,5906.053417145206
0.1,-0.2830108761815243,5906.623005803859
0.104,-0.3367201564109592,5905.1591411857
0.108,-0.3489759123435103,5906.829801658336
0.112,-0.33957182022372717,5890.056522170435
0.116,-0.33249374479048094,5904.436636525841
0.12,-0.34591617403859776,5898.867271933248
0.124,-0.38567178291784543,5903.752062364663
0.128,-0.4444415086234233,5900.92329360987
0.132,-0.5062570221305637,5906.412093450634
0.136,-0.553620900383131,5897.597240384076
0.14,-0.5737900803176451,5893.764092460627
0.144,-0.5620095087616719,5894.460976702203
0.148,-0.5217338888442292,5896.263637532808
0.152,-0.46324465786729585,5900.640538903207
0.156,-0.40169463209849693,5900.32399969703
0.16,-0.3545667727943228,5905.777472839578
0.164,-0.3382676316894284,5902.613047623407
0.168,-0.36418729277915457,5896.806648881613
0.172,-0.43517121724060864,5901.360371539965
0.176,-0.5433989301923482,5905.729221827535
0.18,-0.6703149185142703,5906.410421037993
0.184,-0.788976847730563,5897.985121196585
0.188,-0.8689874176962944,5900.279487752508
0.192,-0.8835045323348042,5893.729900117569
0.196,-0.8166211606189147,5901.187975209206
0.2,-0.6686294106865912,5902.461830871863
0.204,-0.4571750414407339,5906.516224644731
0.208,-0.21379778391304224,5905.223111730279
0.212,0.023078687835995492,5901.552822222908
0.216,0.2166356422134972,5901.526412815051
0.22,0.3392676455569622,5896.119937694776
0.224,0.37738181892181955,5896.787168055541
0.228,0.33247207544273927,5904.5396629225
0.232,0.2187822292709595,5902.266538346995
0.236,0.05892480148656836,5892.860050325369
0.24,-0.12075084326520445,5903.346865006824
0.244,-0.2938505674285942,5896.593642157849
0.248,-0.43670707358029637,5899.169612343462
0.252,-0.5308888299783097,5904.386425902657
0.256,-0.5656473129342902,5912.046199704729
0.26,-0.5396091757160837,5894.219853922024
0.264,-0.4606644482313408,5895.37236772344
0.268,-0.3436472404780406,5892.611661216757
0.272,-0.20656248262130608,5896.414238425026
0.276,-0.06671680234751737,5899.87944249484
0.28,0.0622143022452533,5891.880174186696
0.284,0.17175838324257608,5900.998024113429
0.288,0.2587428932771935,5909.983852241202
0.292,0.3239221264461103,5889.870717283128
0.296,0.36938597888427444,5900.458659564439
0.3,0.3955306389641598,5905.256996241469
0.304,0.3990087336149942,5893.15123756043
0.308,0.3730689610784711,5897.258077145124
0.312,0.3104477206055481,5903.081931372199
0.316,0.20739715969930858,5911.111603291677
0.32,0.06709165398381851,5905.154101826466
0.324,-0.09856190885307382,5895.534919048069
0.328,-0.26917437306589903,5893.49598653392
0.332,-0.4186218821201524,5893.013794639211
0.336,-0.5201991463448569,5899.168601885374
0.34,-0.5529793665883239,5893.64484640143
0.344,-0.5074965835581813,5900.926262668343
0.348,-0.38904084189691,5902.342276720716
0.352,-0.21747847232946996,5896.955097805281
0.356,-0.02336980755306792,5903.7673719341055
0.36,0.1587211052057583,5906.192021628515
0.364,0.29788939192199687,5894.8953731630845
0.368,0.37347555053298404,5898.570402308093
0.372,0.37893937730366256,5903.106127563448
0.376,0.32203529037110745,5895.445389518316
0.38,0.22118873650242582,5900.570559849443
0.384,0.09920022104221737,5897.957703807607
0.388,-0.023524076235534038,5904.973473248749
0.392,-0.13389107217363902,5897.999857779261
0.396,-0.22776145641114204,5900.014900875915
0.4,-0.30817101186672174,5895.014243673427
0.404,-0.38121708913667596,5890.038817990671
0.408,-0.4515440815061891,5903.071931137612
0.412,-0.5192795543567256,5898.006726077532
0.416,-0.5792633593648397,5902.38974771612
0.42,-0.6224372575317536,5888.402111489343
0.424,-0.6389864975841343,5897.222349882334
0.428,-0.6227372610761335,5900.882287124007
0.432,-0.5756284989956277,5898.911749096989
0.436,-0.5100567356667545,5902.566713599922
0.44,-0.4467998699643645,5896.560663204252
0.444,-0.4079403667257675,5895.293639754862
0.448,-0.407203299415887,5896.94395624891
0.452,-0.44252328517653566,5905.305744228354
0.456,-0.4952845341226318,5901.860856364315
0.46,-0.5372146542693667,5896.14825646543
0.464,-0.5417903879762452,5899.429445127575
0.468,-0.4950273567810336,5898.276076434871
0.472,-0.401282795050603,5905.160763240854
0.476,-0.28208685956739377,5895.832611764021
0.48,-0.1687584053608416,5900.556805968874
0.484,-0.09173256665080419,5903.356061053963
0.488,-0.07054247729503722,5895.6838488808935
0.492,-0.10792795396595736,5902.5824441011455
0.496,-0.1896388533226784,5893.825945295414
0.5,-0.2890809616883027,5907.951680158119
0.504,-0.37448052923747316,5897.605298771128
0.508,-0.41628746217876283,5900.443658983859
0.512,-0.39333075553091446,5892.816900982749
0.516,-0.2968399398522376,5903.8727810322
0.52,-0.13175828062518902,5904.268248052534
0.524,0.08464323730816575,5902.637977794779
0.528,0.32596324315542646,5898.622386928772
0.532,0.5605256846653083,5891.32303845321
0.536,0.7554469878968775,5904.570585654734
0.54,0.881204180366551,5894.178687678603
0.544,0.9169475192677752,5905.722467638119
0.548,0.8560256035794082,5901.657309743443
0.552,0.7099646559327174,5894.8162865787
0.556,0.5082034716447944,5902.530986953163
0.56,0.29166636194089923,5898.255525353673
0.5640000000000001,0.1012412318146588,5899.983127241159
0.5680000000000001,-0.03445949598268377,5906.7733026625
0.5720000000000001,-0.10678243684134275,5900.129707837724
0.5760000000000001,-0.12720194735986076,5900.321095398001
0.58,-0.1206871935781959,5900.637159347837
0.584,-0.11554441986332786,5898.548776020442
0.588,-0.1335076756948051,5900.168263602602
0.592,-0.18290328448878948,5897.557108414537
0.596,-0.25631748816940836,5901.810385785964
0.6,-0.332932919014165,5903.078464881527
0.604,-0.3846543163693927,5901.73075486674
0.608,-0.3842739904135648,5882.807029625829
0.612,-0.3134561105501623,5902.79796471491
0.616,-0.16848062603325803,5904.739693225939
0.62,0.037664761064882465,5896.308269689076
0.624,0.2773370718211775,5903.386378956906
0.628,0.5138700777536228,5895.8922595390495
0.632,0.7093903927963703,5901.433873815593
0.636,0.8330737100818633,5903.595351623612
0.64,0.8679969756264974,5908.889014879335
0.644,0.8147786297306051,5910.450112266597
0.648,0.6907625732997044,5900.398273158699
0.652,0.5248221203310317,5900.992504655361
0.656,0.34944358915010193,5904.588333723381
0.66,0.19270930090197932,5911.059160772286
0.664,0.07264837003595262,5903.708263764413
0.668,-0.0045865872493594285,5901.870349383571
0.672,-0.042655410292713594,5895.747274319995
0.676,-0.05054141152915453,5904.710221224383
0.68,-0.038183074707662766,5901.316570223778
0.684,-0.014398131333425391,5897.58265525882
0.6880000000000001,0.012694877430358008,5895.604630674658
0.6920000000000001,0.03456511952406828,5903.2931807787845
0.6960000000000001,0.04250428820000463,5894.125879737544
0.7000000000000001,0.02954378799595726,5890.974229284744
0.704,-0.007412776145490028,5897.017864439932
0.708,-0.06672295530110257,5893.588028827293
0.712,-0.14242371266768167,5894.501746695918
0.716,-0.22510859193102703,5895.127850983331
0.72,-0.3031440265341444,5898.527706242611
0.724,-0.3649263412511275,5902.627281352263
0.728,-0.4023042797618154,5901.6617398516
0.732,-0.4138528487212556,5894.700824408047
0.736,-0.40598927411689556,5898.505490780444
0.74,-0.3906808771273144,5904.088087752078
0.744,-0.3802276605794942,5898.90334460175
0.748,-0.3813444440321311,5899.799352429314
0.752,-0.39152300606142043,5889.710810108139
0.756,-0.39982834319942545,5910.320346846888
0.76,-0.3921142517388294,5896.706841578581
0.764,-0.3582542398966462,5895.715721031755
0.768,-0.297916834973159,5895.798457109184
0.772,-0.2224257996641142,5897.528425583343
0.776,-0.15230770839252972,5899.849537464552
0.78,-0.1115520459735043,5892.406375355816
0.784,-0.12013644824634025,5903.086674122473
0.788,-0.18692646398963408,5898.836353454437
0.792,-0.3056119375556928,5896.113435603728
0.796,-0.4556334013198344,5895.616881246992
0.8,-0.6078143448729135,5904.31740340396
0.804,-0.7323381364131217,5898.193622786606
0.808,-0.8063101721113065,5898.644240548252
0.812,-0.8189750590617236,5895.705661795647
0.8160000000000001,-0.7735215548545055,5899.976013656823
0.8200000000000001,-0.685068552701099,5896.226158563452
0.8240000000000001,-0.5753167342675037,5904.595215858301
0.8280000000000001,-0.4655360698874951,5903.827076612546
0.8320000000000001,-0.3704074874204525,5897.381879217747
0.836,-0.29496596428617805,5894.890239267993
0.84,-0.23547091246639015,5903.199415124986
0.844,-0.18330095807294447,5907.84091039519
0.848,-0.12987876898276454,5893.147880442703
0.852,-0.07062832700690368,5898.036721813059
0.856,-0.006853600157041874,5894.888452678014
0.86,0.05453547681227524,5897.194914554433
0.864,0.10297609646261528,5901.085845490095
0.868,0.1272376156870041,5900.097238511768
0.872,0.11859950940051996,5899.988575707024
0.876,0.07339365762665781,5901.894475915159
0.88,-0.005445749123401246,5900.5617085425
0.884,-0.10786815477086256,5903.928929323359
0.888,-0.2175399109547139,5903.500052624215
0.892,-0.3143749327532623,5901.313375689237
0.896,-0.3783693098134119,5894.126968869461
0.9,-0.3936551014204502,5895.926665502152
0.904,-0.35177006962275953,5900.0227828176985
0.908,-0.2535445931588525,5901.367682355915
0.912,-0.10924575406615654,5890.00959306327
0.916,0.0630945325229356,5893.4427767423385
0.92,0.24074958010601996,5898.528296325377
0.924,0.3999567481464511,5894.416228111752
0.928,0.5193168343318321,5909.0962207579
0.932,0.5823725452676627,5901.2437928737245
0.936,0.5792443325028858,5906.122389281044
0.94,0.5074660986644687,5901.653776458361
0.944,0.37204009137295213,5894.177198825589
0.948,0.18458747849971557,5900.012695362134
0.952,-0.03820339198196246,5893.921666826612
0.956,-0.276175183589044,5899.513455165768
0.96,-0.5069150089830429,5895.751400318191
0.964,-0.7070125741265607,5901.670925153068
0.968,-0.8542927327331878,5897.220172670432
0.972,-0.9313840115617136,5901.5288629394045
0.976,-0.929713694358336,5900.915885025462
0.98,-0.8521453931349151,5898.791341424547
0.984,-0.7129074823231288,5891.276955482362
0.988,-0.5349491681898986,5897.793870308336
0.992,-0.34603963943818955,5906.989624428804
0.996,-0.17486365815268684,5907.684618634013
1.0,-0.047574835095669205,5893.222104275446
1.004,0.015288933511412653,5899.2191456422415
1.008,0.0016278424702202243,5904.947179004101
1.012,-0.08990083233410898,5901.067551418981
1.016,-0.24862682745756695,5899.658061181952
1.02,-0.4522707633562623,5896.459015521391
1.024,-0.6694441388340034,5899.171888134278
1.028,-0.864415480150171,5903.474913679496
1.032,-1.003736678778766,5904.123268095321
1.036,-1.0633883342003294,5904.509029011181
1.04,-1.0343055685836062,5893.799970669155
1.044,-0.9242182109974704,5899.87067414701
1.048,-0.7549670017453939,5896.402941335992
1.052,-0.5562384313067977,5899.869736651947
1.056,-0.357919452126616,5908.250784308219
1.06,-0.1834210339425106,5891.970630407826
1.064,-0.04558959257128559,5892.884852906562
1.068,0.054192042195285915,5909.216732465712
1.072,0.12391051236315564,5908.765561193672
1.076,0.17643979675744462,5908.876008088787
1.08,0.22364635842413969,5900.622671153848
1.084,0.27078528870240376,5901.149057278479
1.088,0.3134890749286984,5895.976738807495
1.092,0.3390224351828116,5898.007377223969
1.096,0.3315069649535346,5904.754226145864
1.1,0.27884427413978136,5898.272111364234
1.104,0.17838923738955573,5897.447416688665
1.108,0.039136120516019904,5897.359376488968
1.112,-0.12031608720873527,5893.937161189354
1.116,-0.27694009406567055,5900.757355786735
1.12,-0.40905546493658784,5889.685007488546
1.124,-0.5000994386369846,5905.830331576784
1.128,-0.539443139683582,5897.575077419039
1.132,-0.5214016131481014,5898.381046175709
1.136,-0.4445617441791942,5903.730808479344
1.14,-0.31300698370016594,5894.3146581789415
1.144,-0.13938844807328118,5896.101466349644
1.148,0.05225554053787958,5897.408279384412
1.152,0.22722132801011644,5899.012086814615
1.156,0.346558629329235,5892.247427871578
1.16,0.3780430490604299,5903.560869055193
1.164,0.30742209362816575,5889.928816626278
1.168,0.14499692962716376,5894.793497691385
1.172,-0.07541444921547998,5905.537819929939
1.176,-0.30502783659459937,5897.000584465374
1.18,-0.49340605033094614,5897.650929237675
1.184,-0.6022379362838263,5901.042978668567
1.188,-0.615163520586747,5897.512502569895
1.192,-0.5406453886626378,5901.0856209683625
1.196,-0.40744743699852526,5905.027827722696
1.2,-0.2549650452068367,5902.321595899405
1.204,-0.12214837748090901,5900.856430835602
1.208,-0.03836142699242959,5901.045650834934
1.212,-0.017932497417958833,5898.603809674697
1.216,-0.058748670055875384,5891.59802019364
1.22,-0.14449714752058515,5900.810990380516
1.224,-0.24972292381494857,5904.6153404080105
1.228,-0.34663773496326084,5910.688558812468
1.232,-0.41250704574629754,5906.830380892104
1.236,-0.4361107402929474,5905.829582726061
1.24,-0.4213230922191995,5894.440260317059
1.244,-0.3860328768650186,5901.965514774974
1.248,-0.35588370420880516,5897.956819311537
1.252,-0.3543570184224309,5893.407726327053
1.256,-0.39269665563591,5903.697826628151
1.26,-0.4639100622399547,5894.547862926252
1.264,-0.5437929876378572,5902.420115663284
1.268,-0.5990913639160045,5896.926638002058
1.272,-0.5999414273146908,5899.569150927648
1.276,-0.5319336640942574,5897.861945713241
1.28,-0.40326545192941016,5895.075365914667
1.284,-0.24436236447445325,5902.032236332542
1.288,-0.10007604969036578,5906.254767258014
1.292,-0.016940659899164743,5901.851615005111
1.296,-0.02924096810266874,5903.855378988789
1.3,-0.14754908658205082,5896.479487136226
1.304,-0.3521311936594697,5902.020477958245
1.308,-0.5919742200268062,5897.062586036967
1.312,-0.789296106206173,5909.351018862056
1.316,-0.849780453661877,5898.771916082687
1.32,-0.6791045546789042,5901.292199998077
1.324,-0.20470830383132863,5896.9854487285975
1.328,0.6016412296210415,5900.887779377559
1.332,1.7077607584414578,5901.785869515668
1.336,3.018748106533206,5901.744869391899
1.34,4.3921568978945755,5901.291828657363
1.344,5.6678116621688295,5895.001804027859
1.348,6.70296368295181,5895.919025118245
1.352,7.401191588273833,5909.66599078907
1.356,7.726935456748375,5902.744325438989
1.36,7.704078099979694,5902.132945999812
1.364,7.402300540755521,5906.92605962657
1.368,6.917086648727983,5901.1996482591885
1.372,6.348934600048112,5903.349378572862
1.376,5.785907851855925,5898.161040409823
1.38,5.291971977940748,5903.222393178412
1.384,4.902101167533705,5900.062286284078
1.388,4.624126916977941,5895.181630732052
1.392,4.446361060249523,5898.129205794904
1.396,4.3485223665637305,5901.375963080686
1.4,4.3118939069749835,5900.064903405607
1.404,4.324600977492001,5905.409496490573
1.408,4.380245593817292,5898.654660329815
1.412,4.471616418387088,5903.725654987381
1.416,4.583737687928395,5894.736529968007
1.42,4.6907801545366885,5899.599060824311
1.424,4.759209586495334,5896.919369930431
1.428,4.756136112719798,5900.855989614865
1.432,4.659141031600455,5900.607260356467
1.436,4.463454054024246,5903.913335876134
1.44,4.1840519940103205,5900.887275117539
1.444,3.852453003085534,5906.900696849489
1.448,3.509473418302523,5899.996523298011
1.452,3.196000081110876,5900.260176396575
1.456,2.944163881107527,5895.173595634999
1.46,2.771036094131011,5905.916706201818
1.464,2.6761614316952067,5893.626360617557
1.468,2.6433275919081316,5894.879132948563
1.472,2.6460738827027215,5900.484083494648
1.476,2.6553670481936846,5909.089379337017
1.48,2.6469663921302193,5905.440716059998
1.484,2.606097781195427,5888.5602447011615
1.488,2.5283399373082864,5896.138153269769
1.492,2.4173119218801196,5896.960198668534
1.496,2.2809288317110963,5906.396407023385
1.5,2.128141827456238,5900.674142547603
1.504,1.9671635808928223,5896.733876722452
1.508,1.8048967556481994,5903.612259200496
1.512,1.646681031845428,5893.286854053247
1.516,1.4959158071237664,5900.5124403224245
1.52,1.3539438645437034,5900.471039753632
1.524,1.2208178536802152,5897.960188838941
1.528,1.096838178762573,5900.785649260599
1.532,0.9837630446568812,5905.49335435937
1.536,0.884557598621004,5888.159843716479
1.54,0.8017277696777053,5901.964160880293
1.544,0.7355190791293686,5906.739875868971
1.548,0.6832905804649706,5898.624498720347
1.552,0.6402454134196833,5896.235806517126
1.556,0.6006575950103574,5899.312741819676
1.56,0.5588822121683882,5896.347482899686
1.564,0.5104875377504562,5890.850678620378
1.568,0.45433617816729005,5885.448897486749
1.572,0.3954821829799113,5888.321906370701
1.576,0.3472306680535139,5888.583888713785
1.58,0.3302075815983308,5892.059132391251
1.584,0.36732775562055886,5875.652774785913
1.588,0.4754602689232699,5881.266534070386
1.592,0.6564755601146418,5887.445500820657
1.596,0.8914443100551089,5889.543595238777
1.6,1.1413232177402206,5883.872029030576
1.604,1.3552596577922558,5875.800139265405
1.608,1.4843555491119729,5886.465978062017
1.612,1.4959120504538332,5880.64801904482
1.616,1.3826705103606314,5888.048638476606
1.62,1.1639618686159583,5875.400898822914
1.624,0.87927527766751,5883.236708442352
1.628,0.5772356186526134,5872.502475357263
1.632,0.3037258368769295,5884.599747315872
1.636,0.09251252091616545,5880.297953138893
1.64,-0.03951708072713724,5870.311914843098
1.644,-0.09228540845811559,5876.56025465346
1.648,-0.07903690892314964,5872.147352723411
1.652,-0.02151264008092933,5873.388634149451
1.656,0.05444209093168985,5872.637780518974
1.66,0.12212446882002317,5874.588641802657
1.664,0.15670258501077047,5872.5534240755305
1.668,0.1386835943212644,5879.141474119198
1.672,0.058526469447102034,5872.086717351992
1.676,-0.07898912461155291,5865.233575807037
1.68,-0.2531406308839104,5875.412432196923
1.684,-0.43024339457429184,5867.5050707243045
1.688,-0.5711494508818841,5870.821721285327
1.692,-0.6412292070062906,5872.111182405137
1.696,-0.6197948145038269,5862.693667789071
1.7,-0.5061550411823329,5865.15917503082
1.704,-0.32066901837055656,5865.853093110765
1.708,-0.10063279996218943,5861.779485641725
1.712,0.10790408437776962,5870.038030659364
1.716,0.2603635807549593,5862.645042622471
1.72,0.323432737240094,5865.523378511609
1.724,0.28223560537889014,5861.371169868271
1.728,0.1435464724869752,5867.693894174413
1.732,-0.065411905262743,5869.514470117111
1.736,-0.3023449995080847,5869.343789572964
1.74,-0.5184246811416018,5855.231917279715
1.744,-0.6681929312701752,5860.020874302632
1.748,-0.7187764834752912,5852.246458339605
1.752,-0.6567353661478366,5860.229296095355
1.756,-0.49143470638719045,5854.51861565834
1.76,-0.25433228543833936,5856.322487425547
1.764,0.005975195878358301,5852.214905578743
1.768,0.23273354527035475,5857.40891436401
1.772,0.3732077328577341,5863.602883691941
1.776,0.3918139192604864,5852.702308897915
1.78,0.2803251874134531,5857.491906605611
1.784,0.06113970362167833,5860.703098172932
1.788,-0.2180968092533499,5851.107527509074
1.792,-0.4967294791138166,5863.216713900627
1.796,-0.7159702186247079,5846.495354406157
1.8,-0.8320068426866651,5858.987562492504
1.804,-0.8244237860606392,5855.064319135013
1.808,-0.6987612948178122,5853.529569549227
1.812,-0.483298352425318,5842.4986215660965
