时间(s),电压(V),幅值(高频80K)
0.0,-1.169193286559214,5893.689409991104
0.004,-1.0007676367349747,5902.115318415093
0.008,-0.8549596623148153,5892.397819750197
0.012,-0.7452189939776112,5899.101043497392
0.016,-0.6722644271750748,5896.280499706849
0.02,-0.6247759180201423,5895.117692856256
0.024,-0.5846891090017011,5906.68210750991
0.028,-0.5344530380728432,5892.494824858255
0.032,-0.4633379456805729,5897.987519078041
0.036,-0.370664145598206,5904.501176883483
0.04,-0.26511659110321223,5893.524600621097
0.044,-0.16081645963796076,5903.030687582614
0.048,-0.07211904847962361,5903.047315559966
0.052,-0.009472563597330346,5890.445700982416
0.056,0.02229517730658246,5898.475903124539
0.06,0.023556876525110026,5907.417047232033
0.064,-0.00131709056920219,5901.141979018108
0.068,-0.04486546064575238,5902.412153449423
0.072,-0.09716240384825679,5897.517864575506
0.076,-0.1469061180847559,5898.741347323082
0.08,-0.18332553636033835,5903.443624298868
0.084,-0.19828192425570804,5901.067458487516
0.088,-0.18760548164726676,5903.761048282137
0.092,-0.15135770930954673,5896.0017283613415
0.096,-0.09341833721981882,5904.6157105041
0.1,-0.020799057348137362,5901.080388065514
0.104,0.05728291357639524,5896.425367545206
0.108,0.13064825154025408,5904.2670522375465
0.112,0.18960569523009663,5903.849887592284
0.116,0.2263584738075569,5892.253465814777
0.12,0.23618038109500256,5897.482633761365
0.124,0.218310948655858,5897.480192336066
0.128,0.17651217946656064,5898.128308760218
0.132,0.11902639399589138,5899.037643061694
0.136,0.057535224911639885,5901.325368173188
0.14,0.004967808564686305,5901.875626353801
0.144,-0.02743990132163989,5910.704329266128
0.148,-0.033008271702307565,5902.850234988427
0.152,-0.011520755050340876,5897.9999224764415
0.156,0.030496344936481342,5899.59912099757
0.16,0.08141462205912954,5898.746943157583
0.164,0.12772310255072947,5906.130983515261
0.168,0.15771376326355535,5908.052222108971
0.172,0.1642181730670278,5898.171407661167
0.176,0.14560008875648167,5901.911892312056
0.18,0.10521712198351563,5891.494462602791
0.184,0.04997358274909165,5903.581267414849
0.188,-0.011667325326415994,5906.734957793002
0.192,-0.07193167361796031,5893.784225180407
0.196,-0.1255798399622236,5899.377399477128
0.2,-0.17047812799394027,5886.86646691888
0.204,-0.20656563599299327,5900.404492240264
0.208,-0.23391780917957253,5895.084715337459
0.212,-0.2513124881459302,5894.7379489553
0.216,-0.25639351026609775,5910.966635624821
0.22,-0.24734539829612462,5895.306133381578
0.224,-0.224905225250629,5889.738832132874
0.228,-0.19336453062832049,5905.7276386675385
0.232,-0.15988868545028037,5899.471674907398
0.236,-0.1323983469828122,5896.305000769625
0.24,-0.11693870270578925,5903.330671995459
0.244,-0.11569601258566578,5906.721830253405
0.248,-0.12651196454834115,5894.869241834743
0.252,-0.14396803447402157,5900.189827852677
0.256,-0.1612767617367711,5899.020081858257
0.26,-0.1718937497699392,5892.705176351925
0.264,-0.1701939750995423,5902.623547396386
0.268,-0.1514235459581365,5896.403107513274
0.272,-0.11180760160591659,5898.256708929253
0.276,-0.049637372777844614,5898.092602028501
0.28,0.0327065009031268,5894.484125571711
0.284,0.1269725244229834,5891.787237003383
0.288,0.2191071763281114,5899.327830355546
0.292,0.29193500351885326,5895.6777603457085
0.296,0.3296971211574818,5897.020466185688
0.3,0.32272252784353705,5891.352583997707
0.304,0.27055621478285974,5890.995152337138
0.308,0.18254130373450603,5904.232636050806
0.312,0.07569078477668059,5907.080752649287
0.316,-0.02951401598997659,5903.060023014497
0.32,-0.1141414847368021,5895.817362850081
0.324,-0.16515232229823823,5900.808068186397
0.328,-0.177906841342399,5898.84019642403
0.332,-0.15643845179705718,5898.559276888094
0.336,-0.11178067720636922,5892.610371693876
0.34,-0.058937017526072735,5892.669422912831
0.344,-0.01318029650916742,5906.468938925358
0.348,0.013513315930079628,5905.765103987234
0.352,0.015040914381901933,5906.405130948161
0.356,-0.007864048570527839,5903.236054190276
0.36,-0.048462235216755405,5901.375911143353
0.364,-0.0964337404430345,5903.77101641576
0.368,-0.14135074387035312,5899.000580634339
0.372,-0.1760960190599041,5904.786461884255
0.376,-0.19870242797782878,5892.747276169354
0.38,-0.2115528316432883,5893.672287173675
0.384,-0.21831375183701968,5895.292618542448
0.388,-0.22043172663933075,5897.507264277042
0.392,-0.21537251497556986,5900.870755108282
0.396,-0.1977462382890312,5896.856416474131
0.4,-0.16278179692707756,5899.879723896212
0.404,-0.11031887661767457,5903.960723055701
0.408,-0.04714941559906036,5897.289429565226
0.412,0.013747795588006347,5905.608210850854
0.416,0.057025317304616074,5895.560385100733
0.42,0.0701606988178899,5903.216187419509
0.424,0.047567637978982,5901.992306052811
0.428,-0.008197422367961754,5899.429873267424
0.432,-0.08824227585593615,5898.700918686896
0.436,-0.1806075266427469,5895.725800520645
0.44,-0.2730044222638908,5902.983689261658
0.444,-0.3540443369878375,5891.824707337712
0.448,-0.41344675771490497,5898.306365048907
0.452,-0.44237015208681174,5894.080959309464
0.456,-0.4345786531912517,5896.323604808704
0.46,-0.3882804054228695,5902.41503764269
0.464,-0.3078328294692056,5912.346996958895
0.468,-0.20437643545151313,5894.876983517779
0.472,-0.09475162187318606,5889.299892253876
0.476,0.0014275493591515453,5902.343073759528
0.48,0.0660111352671359,5910.242542424613
0.484,0.08666333786437948,5903.765181551175
0.488,0.05986244082025824,5901.761103760053
0.492,-0.008439981098944307,5902.705253922584
0.496,-0.10455788276906268,5901.056137760601
0.5,-0.21049510099874136,5899.971412354939
0.504,-0.30808109734159805,5899.638307105502
0.508,-0.3829781036153437,5906.822759693484
0.512,-0.42791391742062623,5897.353305525977
0.516,-0.4444804302956553,5899.143630921431
0.52,-0.44271584958444005,5900.262482292564
0.524,-0.4379730683518538,5904.578176790035
0.528,-0.44560824338994737,5897.750273837922
0.532,-0.4752911777913369,5897.689568852884
0.536,-0.5271917312619253,5904.179740529589
0.54,-0.5914731838402041,5904.353668660089
0.544,-0.6510502261375969,5898.200443796998
0.548,-0.686443773104939,5892.902923171637
0.552,-0.6812374883566372,5897.175957224294
0.556,-0.6268416226068677,5895.444808372492
0.56,-0.5255152035754683,5904.499744641895
0.5640000000000001,-0.39077356908614236,5895.610372579647
0.5680000000000001,-0.2447289631728572,5896.929012113205
0.5720000000000001,-0.11282606079493487,5885.519176933964
0.5760000000000001,-0.017550213630207576,5897.356983334606
0.58,0.026774321548654497,5899.127494188273
0.584,0.016583820267007596,5903.357784794843
0.588,-0.04111593221901596,5900.812542858199
0.592,-0.13101925381991178,5910.148551571644
0.596,-0.23318360778832495,5900.597030289842
0.6,-0.3276355828682246,5886.055364916669
0.604,-0.39913466557107935,5906.521216050355
0.608,-0.44069235156628334,5894.432401955382
0.612,-0.45442702224034115,5906.503449639252
0.616,-0.44929721285030716,5898.958709909499
0.62,-0.4366932724196383,5902.818018942502
0.624,-0.42584296258548,5899.706100365936
0.628,-0.4208953559130129,5895.981733963805
0.632,-0.42051198432228987,5897.187377299279
0.636,-0.4194709378321145,5901.186723012314
0.64,-0.4109939962398366,5894.703614780152
0.644,-0.3887082382017594,5911.688331942096
0.648,-0.34798615664409166,5906.191563702391
0.652,-0.2870094861888875,5896.099507087042
0.656,-0.20784191276486438,5905.209122979921
0.66,-0.1173281273988549,5901.933176988985
0.664,-0.027209485230080856,5898.370753902313
0.668,0.04724692732235905,5894.624775417778
0.672,0.0904244549343922,5893.544032095179
0.676,0.09081257413391468,5907.553174169818
0.68,0.04527795371701983,5901.163635946227
0.684,-0.03869247950612927,5906.148766250272
0.6880000000000001,-0.1440129630783429,5896.0317111352015
0.6920000000000001,-0.24815240059211383,5904.10264509596
0.6960000000000001,-0.32894844320722055,5906.936315242286
0.7000000000000001,-0.37011892735765256,5898.44253348864
0.704,-0.36499849285872304,5898.287741531224
0.708,-0.3178671255961942,5901.314747592071
0.712,-0.24282037108545693,5900.191437931423
0.716,-0.16046175076654243,5905.788082673261
0.72,-0.09304708495197252,5904.109150126758
0.724,-0.059140963097842635,5906.282642634794
0.728,-0.0691662681606733,5895.983231217875
0.732,-0.12313118996308957,5896.33933832533
0.736,-0.2111377619840902,5889.167241501581
0.74,-0.3162754599776479,5894.846968040093
0.744,-0.4187750948672335,5891.881352699474
0.748,-0.5002344874864546,5911.325108949496
0.752,-0.5471449096216423,5903.731862525936
0.756,-0.553321886309788,5904.4581239014105
0.76,-0.5209126283954431,5896.082728182541
0.764,-0.4596662418447039,5906.668969490908
0.768,-0.384456765691327,5902.806251791018
0.772,-0.3115792588810173,5898.915866422597
0.776,-0.25475437459738315,5896.553266044208
0.78,-0.22190556939816042,5893.349117885648
0.784,-0.21362076871903524,5897.447844387372
0.788,-0.22374275071829608,5901.141374166539
0.792,-0.24183621761737478,5910.472823602183
0.796,-0.2566943731531716,5893.663714659067
0.8,-0.25979943410673006,5911.9996732195295
0.804,-0.24768661669569947,5900.604784119008
0.808,-0.22249518283563444,5903.89176809813
0.812,-0.19067389134274887,5893.498661750153
0.8160000000000001,-0.16053367763269472,5896.19824534794
0.8200000000000001,-0.1396634830447325,5908.664743733367
0.8240000000000001,-0.13307321988799048,5904.348661854318
0.8280000000000001,-0.1424805338617959,5905.302034353913
0.8320000000000001,-0.1665999212309317,5902.053654441462
0.836,-0.20194083654224113,5899.573492707404
0.84,-0.24370230021737552,5895.053939492536
0.844,-0.28659948481173647,5904.257447966709
0.848,-0.3255527970136875,5900.610833737532
0.852,-0.35626191856011036,5897.398217238536
0.856,-0.37589349264362787,5901.2641316307145
0.86,-0.3840429561926893,5897.734365280162
0.864,-0.383558973523101,5903.274396129438
0.868,-0.3803630211070361,5904.607239350666
0.872,-0.3818095441948309,5906.61301463876
0.876,-0.394117830465472,5901.7455411414985
0.88,-0.41997847310923153,5898.41675246996
0.884,-0.4572601159641309,5895.829980288479
0.888,-0.4992422159716199,5894.752780827207
0.892,-0.5362419527807689,5905.4980060772905
0.896,-0.5579255613620913,5902.035997393952
0.9,-0.5553683498321248,5899.531077615336
0.904,-0.5224015517987892,5899.85872819879
0.908,-0.4565061834386799,5895.453227191794
0.912,-0.35966159070933545,5897.986531054074
0.916,-0.23904510727768477,5900.990410963094
0.92,-0.10698617964609405,5893.924571636219
0.924,0.02038117265294463,5890.170077246331
0.928,0.12582355107808862,5891.750347825433
0.932,0.19453549601820264,5892.996079086412
0.936,0.2175649498675256,5890.787728421312
0.94,0.1940938807733413,5890.976639479987
0.944,0.13168117807901925,5898.198636015752
0.948,0.04412230775232036,5901.510031616757
0.952,-0.0524845089843199,5900.453118490766
0.956,-0.144006232479634,5904.746174911028
0.96,-0.22120626023888915,5899.304491788494
0.964,-0.28031639174489437,5898.566583633434
0.968,-0.32140907394239904,5904.480817253188
0.972,-0.34581249874713765,5901.6394464086825
0.976,-0.35416331360939074,5905.679994341028
0.98,-0.34605466110164396,5905.326963444522
0.984,-0.3210559181234316,5903.986272044243
0.988,-0.28007124792307486,5902.387671611636
0.992,-0.22610306433429134,5909.849863619485
0.996,-0.16416111690372837,5900.506021220813
1.0,-0.10060502102815995,5904.641453815236
1.004,-0.04230230745773152,5904.086646803672
1.008,0.0042035954530409095,5901.283500314575
1.012,0.03347960191955676,5907.204990743062
1.016,0.04188259963414575,5892.264959084346
1.02,0.027972425652189176,5907.7246971850045
1.024,-0.0074336016324962504,5900.236363081682
1.028,-0.061414839873302415,5896.286116836973
1.032,-0.12907695480557663,5897.429118303724
1.036,-0.20367827092116297,5898.837475532927
1.04,-0.2770791325485988,5887.581934134945
1.044,-0.3408751623318979,5901.469280047258
1.048,-0.3883078118088982,5905.495244611126
1.052,-0.4164947074936995,5898.646122601397
1.056,-0.4278627793868986,5894.83795431281
1.06,-0.4295596757271302,5903.902650323309
1.064,-0.43058101896933254,5899.924274391171
1.068,-0.4378092644399296,5901.841043205935
1.072,-0.45288829163772076,5900.457716832023
1.076,-0.47134554206465656,5906.119084901392
1.08,-0.4842047232052548,5899.297176463178
1.084,-0.4812960079136112,5893.175654387907
1.088,-0.45487597628269605,5904.559375691348
1.092,-0.40211496324399293,5902.035667225065
1.096,-0.32564906784600944,5896.7207084246975
1.1,-0.23249368528631714,5894.950388156527
1.104,-0.1323786313433232,5902.244677410942
1.108,-0.036409538009665,5902.644302733171
1.112,0.04385629549144962,5903.320999998935
1.116,0.09755107853676752,5899.78067208824
1.12,0.11648614264997502,5900.717234601067
1.124,0.09782854931806148,5899.336044709892
1.128,0.046337602609126595,5903.123402220594
1.132,-0.025277458833276045,5901.302713481636
1.136,-0.09869420201860014,5906.314828760016
1.14,-0.15459916523385916,5895.783395149843
1.144,-0.1779895217508062,5896.36582162093
1.148,-0.16211981290184346,5901.227303810462
1.152,-0.1097431464092228,5899.303254731311
1.156,-0.0315887367575974,5897.365826535523
1.16,0.05696188462015053,5900.47741568905
1.164,0.13976250818642239,5901.847101535726
1.168,0.2033996554294923,5893.312276084719
1.172,0.23963866026218877,5898.955148310039
1.176,0.24625356713119054,5899.41131518748
1.18,0.22601995284060233,5892.215995643302
1.184,0.18448911920105535,5898.175580282089
1.188,0.12781416339426882,5899.869474967335
1.192,0.06158613899685337,5909.3614816053
1.196,-0.009319778281353157,5903.539713539479
1.2,-0.08043574374254274,5889.142778986095
1.204,-0.14723289048170562,5900.493049102707
1.208,-0.20447817248993996,5899.730535497685
1.212,-0.24565395460171568,5899.631077221802
1.216,-0.2631019565599428,5890.688283032643
1.22,-0.24942101702673475,5902.634169500064
1.224,-0.19997412415345914,5904.143886334803
1.228,-0.11568266733939644,5898.717474498613
1.232,-0.004936562144724032,5900.005507855289
1.236,0.11642602252519316,5909.589857006227
1.24,0.22740453982735764,5890.135215176293
1.244,0.3057663408336842,5893.534679348154
1.248,0.332529156470584,5903.884759761988
1.252,0.2960969948386782,5897.87545893335
1.256,0.19542931365589014,5899.77108285822
1.26,0.04161209568633505,5902.776234805603
1.264,-0.14286013251301358,5905.453638821366
1.268,-0.327549623234603,5896.219474111578
1.272,-0.4800467450380938,5903.256795050652
1.276,-0.5731669725736638,5897.298526269306
1.28,-0.5913854586368,5902.367969319451
1.284,-0.5347268828639241,5887.699101074563
1.288,-0.41910915503918167,5899.248676192747
1.292,-0.2728788331329653,5910.353116913231
1.296,-0.1300643848659177,5913.395009821134
1.3,-0.021975765177337084,5903.311046063868
1.304,0.0303252649945767,5895.162657708488
1.308,0.02033959765473009,5899.702518938005
1.312,-0.04382203494153496,5904.592109863254
1.316,-0.143160920351723,5898.821414583956
1.32,-0.2536918621119053,5903.258773655686
1.324,-0.3524822157601831,5890.166479717786
1.328,-0.42204256369802645,5900.887871674315
1.332,-0.45222442887745906,5899.837611267451
1.336,-0.43995556257407387,5899.732400896181
1.34,-0.38787353137233194,5899.94886532719
1.344,-0.3028871624121666,5898.842973819207
1.348,-0.19516440392493206,5905.044116397485
1.352,-0.07746399404642253,5901.107615661146
1.356,0.035644914342726756,5894.811260776651
1.36,0.1291462122339292,5899.027260297581
1.364,0.18958865079057377,5903.600319133379
1.368,0.20728207768291534,5896.603571564308
1.372,0.17805113473171003,5894.083768174335
1.376,0.1042041202644609,5895.622965734451
1.38,-0.005304216583268414,5903.568173671315
1.384,-0.13556012731387532,5898.592992411095
1.388,-0.26752928041903806,5906.74729997742
1.392,-0.38130266141557856,5889.887674848511
1.396,-0.46035477952573167,5905.792710936943
1.4,-0.495560188933935,5893.082287597102
1.404,-0.48737460628992985,5905.012545267576
1.408,-0.4451540561369662,5905.376438468093
1.412,-0.38382288895019406,5901.609461637069
1.416,-0.3192558215843396,5897.853211284221
1.42,-0.2641028147266655,5909.132209653533
1.424,-0.22531742383817896,5910.673688781476
1.428,-0.20383115674742983,5905.463518780652
1.432,-0.19604393175461146,5898.253792072026
1.436,-0.19625918366945583,5897.405773274363
1.44,-0.19901001160463802,5898.946985299504
1.444,-0.20040516599105573,5904.5135230380265
1.448,-0.19812400845007924,5891.8533022428965
1.452,-0.19043661677393905,5903.031579495861
1.456,-0.17519330144450404,5901.117286009974
1.46,-0.14961129501926068,5911.393261105722
1.464,-0.1110901672879207,5903.255398221953
1.468,-0.05884218433589487,5906.47619640219
1.472,0.00404885985247872,5903.211377329927
1.476,0.0687467761376102,5899.264134984645
1.48,0.11991614973949663,5897.198202311006
1.484,0.13723378502065725,5900.136443988553
1.488,0.09988770490985782,5897.563606528488
1.492,-0.00622919894943324,5900.579205294874
1.496,-0.1801572687540561,5904.805616653614
1.5,-0.3986910962948277,5902.456326583854
1.504,-0.6128196746777002,5898.122149887734
1.508,-0.7497388722763485,5905.148857691455
1.512,-0.7216721312214779,5911.996775315821
1.516,-0.4416894249888403,5895.337078666811
1.52,0.15518698424482152,5900.402005122961
1.524,1.0900990762958453,5895.688360728078
1.528,2.3246870886141444,5899.568476762825
1.532,3.75891674358839,5894.829158923252
1.536,5.246428731008884,5895.552591186491
1.54,6.6249512337295435,5905.315828358834
1.544,7.752364770786035,5898.094433939742
1.548,8.536045306842032,5898.8826592655005
1.552,8.946432333969149,5905.7199694182455
1.556,9.012906326690802,5899.747731798952
1.56,8.806445314774775,5901.239031599707
1.564,8.416592632986129,5902.52971552864
1.568,7.930065680988754,5895.71296815781
1.572,7.416001784841316,5895.080024491187
1.576,6.919666265670136,5908.705235881176
1.58,6.463631712922051,5907.612190685366
1.584,6.053722707255823,5898.169814160035
1.588,5.686534322470191,5909.91051494784
1.592,5.355847027887882,5901.9229583426
1.596,5.056464600858341,5900.433925065892
1.6,4.785441534506255,5896.146602970221
1.604,4.541674956968575,5887.544566170277
1.608,4.3249063521285445,5907.437166053417
1.612,4.134542102132725,5890.649568097413
1.616,3.968243812085622,5902.50216804509
1.62,3.8205465337174194,5897.713024824395
1.624,3.682415144841052,5905.361957673149
1.628,3.5426874141339155,5884.201787148804
1.632,3.391385173302084,5895.075786536054
1.636,3.223559156748061,5897.542194319861
1.64,3.0417260887469477,5904.355460755537
1.644,2.855535777676707,5902.924102110157
1.648,2.678678551148205,5906.849137859628
1.652,2.524338286182475,5888.806713728763
1.656,2.400965171514495,5897.276028945179
1.66,2.309705693534812,5906.630618908279
1.664,2.2440296333450718,5906.125126138826
1.668,2.1914082908449974,5897.866367671071
1.672,2.136403765841136,5899.881668146619
1.676,2.0642664228470013,5903.341720180424
1.68,1.9642353974041584,5903.407839595293
1.684,1.8320964610882513,5903.774971964716
1.688,1.6717802677465656,5903.012011820016
1.692,1.4956405629898866,5899.919385918758
1.696,1.3228742072904323,5893.445369223478
1.7,1.1758955845959806,5903.122531543362
1.704,1.0752887836240035,5901.98354269682
1.708,1.0345755620650356,5893.6425230953855
1.712,1.056169697815461,5893.667814228161
1.716,1.1297844749598547,5896.935673511832
1.72,1.2342004781192046,5897.968743869177
1.724,1.3423506454363323,5903.748666487801
1.728,1.4283138820296897,5905.585218629254
1.732,1.4738358176202704,5893.710622687015
1.736,1.4720929310757174,5901.417244328774
1.74,1.4276078771898362,5901.018719908343
1.744,1.3528679732363207,5896.815390641275
1.748,1.2633482739395643,5899.11704767565
1.752,1.1727985822850335,5896.774993792947
1.756,1.090117933598393,5897.906773498011
1.76,1.0183936667403972,5891.949728694951
1.764,0.9559206940320609,5893.310457471692
1.768,0.8984117617993743,5896.417797669091
1.772,0.8414015535996037,5890.065899813807
1.776,0.7820621409481899,5894.8004288195625
1.78,0.720086602176023,5894.526371398159
1.784,0.6577287305472337,5886.445799477578
1.788,0.5992991224129732,5883.344944838455
1.792,0.5503165393255443,5886.156631708984
1.796,0.5162787282742825,5890.492007937785
1.8,0.5009855566425302,5894.070789600529
