时间(s),电压(V),幅值(高频80K)
0.0,0.05735615291965001,5907.540929669214
0.004,-0.002700469798095503,5906.065069534593
0.008,-0.06611379295159683,5903.531196679922
0.012,-0.13003422464970546,5905.343817626775
0.016,-0.1887738968453115,5902.557564912887
0.02,-0.23502977056062038,5896.0852839990575
0.024,-0.261651733509481,5896.323547912331
0.028,-0.26300493896501387,5888.522524067335
0.032,-0.23611665439514046,5902.538547901773
0.036,-0.18217999522122597,5894.962662410068
0.04,-0.10815652328103931,5909.687098424435
0.044,-0.027303245344874452,5896.108461613854
0.048,0.04235751477557995,5907.320991540102
0.052,0.08147965685309466,5906.873624073204
0.056,0.07368613454257185,5896.315472024983
0.06,0.009567112634894709,5902.785463165746
0.064,-0.11046645619627256,5895.048594798235
0.068,-0.2752314691155089,5903.660004884092
0.072,-0.46436592578421365,5901.28595658522
0.076,-0.6523328399785381,5898.186552892594
0.08,-0.8134954857466532,5904.154775395279
0.084,-0.9264503439381085,5902.85834172632
0.088,-0.9766017324440799,5895.962924764568
0.092,-0.9572003022631376,5901.562497686768
0.096,-0.8696078218864292,5899.303736140374
0.1,-0.7231305068396535,5897.145991620819
0.104,-0.5340788030852612,5896.413683908942
0.108,-0.32360774144348703,5902.372659149584
0.112,-0.11445375852378899,5902.200086238483
0.116,0.07269757844766848,5899.927981467081
0.12,0.2222193180119157,5903.071541834553
0.124,0.32505584977660107,5892.574779330377
0.128,0.37846688053030375,5903.398030692541
0.132,0.38466496267568145,5902.808789889312
0.136,0.34950583395801854,5897.674761176972
0.14,0.2818916966054439,5907.390795233401
0.144,0.19355561950425693,5904.061505742373
0.148,0.0983459836143241,5899.290287592884
0.152,0.010489005857010725,5893.933023626442
0.156,-0.057691961418346066,5904.953674004564
0.16,-0.097403461397371,5905.576826084528
0.164,-0.1035745322109995,5900.28146110058
0.168,-0.07414860597373849,5900.248779471803
0.172,-0.009972942988446707,5902.077625095146
0.176,0.08368012563606261,5904.085735578202
0.18,0.1946359996167117,5897.115659975501
0.184,0.3025874289818611,5900.431333998078
0.188,0.381282067526417,5909.861431073123
0.192,0.40462117940794057,5902.407698239131
0.196,0.35487593066277634,5901.411404594538
0.2,0.22965007900566908,5900.158706283055
0.204,0.044353621190543924,5892.749930216228
0.208,-0.1711345850095174,5887.83959554833
0.212,-0.3803880079640975,5907.413495371978
0.216,-0.549991191148283,5901.369351259458
0.22,-0.6575629030704802,5903.477545503379
0.224,-0.6960574746647837,5899.205893273382
0.228,-0.6736586688761917,5898.928018576071
0.232,-0.6099075540082172,5898.531436985308
0.236,-0.5294651870565045,5901.721535210265
0.24,-0.45516214982444875,5901.693486703081
0.244,-0.4020788776149093,5907.283741927337
0.248,-0.3743937134013783,5905.241286650511
0.252,-0.36610637284589226,5899.229751454206
0.256,-0.3652116743852484,5903.2793867419
0.26,-0.35937283773453305,5902.0561914882455
0.264,-0.340876625159981,5896.878360223459
0.268,-0.30950210374979265,5888.454782527399
0.272,-0.2727107902938724,5896.563097952351
0.276,-0.24299447835515717,5889.975422897811
0.28,-0.23304240163085213,5901.5848319840525
0.284,-0.25059681063241873,5898.215999661424
0.288,-0.2953834827678239,5905.153348358572
0.292,-0.35968906309421556,5894.365744662897
0.296,-0.43241053940671187,5907.602135317954
0.3,-0.504539549482104,5902.139972414198
0.304,-0.5729999779786789,5899.739298790609
0.308,-0.6404417477736547,5898.45420190057
0.312,-0.7109655602363287,5900.104507932407
0.316,-0.784269735102276,5899.668350155601
0.32,-0.8516471195146228,5901.161344229885
0.324,-0.8963179143145964,5904.6668107083815
0.328,-0.8985444160594732,5899.2233093162495
0.332,-0.8436511828099399,5901.466072691438
0.336,-0.7293812058701822,5897.919726288016
0.34,-0.5689769196863911,5896.164039272348
0.344,-0.38823950852182115,5907.350842269739
0.348,-0.21766468238362052,5906.460385127644
0.352,-0.0830514669487605,5904.4595976354985
0.356,0.0015134972484057987,5895.905105721417
0.36,0.03584283590518073,5908.51205243512
0.364,0.030879656434025165,5888.725086333489
0.368,0.0027009554375830784,5901.528814396546
0.372,-0.034157728783608315,5904.507154100257
0.376,-0.07160781348529875,5895.2888238527
0.38,-0.10953549004272475,5896.746869025535
0.384,-0.1536483808118521,5908.455999189256
0.388,-0.21065965119602661,5904.772322002222
0.392,-0.28288222733996193,5899.928185422015
0.396,-0.3647898826401039,5890.889444520659
0.4,-0.4433925821552914,5898.740593507824
0.404,-0.5023154000896283,5901.596312107396
0.408,-0.5275392513130694,5896.076717160296
0.412,-0.5122052566400219,5901.342953564672
0.416,-0.4586667113385115,5897.026882813174
0.42,-0.37725259560189656,5902.269621589071
0.424,-0.2824788655650175,5898.182688037458
0.428,-0.18845440767004518,5891.636707677084
0.432,-0.10548887013251101,5895.754734310466
0.436,-0.03901750229194582,5900.78309929575
0.44,0.009591400223797009,5895.823834522557
0.444,0.041716242844315674,5902.474096163174
0.448,0.06064060838404464,5897.838095076761
0.452,0.0711261620365186,5905.258808776755
0.456,0.07872337641375907,5899.398753783191
0.46,0.08839928489515268,5892.076928477858
0.464,0.10273868751870528,5896.72431780668
0.468,0.1204684600887952,5902.505395849713
0.472,0.13611186598293648,5903.037010312513
0.476,0.14114207965213996,5902.131178851858
0.48,0.12621968769022715,5904.166353767094
0.484,0.08358222291188501,5905.038999132658
0.488,0.008913675184423134,5909.749972251212
0.492,-0.09734540590011932,5903.939901487993
0.496,-0.22909016545188596,5907.098622867645
0.5,-0.3742510466086497,5902.24142688013
0.504,-0.5156707040635605,5901.19037548002
0.508,-0.6336221970978045,5907.130233232044
0.512,-0.7097750373618834,5903.523785841161
0.516,-0.7314609148164468,5907.858516911898
0.52,-0.6944459973466537,5908.395362949992
0.524,-0.602801424451314,5895.622142788394
0.528,-0.4659793978180318,5897.222609558627
0.532,-0.29491343411345844,5903.929260883033
0.536,-0.0995854800483236,5910.353090033719
0.54,0.1104947056801506,5903.927444328579
0.544,0.32347049680795154,5902.52892072408
0.548,0.5222112172934857,5905.088258307367
0.552,0.6836318555617079,5904.700157389209
0.556,0.7813121704145906,5899.2855174487495
0.56,0.7908744268554332,5900.155043221038
0.5640000000000001,0.6965317651385967,5896.933621148206
0.5680000000000001,0.4968018771779106,5900.53566633337
0.5720000000000001,0.20746931645842756,5901.657257674533
0.5760000000000001,-0.13952553851593857,5909.955303537371
0.58,-0.5014816308727125,5893.601459362615
0.584,-0.8333974017947339,5893.478243775348
0.588,-1.0970767111668192,5902.748908259339
0.592,-1.268172988863827,5905.855852150799
0.596,-1.3393117205309921,5896.114851292112
0.6,-1.3189424564216365,5902.6433120752245
0.604,-1.2270212744866709,5900.41979684186
0.608,-1.0894321630892327,5890.70539995838
0.612,-0.932920456219353,5901.115053652777
0.616,-0.7814374769657084,5900.414322055712
0.62,-0.6538493566858272,5901.786152613044
0.624,-0.5625464737145922,5902.920186823571
0.628,-0.5126544819748622,5899.304684794804
0.632,-0.5018412361540758,5896.411549936654
0.636,-0.5207978546518702,5904.478787647679
0.64,-0.5544919426801809,5892.934934491484
0.644,-0.584380642255073,5897.88472922756
0.648,-0.5916925063184099,5908.672825022707
0.652,-0.5614632439334115,5901.228063879331
0.656,-0.48643603799145785,5895.099617763669
0.66,-0.36956829564604093,5907.665665383215
0.664,-0.22400416388848046,5904.995397596535
0.668,-0.07005906715853835,5898.050310399507
0.672,0.07014909660933864,5895.379817350555
0.676,0.17870289476848136,5898.211528667226
0.68,0.24632259815199545,5901.910343077269
0.684,0.273625198007625,5903.364228412149
0.6880000000000001,0.269002811677418,5909.564387762803
0.6920000000000001,0.24429869395731624,5899.243013115777
0.6960000000000001,0.21019295645280292,5891.930837366654
0.7000000000000001,0.1731725921880258,5894.952400672801
0.704,0.13513537703684475,5902.116453395045
0.708,0.09530783722380728,5905.915448621276
0.712,0.0530201854672607,5897.698074648443
0.716,0.009696063967855564,5898.743419142555
0.72,-0.03083732384937441,5895.4575701246495
0.724,-0.06354462928731446,5900.316346816177
0.728,-0.08400758910335407,5896.182136314876
0.732,-0.09002382423256582,5889.916385547837
0.736,-0.08261502118608728,5905.877728216482
0.74,-0.06638467428235538,5894.918991452983
0.744,-0.048950840798989134,5894.177900401205
0.748,-0.03895887479480747,5899.880963356548
0.752,-0.0427341613378729,5887.799901962687
0.756,-0.060858562426646674,5900.444556810601
0.76,-0.08673720900802799,5903.896419006614
0.764,-0.10860740118599502,5901.638614552415
0.768,-0.11458135893642275,5899.581907814367
0.772,-0.09840997537011853,5894.798110009808
0.776,-0.06309232128340733,5895.19994110333
0.78,-0.020665932343601853,5904.866700304928
0.784,0.011433530534806013,5901.358201148132
0.788,0.015571740469922844,5893.6425179906855
0.792,-0.021350010345033265,5905.944257496291
0.796,-0.10473163191775894,5901.945391834672
0.8,-0.23076479789970364,5895.857136288581
0.804,-0.3863957580112909,5899.635842614029
0.808,-0.5509377403369781,5904.633121843268
0.812,-0.6995748311182225,5901.143342676836
0.8160000000000001,-0.8083381235839882,5898.756047985746
0.8200000000000001,-0.8592832388463357,5901.368999763993
0.8240000000000001,-0.8442825620127938,5898.481740149002
0.8280000000000001,-0.7663079269945248,5903.053255162321
0.8320000000000001,-0.6380559804529652,5894.132235190234
0.836,-0.47870650251206737,5900.781061247444
0.84,-0.30998875726659914,5900.716927861885
0.844,-0.15247401215687337,5903.112180046002
0.848,-0.02255526799296567,5905.175890647226
0.852,0.0695912848631081,5899.555595310974
0.856,0.12071565572809585,5899.432167591366
0.86,0.13370153742851407,5896.125444112712
0.864,0.11559489207971149,5898.688267237007
0.868,0.07523434407341197,5902.588941920776
0.872,0.021330653336948176,5900.648893366409
0.876,-0.038577584793239625,5898.287333841147
0.88,-0.09847428980546946,5902.355710889341
0.884,-0.1539352689940341,5901.773267059492
0.888,-0.20203562807436506,5895.762034176557
0.892,-0.2409565164347697,5898.484976920965
0.896,-0.2693997930777575,5894.289286644317
0.9,-0.286331817050451,5896.706355416114
0.904,-0.29148046216823786,5902.366662332472
0.908,-0.28638013879812096,5895.107322534025
0.912,-0.2752506952823336,5904.663442427482
0.916,-0.26499940552134926,5903.35673378257
0.92,-0.2639872480803458,5897.13758444795
0.924,-0.279740409309889,5904.855741732341
0.928,-0.31635034961025454,5897.488427814128
0.932,-0.37245745375690004,5906.062885185972
0.936,-0.4403756678052015,5896.095725109428
0.94,-0.5066561927655002,5898.182836087788
0.944,-0.5544078861907351,5901.492425694081
0.948,-0.5673763639641275,5893.028001962391
0.952,-0.5347967439025745,5899.370019595834
0.956,-0.45510704897754495,5899.181864011128
0.96,-0.33678580594362617,5901.826730926378
0.964,-0.19595579961802323,5897.893034297718
0.968,-0.05193870641896545,5905.624982193954
0.972,0.07738315662807202,5896.493226965102
0.976,0.17886414534763004,5906.226782959475
0.98,0.2453679892350542,5904.196777365416
0.984,0.27518954981295796,5893.729447039361
0.988,0.27030470342043356,5901.474059426715
0.992,0.23436137001335858,5898.247797848113
0.996,0.17147791033623402,5901.474925415023
1.0,0.08659656238763887,5901.574785904067
1.004,-0.01300063155507609,5903.637470172389
1.008,-0.11659514616857419,5904.068159653323
1.012,-0.21097325823395627,5902.581546918104
1.016,-0.28372653569409284,5896.194203936052
1.02,-0.3275002718528928,5899.333801146954
1.024,-0.3428219911182141,5907.959811668488
1.028,-0.3377931421559479,5891.877152400484
1.032,-0.3248059026224408,5890.602605168644
1.036,-0.31600876123979554,5898.295070602587
1.04,-0.319444122334271,5906.902249908189
1.044,-0.33708725239830867,5907.37292247995
1.048,-0.36522313890023256,5899.497275129779
1.052,-0.39675505158354096,5902.162697309674
1.056,-0.4241915596895185,5901.110827260496
1.06,-0.44181469682024216,5895.666792185759
1.064,-0.4462023954356448,5892.857444260666
1.068,-0.4353692530618652,5906.635292646018
1.072,-0.4076193342950247,5897.945267853055
1.076,-0.36135594756767286,5896.272961485248
1.08,-0.2963851242920043,5892.897854215367
1.084,-0.21597003371166365,5897.447931008125
1.088,-0.12799877127193854,5903.343673281083
1.092,-0.04401470895260547,5903.7780985713625
1.096,0.02374610713765962,5894.77075635391
1.1,0.06603865472643526,5891.538703769927
1.104,0.07965237540154321,5895.919480246261
1.108,0.06891264146882356,5899.705620343671
1.112,0.04506367406182491,5899.685350473386
1.116,0.023300747817657758,5900.759502002134
1.12,0.017980983445441072,5895.842338438225
1.124,0.03749633291513086,5893.469378426279
1.128,0.08084615412274383,5890.358794935892
1.132,0.13763236436246074,5897.656954166066
1.136,0.19184766458168964,5902.667455636952
1.14,0.22792942361854038,5902.84909297359
1.144,0.23632134172643635,5906.700380115322
1.148,0.21620449260583724,5903.897332833848
1.152,0.1748056107281681,5899.807534011152
1.156,0.12432162725287055,5894.855073764257
1.16,0.07788921018429451,5895.610200550454
1.164,0.04546062982742988,5892.094958402938
1.168,0.030093238130772738,5902.577925626582
1.172,0.02559691140430999,5898.506958752939
1.176,0.01698615442511681,5902.473420844806
1.18,-0.015376844972206562,5897.120923596478
1.184,-0.08875889706883144,5898.931047182447
1.188,-0.2106542544897997,5894.615429843732
1.192,-0.37400154593424556,5898.359467850382
1.196,-0.5570058324812318,5907.603374205851
1.2,-0.7276716085564336,5903.374714035777
1.204,-0.8514545981087297,5901.245100346307
1.208,-0.8996521970140056,5904.747420194926
1.212,-0.856332223089734,5896.63402230089
1.216,-0.722351666978333,5905.075491473558
1.22,-0.5157986343803894,5903.797558119591
1.224,-0.26868412383728285,5898.012185616782
1.228,-0.02019502512077217,5899.538041879564
1.232,0.19220684747323585,5901.127379330303
1.236,0.34135009246888853,5908.3463279096495
1.24,0.4157212343852371,5903.454104390967
1.244,0.4199067987947967,5890.876732565297
1.248,0.3704841317925949,5900.7771404856085
1.252,0.28953847624855644,5896.489773720133
1.256,0.19851279161266652,5905.482933866874
1.26,0.11425618318381493,5896.995189099068
1.264,0.04762651666243301,5909.506629469426
1.268,0.003780110361650291,5897.720172962654
1.272,-0.017008018613533932,5892.644650427211
1.276,-0.018559116833013752,5908.515581882741
1.28,-0.007855930157207777,5888.63132086421
1.284,0.006441333739236684,5894.78443444962
1.288,0.016061814532555833,5903.048828405095
1.292,0.015270231272248427,5905.321524255804
1.296,0.002312958260985919,5901.863147427172
1.3,-0.020381927856680804,5900.697115165077
1.304,-0.04718263623989272,5906.978671686217
1.308,-0.07077909182713245,5890.319396706293
1.312,-0.08349301500577415,5900.42321080027
1.316,-0.07805765338721114,5899.86010068433
1.32,-0.04831949408209807,5890.828796543397
1.324,0.009331404512146738,5904.909718475659
1.328,0.09361645792990946,5902.9088434346
1.332,0.1961526724774185,5904.029723741673
1.336,0.30113795132241494,5895.642368040611
1.34,0.38807840511601405,5898.150932753628
1.344,0.4369609309876164,5900.717433203592
1.348,0.4337003792091542,5895.330590978893
1.352,0.3735182767692961,5904.448680984533
1.356,0.2612746092124607,5899.992175993225
1.36,0.10955077518073703,5896.243211723062
1.364,-0.06396825529829893,5896.272913256889
1.368,-0.2389538370069948,5889.045714528737
1.372,-0.3949913864282299,5902.640689620856
1.376,-0.5147224301386685,5907.956413628441
1.38,-0.5872029234625911,5893.913762956563
1.384,-0.6101512282289051,5899.751590964778
1.388,-0.5897936115411223,5899.539735542713
1.392,-0.5382334161214889,5894.74905104311
1.396,-0.4696810314915709,5904.993251263424
1.4,-0.3972211935847971,5892.173494914799
1.404,-0.330951685986776,5904.737158076123
1.408,-0.2773275640051728,5899.805499892131
1.412,-0.23913149193261404,5899.17123933091
1.416,-0.21558746609130172,5901.356668668872
1.42,-0.2024660331552815,5901.764266346535
1.424,-0.19240708149107177,5899.789632315976
1.428,-0.17589911280778145,5898.15856178614
1.432,-0.14322911984815,5909.374610535495
1.436,-0.0872191320925753,5906.864391345536
1.44,-0.00590503233193349,5900.486513931907
1.444,0.0959874321737189,5900.2543133327945
1.448,0.2074681256230488,5901.389666042743
1.452,0.31343550002599696,5898.234623846071
1.456,0.3977745132005009,5898.390532130175
1.46,0.4464810754867777,5898.373755274508
1.464,0.4500060271314863,5901.207108123637
1.468,0.4043473333633428,5895.9998835784445
1.472,0.31099166786752175,5897.562636182746
1.476,0.1762209167020599,5900.797738048183
1.48,0.01022214477086378,5898.134742102133
1.484,-0.1738563968824224,5896.386341305672
1.488,-0.3608297596755355,5905.453217463556
1.492,-0.5342103898302671,5906.664835921373
1.496,-0.6767692106578292,5898.953293629535
1.5,-0.7714746139624341,5896.0878832904245
1.504,-0.8035597472017447,5905.275632573809
1.508,-0.7637469712398651,5896.244277544056
1.512,-0.6515047063470543,5899.995318735879
1.516,-0.47676584077139356,5898.204089967825
1.52,-0.2592065666791457,5895.592480713267
1.524,-0.025224844175708694,5902.38208616212
1.528,0.1966510200551797,5903.062545656232
1.532,0.3809978064394106,5893.017280117903
1.536,0.5102321721007633,5893.297843993873
1.54,0.5775525438937215,5895.755267017164
1.544,0.5871331316906006,5896.0962321659845
1.548,0.5515042927230764,5904.56574730937
1.552,0.4870905161161981,5899.340717662861
1.556,0.40951158462983905,5897.82291175511
1.56,0.3302045248950757,5899.964757746261
1.564,0.2552754705003321,5896.409685551592
1.568,0.1864317173139917,5898.973613621756
1.572,0.12278697238399326,5901.069465688131
1.576,0.06207183997202219,5900.526731889597
1.58,0.0006898692947269489,5895.162221524148
1.584,-0.06670157455479858,5901.620962187336
1.588,-0.1470213385970419,5906.717747768738
1.592,-0.24752270829446135,5903.264587886117
1.596,-0.37373009868929613,5902.369840122147
1.6,-0.5270853912350617,5902.570997775605
1.604,-0.7026461084333325,5899.647823751283
1.608,-0.8867808588880336,5902.515063467189
1.612,-1.0546015912783462,5894.645114577669
1.616,-1.1673129554815351,5900.569950121162
1.62,-1.1708968205948809,5896.349905641774
1.624,-0.9989382870589253,5905.37850183884
1.628,-0.5825337964439635,5894.43298421155
1.632,0.13203020455562667,5893.665167312608
1.636,1.1613831902442329,5892.97730036407
1.64,2.4666491566004383,5897.331936731744
1.644,3.9475003594534885,5908.116528287403
1.648,5.454468791399289,5899.591201832992
1.652,6.8182061988002465,5902.34961615275
1.656,7.886867861713705,5901.295524645013
1.66,8.55927473227831,5898.086507969552
1.664,8.80383944693727,5892.696821934269
1.668,8.659264571303723,5904.2165359700975
1.672,8.219101716110014,5896.235910450718
1.676,7.606228469883051,5902.131889979501
1.68,6.944737470585026,5897.686537504982
1.684,6.336028795515325,5898.009615185073
1.688,5.843758238694693,5898.590348826848
1.692,5.4895400951478175,5896.524824037554
1.696,5.258651702526958,5902.186167758392
1.7,5.112846006017404,5906.559111363589
1.704,5.005988488904055,5901.858386339398
1.708,4.898023126048783,5892.10420067549
1.712,4.763960451915808,5897.745426004397
1.716,4.596500573898494,5894.913331370691
1.72,4.402629859994976,5900.537148630699
1.724,4.195998555150052,5897.14229462124
1.728,3.9883331964800632,5904.282701951424
1.732,3.7838270395090023,5891.774952821168
1.736,3.5792094064376196,5902.240021798049
1.74,3.369152715078399,5891.472230319291
1.744,3.153659242718338,5905.355545817257
1.748,2.9430533529885454,5907.103735426601
1.752,2.757665096632951,5903.863666949347
1.756,2.622101054632768,5895.067629128551
1.76,2.5565278346115248,5912.544675274937
1.764,2.568513378409465,5903.990081858566
1.768,2.6484431046325567,5905.4159370992265
1.772,2.769910445537725,5894.024017975883
1.776,2.8947117609632764,5901.170997675726
1.78,2.980875977327233,5905.415377101216
1.784,2.991635937186992,5898.688524219522
1.788,2.9031892647284594,5903.681106778208
1.792,2.7094925854203677,5900.594473748552
1.796,2.4232027110447487,5901.081191520756
1.8,2.072920298612155,5894.601937790775
1.804,1.6977090280897167,5905.2337424043
