时间(s),电压(V),幅值(高频80K)
0.0,0.28170314172889904,5896.429358383244
0.004,0.29271968796004166,5897.080354295708
0.008,0.29422293519935144,5901.7662676976415
0.012,0.28139000170379885,5898.028285567006
0.016,0.2536701583449266,5894.878170095471
0.02,0.21478211271280992,5897.7191091166
0.024,0.17167983714902668,5896.537269566737
0.028,0.1329737571762605,5911.644509906015
0.032,0.10704223028783906,5901.761850361232
0.036,0.10016313008648674,5904.835631536655
0.04,0.11522103371359363,5906.43126143681
0.044,0.1513272824251048,5903.127871016077
0.048,0.20410818998916586,5902.437264501797
0.052,0.26614923423341913,5897.148165572019
0.056,0.3274770412524476,5901.103987237404
0.06,0.3765597557881506,5903.212737751982
0.064,0.402333741010259,5897.326851107172
0.068,0.3969964047138618,5902.909735994709
0.072,0.3584300018537622,5901.398920714872
0.076,0.2910459162474502,5900.237810158835
0.08,0.2046308636086988,5902.371599237376
0.084,0.11165734234088656,5900.344114341563
0.088,0.023909276798868524,5903.0249558907335
0.092,-0.050640348725875306,5900.644541178948
0.096,-0.10966691047743135,5900.158157179873
0.1,-0.15620129261163623,5900.47210522503
0.104,-0.19624094673060272,5898.381465522855
0.108,-0.235458392470181,5896.62798684384
0.112,-0.2766707151392188,5898.507007261823
0.116,-0.31908328113915724,5905.613703940008
0.12,-0.3591009584146584,5905.646668343285
0.124,-0.39174066627463566,5897.640446179402
0.128,-0.41193677980628873,5903.116860303357
0.132,-0.4157156925934717,5899.904825346326
0.136,-0.4012677716351661,5901.482817410251
0.14,-0.36938020578776126,5895.314776832531
0.144,-0.3226337659552962,5900.845197519136
0.148,-0.26370634247192454,5901.9984571179775
0.152,-0.19415847116223506,5900.411650153619
0.156,-0.11500828561061445,5904.611467151756
0.16,-0.02904581879054269,5882.149460122452
0.164,0.0567279680448568,5900.956557400017
0.168,0.13050426004807242,5890.987354560275
0.172,0.17774992160561826,5896.473504231382
0.176,0.18528697535288835,5893.861531422848
0.18,0.1458227655405346,5909.680754089106
0.184,0.06133331381913628,5904.746530576865
0.188,-0.055886826880951625,5902.833243728922
0.192,-0.18509625131969412,5898.037141906791
0.196,-0.30173719537872973,5904.228947415068
0.2,-0.38371689931603803,5900.3460128592105
0.204,-0.41738658308649473,5904.113476751775
0.208,-0.4011543101799532,5904.434665497506
0.212,-0.345578186460891,5898.438655241317
0.216,-0.27021205032632617,5904.066089692071
0.22,-0.19853876683099764,5897.62960769713
0.224,-0.15251970815406243,5903.475682853332
0.228,-0.14786923807618635,5909.144281625908
0.232,-0.19077016421427123,5893.778481617628
0.236,-0.276572629402678,5903.116681846626
0.24,-0.390728210741264,5897.491798621471
0.244,-0.5116920159712244,5900.822795761879
0.248,-0.6150954233010738,5894.674363177767
0.252,-0.6783463397514236,5897.929755990714
0.256,-0.6848311333313878,5892.684332829129
0.26,-0.6269673517609736,5899.464187084901
0.264,-0.5075668868703234,5903.462180383827
0.268,-0.33935647478813424,5896.993904737184
0.272,-0.14286125594105772,5903.921955818745
0.276,0.05703693545434573,5901.812172705687
0.28,0.2355089240308588,5900.22759685868
0.284,0.37239114370097326,5900.423042387623
0.288,0.45566229695482596,5908.935044458109
0.292,0.48257741288167105,5905.480524313017
0.296,0.458420424298566,5900.3605558083655
0.3,0.39405198779037687,5895.884465593507
0.304,0.30351479785924196,5899.975956013969
0.308,0.20203494606860814,5906.401418072815
0.312,0.1040146076160962,5897.584221269336
0.316,0.020798775291742184,5900.14104349779
0.32,-0.04130408467894108,5901.757711938157
0.324,-0.08194615202709292,5895.034917691701
0.328,-0.10620563772362349,5908.912697608522
0.332,-0.12286449941406122,5889.580762274945
0.336,-0.1420570456050476,5898.355782239283
0.34,-0.17261759187615888,5902.873488565183
0.344,-0.21927761910742052,5891.792095900585
0.348,-0.28026548050096983,5896.796956001614
0.352,-0.3464575803609047,5893.061669551843
0.356,-0.4030601629368647,5890.221245176227
0.36,-0.433663671519437,5899.725775333827
0.364,-0.425319598006353,5895.9158185742135
0.368,-0.37289716946354473,5897.879114788419
0.372,-0.2813237134978106,5893.8093450743945
0.376,-0.16497560724546073,5904.173080162577
0.38,-0.04433679846150688,5907.931903362929
0.384,0.059079924007916354,5903.578368959255
0.388,0.12807401562818813,5892.934393642843
0.392,0.1539278973653838,5896.143306655966
0.396,0.13825332658557055,5902.218858766177
0.4,0.09186040227881005,5900.29795800936
0.404,0.030926774056805613,5901.627558087012
0.408,-0.028189256780363457,5904.264280102466
0.412,-0.07360772428422334,5908.160773942414
0.416,-0.10042770043380549,5898.203816788771
0.42,-0.11029044225537178,5907.030874530222
0.424,-0.10843554342823919,5900.82711523662
0.428,-0.09989304749714323,5901.832270424899
0.432,-0.086937341799633,5903.5107550267
0.436,-0.06912818014864203,5902.533230875224
0.44,-0.045632305786758275,5893.8526727666485
0.444,-0.018217662977952194,5900.548973250819
0.448,0.006894907122899225,5906.896992816222
0.452,0.019377904191144907,5904.452262887988
0.456,0.007310504022224531,5908.711164274457
0.46,-0.03900183126057842,5892.697181046569
0.464,-0.12314009321961726,5894.063519069431
0.468,-0.23991319893077864,5896.564304785718
0.472,-0.3750525185212405,5896.030737936476
0.476,-0.5078147014619783,5911.462547817973
0.48,-0.6159896214075117,5894.357830557913
0.484,-0.6817103126651122,5899.326809831879
0.488,-0.6960667245144667,5903.00701075918
0.492,-0.6610838655108716,5891.511501426874
0.496,-0.588674963991022,5896.62029598776
0.5,-0.49716821344249384,5897.712486707998
0.504,-0.4066897396566816,5897.5464844615135
0.508,-0.3348863331393925,5911.517446005979
0.512,-0.29401224520030883,5898.083569559869
0.516,-0.289516790591844,5901.136150925661
0.52,-0.3196072680748399,5898.430374737459
0.524,-0.3753142749917099,5887.850349405987
0.528,-0.4412449279432354,5906.204053929526
0.532,-0.4978161279743032,5898.922320817126
0.536,-0.5255420730882385,5896.205848373675
0.54,-0.5107113622669364,5901.508350815579
0.544,-0.4503329285569843,5901.725989317241
0.548,-0.35385455669212673,5903.432228961504
0.552,-0.24044044849015808,5904.424450640399
0.556,-0.13276310261737959,5898.2461912483695
0.56,-0.049907469164053926,5896.368435142212
0.5640000000000001,-0.002177518773436125,5894.437427659638
0.5680000000000001,0.010613862381087694,5899.84246599183
0.5720000000000001,-0.002463155691393075,5902.039559190789
0.5760000000000001,-0.027022206823442606,5903.287889659125
0.58,-0.047390386568047525,5898.7564859576205
0.584,-0.050126361752768654,5905.040077093281
0.588,-0.026545580216238457,5898.408024410893
0.592,0.025950058023219653,5901.39259949631
0.596,0.10364939663943191,5906.043476087121
0.6,0.19703596840690485,5900.674277839128
0.604,0.2916865033017513,5900.981655103595
0.608,0.36968605097505236,5901.308865832539
0.612,0.41201539247700614,5897.004693747344
0.616,0.4020273268627614,5900.9405569041855
0.62,0.32930678573222116,5899.764706052221
0.624,0.19267252158390163,5905.544909934584
0.628,0.001280602622055863,5890.284646040053
0.632,-0.22648685456347803,5891.987550832134
0.636,-0.4659459385576896,5900.396421683634
0.64,-0.6901347586064221,5903.451757608537
0.644,-0.8742531440014939,5902.375425972848
0.648,-0.9997634134364307,5898.244985075062
0.652,-1.057169599621162,5897.121182430748
0.656,-1.046636128597563,5902.184456262988
0.66,-0.9763503539705817,5903.861373323539
0.664,-0.8594214397364257,5898.370927743854
0.668,-0.7106237631945868,5910.022397188264
0.672,-0.5442359499270683,5897.43491287047
0.676,-0.37360598977715137,5896.142920338739
0.68,-0.2121021762651781,5896.608477055261
0.684,-0.07421387615154777,5904.085558763954
0.6880000000000001,0.024737836540652043,5896.580132850237
0.6920000000000001,0.0711365181503694,5908.283361308257
0.6960000000000001,0.057204241837708315,5900.424126849314
0.7000000000000001,-0.015304122728446739,5901.432576518739
0.704,-0.13404791389765444,5900.835736532007
0.708,-0.27856107601867897,5910.75729660649
0.712,-0.425201609924369,5899.800585786988
0.716,-0.5524778824389613,5900.289157770548
0.72,-0.6449553791546846,5898.738310394563
0.724,-0.6951016567931326,5910.468691344943
0.728,-0.7034530621032475,5900.586532199032
0.732,-0.6778561997774482,5905.650090919869
0.736,-0.6322941807481498,5900.051143807241
0.74,-0.5852401883181769,5905.670890341078
0.744,-0.5569870767421518,5894.56621335224
0.748,-0.5655145518931166,5903.781321297642
0.752,-0.6213792457293988,5906.802457147353
0.756,-0.7231967325840127,5906.11907226996
0.76,-0.8555972243050827,5900.989449599078
0.764,-0.9909265737941346,5905.359112132458
0.768,-1.0949228765440624,5893.500611919831
0.772,-1.1353820143685671,5889.780042694897
0.776,-1.091530239643944,5896.757283842239
0.78,-0.9610562824574075,5893.359296711266
0.784,-0.7622683567479313,5898.000373772339
0.788,-0.5304529329860904,5901.385457556592
0.792,-0.3092649379339065,5891.292375722631
0.796,-0.13936712182583286,5894.453541656862
0.8,-0.047549224167898904,5891.2452982408295
0.804,-0.039728498759427314,5902.224841916521
0.808,-0.10003436447314933,5901.291615142731
0.812,-0.19607915904337356,5902.927517247504
0.8160000000000001,-0.2885429708111747,5890.649641072462
0.8200000000000001,-0.342031417272491,5902.981652025032
0.8240000000000001,-0.3341262489180499,5905.339010329702
0.8280000000000001,-0.2605518721299182,5898.336522449793
0.8320000000000001,-0.13570328584780023,5903.577287752434
0.836,0.01125887855381046,5890.848601784225
0.84,0.14383381375879628,5902.538914145774
0.844,0.22738763235521486,5907.640912226305
0.848,0.23771148137653011,5898.9489164377965
0.852,0.1666026063780881,5893.0272702585335
0.856,0.023189144541748582,5904.811417346485
0.86,-0.1688955476199433,5910.3429611516885
0.864,-0.3773797241712985,5900.032094243587
0.868,-0.5687058222329713,5895.909539114395
0.872,-0.7151725088884959,5900.28670904917
0.876,-0.8002309228922623,5899.345302441951
0.88,-0.8207698658343727,5902.989632178306
0.884,-0.786150861684906,5900.477118421787
0.888,-0.7146941486172017,5895.174272510984
0.892,-0.6287497824363798,5904.893738766959
0.896,-0.5494117922349473,5895.171926937212
0.9,-0.49180615179909754,5893.406086881864
0.904,-0.4619978958494372,5901.222865020193
0.908,-0.45660980497757053,5895.964139941248
0.912,-0.4656121968171845,5894.369010622931
0.916,-0.4773332637190115,5896.743311199807
0.92,-0.4833969634104363,5903.631724901197
0.924,-0.4811826941464496,5896.147650221947
0.928,-0.4728354160794092,5899.726016136736
0.932,-0.46190036110760535,5889.151002323127
0.936,-0.44992749804010834,5902.86913015746
0.94,-0.4351138577122611,5907.697928874084
0.944,-0.41351659055185114,5901.7454992580415
0.948,-0.38171725506731335,5899.406086850955
0.952,-0.3392136163624984,5906.361800278342
0.956,-0.2894651318842442,5898.985258970431
0.96,-0.2395187025896231,5890.907002627052
0.964,-0.19851367361210812,5915.3611548058125
0.968,-0.17522289429050833,5905.662811196524
0.972,-0.1750079081077038,5890.943912013224
0.976,-0.19726605215449566,5902.273174843496
0.98,-0.234684192233959,5898.236988276019
0.984,-0.27485231050596814,5899.0062698932925
0.988,-0.30368975734070247,5902.692222631146
0.992,-0.30959402705501354,5910.382078240503
0.996,-0.287307176661343,5902.703734216357
1.0,-0.24061619624354907,5897.689417529963
1.004,-0.18284953165403178,5900.82231881719
1.008,-0.1341753050656742,5900.440807096184
1.012,-0.1156343225048014,5898.773155233688
1.016,-0.14159361402553305,5898.300510070886
1.02,-0.21379355322620555,5900.539500976742
1.024,-0.31998776492106823,5908.793132766537
1.028,-0.4379911396632352,5900.155499730537
1.032,-0.5431208667978211,5903.963475054761
1.036,-0.6154949534092113,5905.15457382589
1.04,-0.6443033128392981,5898.283155976049
1.044,-0.6283033202769487,5903.043582394146
1.048,-0.5738462768630935,5896.531490118689
1.052,-0.4923380327719751,5896.937353935192
1.056,-0.39809204490071354,5906.526950338407
1.06,-0.30632412842265605,5907.064969903234
1.064,-0.23077918913093853,5898.902485655832
1.068,-0.18108761455167646,5903.123149536268
1.072,-0.16055404614502544,5897.7941210615045
1.076,-0.16518170740315735,5897.794683534458
1.08,-0.18439384626893293,5900.356236454493
1.084,-0.20340196315082038,5903.223320401269
1.088,-0.20677602680014365,5907.654367092572
1.092,-0.18253775111869233,5898.898588539133
1.096,-0.12576984429249355,5903.186780272557
1.1,-0.040381193929476915,5893.155490423277
1.104,0.06203248829727823,5897.117677031945
1.108,0.1659967815574507,5901.619724035921
1.112,0.2569236923990038,5906.3531496388
1.116,0.3247092311465164,5902.62521758207
1.12,0.36499454691305444,5896.9785903196935
1.124,0.37834981021429226,5906.616970964073
1.128,0.36841634667938095,5903.219553561332
1.132,0.33989428446324965,5891.407780304418
1.136,0.2968634070861426,5901.457096644534
1.14,0.2418784160640996,5897.186729362105
1.144,0.176293601870115,5899.177831091331
1.148,0.10175767667343419,5888.41195410131
1.152,0.021999752620370704,5903.704198785296
1.156,-0.05626706151120446,5902.96789162409
1.16,-0.12397800160734158,5900.952350915475
1.164,-0.17171218236580668,5900.599110371951
1.168,-0.1922707985562941,5900.3743546467485
1.172,-0.18281583690417647,5896.959631620873
1.176,-0.1457333445893664,5897.359079110746
1.18,-0.08801959960935138,5906.879168723925
1.184,-0.019730682962808582,5903.202763738935
1.188,0.047700232228678016,5905.83008101102
1.192,0.10287555200733114,5908.488928574583
1.196,0.13573857999195996,5895.567668039848
1.2,0.13903804058591313,5898.959216403584
1.204,0.1098384604253405,5903.98300284086
1.208,0.05058684064770054,5902.721824444335
1.212,-0.030807610414866453,5903.947591745189
1.216,-0.12220185776316436,5901.176104531564
1.22,-0.20961334308509372,5901.9774956167375
1.224,-0.27998718949079626,5896.040516436632
1.228,-0.32321830781253474,5899.210650170682
1.232,-0.332884073812858,5902.608908392995
1.236,-0.3061913004741489,5893.081674723726
1.24,-0.24401649534888448,5894.109776873925
1.244,-0.15132459718497282,5900.440592110309
1.248,-0.03751185653294938,5906.351265570462
1.252,0.08403973786970548,5899.018370101689
1.256,0.19770833556968456,5902.2712516481
1.26,0.28862363039838407,5899.441568465752
1.264,0.34610747649548534,5906.314752473963
1.268,0.3663487470258664,5898.722666135493
1.272,0.3533293557033049,5897.959386706329
1.276,0.3176762068364999,5898.428469422152
1.28,0.2736985476107605,5897.138780843662
1.284,0.23517437077057496,5903.894535461362
1.288,0.2107819827696605,5902.303704742301
1.292,0.2006351542572946,5895.312200396412
1.296,0.19561435272965352,5909.468225286792
1.3,0.1803932806177855,5905.424449478116
1.304,0.13943668632838527,5906.207730935254
1.308,0.06369772446395681,5900.155596190784
1.312,-0.0449246032285806,5898.111185002715
1.316,-0.17358094283951725,5893.783220275293
1.32,-0.30298608925733744,5901.997058407981
1.324,-0.414061007013664,5899.245237212834
1.328,-0.49338205459414,5893.629896370946
1.332,-0.5354330974599382,5905.655805353346
1.336,-0.5419513548233101,5892.546396309399
1.34,-0.5200896005588149,5903.983940420798
1.344,-0.4808993743917257,5898.610910444629
1.348,-0.43831222555000904,5900.957977632377
1.352,-0.40765125039558464,5902.1464663371935
1.356,-0.40280277481476895,5892.731666599395
1.36,-0.4324044662859184,5897.962752525398
1.364,-0.49663089742214456,5903.669252202861
1.368,-0.5863218339388717,5884.227701135227
1.372,-0.6851283587989556,5904.334788917487
1.376,-0.7738529951672977,5891.020494880953
1.38,-0.8353449377468253,5894.830267341992
1.384,-0.8585008568103125,5891.613425399824
1.388,-0.8405168919975834,5903.023798413129
1.392,-0.7870483041357176,5900.378506634368
1.396,-0.7103784659132446,5901.670692256651
1.4,-0.6261061511379495,5904.139388239858
1.404,-0.5491482978051235,5899.117124625373
1.408,-0.4899971136122817,5895.487094697126
1.412,-0.4521349364224738,5890.542527786221
1.416,-0.43131300663303607,5902.653017714411
1.42,-0.4171051748089801,5903.606132689419
1.424,-0.39665990871605644,5899.5953828426345
1.428,-0.35977205326253936,5898.304353192426
1.432,-0.3035594156274019,5898.585286627684
1.436,-0.23480736514991157,5896.14235213785
1.44,-0.16881998289116446,5895.418456055365
1.444,-0.12502792185200778,5907.660890019271
1.448,-0.1208554860411115,5901.549350103075
1.452,-0.16590165849495242,5895.817556726538
1.456,-0.25831186215703356,5905.851746587711
1.46,-0.38450658838204765,5898.292896814239
1.464,-0.5223594965995118,5894.156636517637
1.468,-0.6467682627313139,5901.495631077748
1.472,-0.7358115856160019,5900.484815109846
1.476,-0.7756022456226092,5902.251681372535
1.48,-0.7624387453260898,5900.896394377427
1.484,-0.7018321342333189,5896.511030594904
1.488,-0.6052401950837468,5900.388695703145
1.492,-0.48620331901514546,5896.537908896887
1.496,-0.3574318802400256,5895.380113423631
1.5,-0.22948132847298353,5901.995858626278
1.504,-0.11071992067178556,5907.075035593286
1.508,-0.00780562142465413,5904.107613473309
1.512,0.07406047045892068,5901.067447748619
1.516,0.13129880166675065,5900.045854141027
1.52,0.16208631780982027,5911.742973582977
1.524,0.16592986616143954,5901.30845708832
1.528,0.14279935464253984,5900.002410520929
1.532,0.09265382537630104,5900.106028517515
1.536,0.01621902688510691,5904.194697481341
1.54,-0.08283898951620398,5900.304414432556
1.544,-0.1952385448992078,5907.300917649873
1.548,-0.30466211478665234,5893.892633659989
1.552,-0.3894178190829538,5897.496180192663
1.556,-0.4278011313677815,5898.236465344018
1.56,-0.4056448102092182,5898.590130995147
1.564,-0.3228310712852429,5909.876137348877
1.568,-0.1955306734864146,5900.597379772087
1.572,-0.05271979587010022,5905.408684357736
1.576,0.07195307868210937,5898.024076255522
1.58,0.1499451592949116,5901.831449202095
1.584,0.1657642371142986,5895.526673729032
1.588,0.12064931872900535,5911.167974694694
1.592,0.0313557942671328,5897.1121201956985
1.596,-0.07505803820781563,5888.8701961242405
1.6,-0.16876288093702405,5895.228422786998
1.604,-0.22506629286775673,5894.673037901627
1.608,-0.23072887647387064,5892.692312248117
1.612,-0.1869914989715884,5900.761041621554
1.616,-0.10834984207179299,5893.795265311382
1.62,-0.017359003639875525,5904.94977014564
1.624,0.0627167883877699,5900.777888451244
1.628,0.1145490523001415,5896.298208540078
1.632,0.13019952919195427,5899.211499092979
1.636,0.11066804347316539,5899.37148586398
1.64,0.06274822917494839,5895.257198877267
1.644,-0.00469450927380473,5899.809261651768
1.648,-0.08320174437305089,5895.78457025802
1.652,-0.16516311237162823,5890.8252269327495
1.656,-0.24271042689108183,5892.901451410866
1.66,-0.3064925927258713,5898.933450035958
1.664,-0.3457399548938204,5905.494119465932
1.668,-0.3501269501124648,5904.088073006727
1.672,-0.31288617790451423,5900.510051846316
1.676,-0.2339675620924785,5906.263998114902
1.68,-0.12188913475732814,5893.383263484042
1.684,0.006690917770001992,5901.266019911027
1.688,0.1298117641270692,5895.913078347764
1.692,0.22465739297505707,5899.154764893359
1.696,0.27227448016168676,5905.126615415057
1.7,0.2612979269418084,5908.080105103906
1.704,0.18996405292824584,5898.212660117023
1.708,0.06633999353809182,5897.117636349382
1.712,-0.0929050676452073,5900.611112574979
1.716,-0.26487967192398076,5908.26789414286
1.72,-0.4238907638022906,5898.557713005012
1.724,-0.5456998757230405,5896.544362526605
1.728,-0.6119598000000938,5900.410731074374
1.732,-0.613906091205787,5898.533326200296
1.736,-0.5546162799441,5894.478351032074
1.74,-0.4494216371528601,5897.715910389678
1.744,-0.3239298976269917,5898.109626159534
1.748,-0.20923277452102215,5896.970820016831
1.752,-0.13499456011973723,5901.442915940711
1.756,-0.12255846386251781,5900.834990912557
1.76,-0.18049060369135153,5898.693511541777
1.764,-0.3037662492629648,5894.100466949069
1.768,-0.47613472960435155,5901.144488131805
1.772,-0.6741637351080386,5906.688553353617
1.776,-0.8713523616371379,5903.593083682853
1.78,-1.041348661651202,5904.257564164779
1.784,-1.160380915707894,5897.541452320506
1.788,-1.2097865416122164,5898.760763917579
1.792,-1.1791910727421226,5893.603233563928
1.796,-1.0695629203719133,5906.397198767206
