时间(s),电压(V),幅值(高频80K)
0.0,0.43383237449668854,5901.275616798588
0.004,0.3400774154120381,5901.03748086113
0.008,0.25012120731374826,5900.06899985766
0.012,0.16677364979791648,5894.942905749113
0.016,0.09086083205236359,5897.317630794543
0.02,0.021150195726750674,5897.432684912688
0.024,-0.044794954510399825,5895.406707916446
0.028,-0.10918971782816081,5901.215503689814
0.032,-0.17290815314306096,5892.341808265524
0.036,-0.2351651082237563,5904.08159997257
0.04,-0.2936899767572645,5899.51233210257
0.044,-0.34491242602279054,5901.31960526245
0.048,-0.3842765599439366,5902.433249606655
0.052,-0.4071848429975157,5899.611853412649
0.056,-0.4105806561366266,5901.074175874769
0.06,-0.3943379680788357,5893.288449482609
0.064,-0.3614067107388249,5896.695281479704
0.068,-0.31640442497494475,5894.799879716847
0.072,-0.2635307565353398,5899.415791475545
0.076,-0.20531951044096167,5905.240718715137
0.08,-0.1431296613821209,5891.487625373659
0.084,-0.0788384490683584,5900.93183728169
0.088,-0.016288654691471727,5900.261466161135
0.092,0.03855630205263579,5892.859794031462
0.096,0.07874372362793403,5898.191285341989
0.1,0.09811501951310353,5892.81058430005
0.104,0.09304907198133829,5903.749005958852
0.108,0.06351390370802772,5904.533735571194
0.112,0.01289869492923411,5898.7138669546175
0.116,-0.0533358235697246,5899.331462462041
0.12,-0.12936437069265735,5899.260160747539
0.124,-0.21005193759366253,5894.990851442127
0.128,-0.29102470877864645,5902.528474084483
0.132,-0.36818810726913237,5900.96675163073
0.136,-0.4372554269104169,5900.949744115323
0.14,-0.49357801431028825,5897.327685932744
0.144,-0.532380159102695,5903.977988696267
0.148,-0.5494122869561254,5902.574883793361
0.152,-0.5419207336613754,5903.897671655458
0.156,-0.5097435058678246,5901.230839533307
0.16,-0.4562476708778498,5897.553212305563
0.164,-0.3886604729723106,5894.368715582332
0.168,-0.31731753641618343,5899.000141934522
0.172,-0.25367340439588776,5887.3491314169
0.176,-0.20742090977130775,5909.472057494384
0.18,-0.18345491544596487,5898.948054482574
0.184,-0.17968922410209634,5896.330221144691
0.188,-0.1868851635294536,5904.120718393941
0.192,-0.1912532359960295,5905.333586874035
0.196,-0.17934579537534534,5910.974025884461
0.2,-0.1433335244172079,5911.295086527536
0.204,-0.08435327809374797,5899.103490276954
0.208,-0.012605405112129832,5900.342264266974
0.212,0.05558181324545228,5898.414096603041
0.216,0.10243883114095585,5896.443418299574
0.22,0.11359518634806734,5909.53413303076
0.224,0.08167727148888711,5901.909419163871
0.228,0.007815682463623052,5907.691972968399
0.232,-0.09904574842896435,5904.305779079881
0.236,-0.2245205009173695,5904.114987884454
0.24,-0.35200883536179023,5898.90522084934
0.244,-0.4659532829761067,5894.697543696899
0.248,-0.5544689814730939,5898.729089623203
0.252,-0.6109949861543624,5897.978758606287
0.256,-0.6348794403182518,5896.335669402409
0.26,-0.6309137195246736,5893.959423207778
0.264,-0.6078364649456277,5892.287983236174
0.268,-0.5759859231827213,5901.358751648594
0.272,-0.5446570478470982,5903.0496333437895
0.276,-0.5199661925569972,5899.116714780565
0.28,-0.5038126482322626,5889.487351698788
0.284,-0.4940655959842371,5900.864918680869
0.288,-0.4857873718950443,5898.65919323605
0.292,-0.4731159216899586,5909.932657862296
0.296,-0.4512040140529476,5912.767156796105
0.3,-0.41750852980443265,5906.02617607411
0.304,-0.3719988517236505,5895.211236807719
0.308,-0.31642140255084295,5901.258075254896
0.312,-0.253233629240211,5892.189893954366
0.316,-0.18486873705210807,5896.680802807197
0.32,-0.11362957000599981,5899.262419663744
0.324,-0.04210734194394582,5906.473158350659
0.328,0.026176397352448758,5897.624469712428
0.332,0.08634995692170981,5895.624980069381
0.336,0.13258781326306585,5894.385581978314
0.34,0.15966830521410583,5903.081636865884
0.344,0.165151716338485,5895.115814355046
0.348,0.15075358251921653,5897.539073975428
0.352,0.12160726092291185,5901.011210520435
0.356,0.083412350497688,5892.010566555489
0.36,0.039040344697746886,5899.883660879582
0.364,-0.013205729575337716,5903.23635465622
0.368,-0.07838831828983109,5901.952715819924
0.372,-0.161347990472287,5897.553861130611
0.376,-0.2626912122331758,5899.462561489359
0.38,-0.3763303596760843,5903.496015181116
0.384,-0.48951542385894103,5907.736751825251
0.388,-0.5851818907282714,5899.81515732994
0.392,-0.6457995820288404,5898.864690491344
0.396,-0.6576712624755966,5908.10178797449
0.4,-0.6145957459862699,5898.71849102178
0.404,-0.5199643095193585,5906.818180761915
0.408,-0.38677497328113525,5900.08390797404
0.412,-0.23561863626737048,5894.928533615883
0.416,-0.09111669213359054,5907.8624206809845
0.42,0.02255450551112531,5896.041534942933
0.424,0.08633439468693224,5900.477618855595
0.428,0.09022139181907415,5898.443948099533
0.432,0.03536039250524308,5898.953841191903
0.436,-0.06665862341278977,5893.522787665322
0.44,-0.19736546204892877,5901.74923170315
0.444,-0.3366887106074897,5902.919931833249
0.448,-0.46791792566986773,5901.293236598554
0.452,-0.5803986356232795,5900.94813975621
0.456,-0.6692151352191757,5893.21236199146
0.46,-0.7328222955259432,5899.602897387754
0.464,-0.7705638663379398,5899.585675413782
0.468,-0.7815497950000887,5902.515433451954
0.472,-0.7650728130204756,5897.13272349368
0.476,-0.7218075070832053,5903.532900310496
0.48,-0.6549178258750028,5903.629763302805
0.484,-0.5705175370126003,5895.47012514043
0.488,-0.47725701279513255,5901.672133554076
0.492,-0.38506582809323114,5895.492487698743
0.496,-0.30330263150751763,5903.62664409414
0.5,-0.23876257703052586,5900.819185624808
0.504,-0.19412396997660117,5899.325856245015
0.508,-0.16737351999906752,5888.744095332533
0.512,-0.15248505210411312,5899.968859431523
0.516,-0.14121125323520686,5898.249363557951
0.52,-0.1254380528018989,5897.037129779413
0.524,-0.09936299338922341,5896.972395706844
0.528,-0.060894623982206686,5901.819257371458
0.532,-0.011970107210356124,5890.935591433447
0.536,0.042223025767529655,5897.051781250921
0.54,0.09484413841647939,5906.834002904651
0.544,0.139264748952341,5904.682125716188
0.548,0.17054067190806094,5898.8596624622505
0.552,0.1859701135102362,5893.870166273502
0.556,0.1846307372952149,5903.618973008226
0.56,0.16639176399944894,5900.3755469719945
0.5640000000000001,0.13126843291749807,5892.146576636643
0.5680000000000001,0.0796752678460435,5891.287611747531
0.5720000000000001,0.013347002257352306,5891.502716719525
0.5760000000000001,-0.06382464893643945,5901.342174639939
0.58,-0.14565589195963774,5898.649376547174
0.584,-0.22436831336345756,5900.354949137487
0.588,-0.2918512448102501,5902.8341336261465
0.592,-0.34108277138048704,5899.167274363633
0.596,-0.36742280932928634,5902.712151468631
0.6,-0.36971911729822615,5900.697018324859
0.604,-0.3511791137251542,5889.290466995097
0.608,-0.31961619538948965,5903.162675393266
0.612,-0.2864072913423072,5891.273487429257
0.616,-0.26390526502297074,5893.028272326996
0.62,-0.26201055313560434,5902.869280219895
0.624,-0.2852301268578887,5893.405326003131
0.628,-0.3312430635372729,5898.251023909425
0.632,-0.3911270242479377,5898.992848719629
0.636,-0.4508206693478329,5898.17023914892
0.64,-0.4934601759621332,5908.813314269605
0.644,-0.5024949743239127,5899.931225698995
0.648,-0.46538022232504145,5897.397588244565
0.652,-0.37716892329360324,5901.424477530453
0.656,-0.24294210610216335,5892.767273690612
0.66,-0.07805811866443628,5897.245382702342
0.664,0.09425511989151181,5892.175761659903
0.668,0.24749878613559337,5903.121491260375
0.672,0.35731314084647,5894.752158373162
0.676,0.40607019782506587,5897.708935761608
0.68,0.38559775842019467,5899.109791376437
0.684,0.29787059853007514,5906.480291480084
0.6880000000000001,0.15411369873125025,5902.641529070485
0.6920000000000001,-0.027159790559941818,5904.404856576491
0.6960000000000001,-0.22299582364574594,5913.172904769677
0.7000000000000001,-0.40981960406179857,5893.918654256042
0.704,-0.5680102919390843,5902.244754538724
0.708,-0.6862250141360828,5895.493870459819
0.712,-0.7638493159737011,5899.687165929445
0.716,-0.8101689233774297,5902.394735882863
0.72,-0.8400889778961985,5910.415230009049
0.724,-0.8679032932499234,5895.042917636612
0.728,-0.9017022689767454,5895.562323485911
0.732,-0.9407492262252884,5903.874585208671
0.736,-0.9766184699658498,5897.121004371358
0.74,-0.9969808460723373,5908.922324039039
0.744,-0.9898909585746735,5898.18981234929
0.748,-0.9468667982509474,5896.064885428294
0.752,-0.8643277991946159,5907.581171187499
0.756,-0.7439795212432868,5901.7363413120265
0.76,-0.5929434205157985,5902.885390500323
0.764,-0.42386469410627603,5896.518963838103
0.768,-0.2543611756856633,5894.858870256553
0.772,-0.10484358004533895,5897.889516603815
0.776,0.005529614870194863,5897.737983235352
0.78,0.06370793352487854,5895.651713851122
0.784,0.06659295868090763,5905.840375318077
0.788,0.022341184374032645,5909.189197592548
0.792,-0.051393169175516895,5904.224091324017
0.796,-0.131702163324756,5896.3996853589015
0.8,-0.19583532964904773,5901.9976373006175
0.804,-0.22625674156653883,5888.426842757811
0.808,-0.214147529699347,5908.546952475387
0.812,-0.1607178531488368,5904.148917794156
0.8160000000000001,-0.0762353606732824,5901.382211244374
0.8200000000000001,0.022818229210049393,5900.1736014312055
0.8240000000000001,0.1175978732506174,5893.648116502583
0.8280000000000001,0.19071498933236325,5907.961761591313
0.8320000000000001,0.2292554812515411,5903.274970442044
0.836,0.2267258581801064,5892.440244629173
0.84,0.18399756343449455,5896.1931156130295
0.844,0.10932350688699718,5899.188176534149
0.848,0.017341057809451298,5906.284361774443
0.852,-0.07304407154496582,5900.119972815816
0.856,-0.14178386247953115,5893.304305954684
0.86,-0.171451254495162,5900.71521855614
0.864,-0.15110627132904494,5904.432420195873
0.868,-0.07957655326106465,5900.696766465165
0.872,0.032781499217916815,5896.471708191158
0.876,0.16488375928961813,5900.145389239595
0.88,0.28884605079959413,5896.391193375409
0.884,0.37642785404685,5900.504354152946
0.888,0.4061191774349311,5898.075784807587
0.892,0.3685257955361812,5899.672164839903
0.896,0.26832465085339396,5893.681521149884
0.9,0.12233490040535874,5897.157471134478
0.904,-0.04543294848068406,5904.465893685308
0.908,-0.20999310252520845,5892.85678403017
0.912,-0.3509124263703847,5901.751240219158
0.916,-0.45568971188695334,5895.851723198072
0.92,-0.5204514750964234,5904.0352986743765
0.924,-0.5484041765611656,5914.775821408669
0.928,-0.5471134687423019,5900.070051006344
0.932,-0.525790121657561,5900.164961675786
0.936,-0.49340702073934767,5902.348649288939
0.94,-0.45778783393434813,5896.907685255975
0.944,-0.4251491369364116,5894.389203888061
0.948,-0.3995094877400901,5890.230557848331
0.952,-0.3820100321566442,5893.170766835657
0.956,-0.37081555881269096,5900.09516233769
0.96,-0.36216082140925554,5901.848439254563
0.964,-0.3523624672328909,5896.127834069812
0.968,-0.3398542593938211,5890.675080871847
0.972,-0.3260582369405962,5902.745586504003
0.976,-0.31441758649188956,5896.989167751408
0.98,-0.3079901081807529,5907.183441471466
0.984,-0.30694700538895414,5895.826848208965
0.988,-0.3074523326098075,5900.464911974372
0.992,-0.30265436167213877,5909.031336282399
0.996,-0.28542993259674393,5901.776616844419
1.0,-0.25166594207268744,5891.670757681864
1.004,-0.20260528093815083,5913.602519485663
1.008,-0.1452418355687727,5899.265986325244
1.012,-0.090649088918686,5910.527836591518
1.016,-0.0509373682691718,5896.058880494978
1.02,-0.03586825089374522,5900.395212919233
1.024,-0.04999693292936581,5902.666987136719
1.028,-0.09090451944790161,5900.521253351454
1.032,-0.1489517333897723,5896.515158420328
1.036,-0.20886370782316122,5899.996154532441
1.04,-0.2529752022925389,5904.501068690307
1.044,-0.26533813515318677,5898.703762129904
1.048,-0.23568046427977069,5897.947179487858
1.052,-0.16240001398662787,5902.180395565196
1.056,-0.05390630569327259,5899.762375390464
1.06,0.07230208538946768,5900.25788129503
1.064,0.19293473624714008,5900.576809985016
1.068,0.2838055811466162,5899.900740061249
1.072,0.3249768089791612,5896.489039502148
1.076,0.3048842700850269,5896.443287964609
1.08,0.2226241481886165,5903.535023899173
1.084,0.08807333674524961,5893.660074773918
1.088,-0.08005968185553862,5903.378058637597
1.092,-0.25789663636275467,5887.773997179742
1.096,-0.4212329948283037,5905.927539055869
1.1,-0.5507050889489926,5890.550873456127
1.104,-0.6359933109215753,5896.994722568645
1.108,-0.6776807166741666,5902.153521494367
1.112,-0.6859542856000455,5904.528266277479
1.116,-0.6763920857945599,5892.130460382116
1.12,-0.6641863469609065,5889.823462392149
1.124,-0.6589275364671934,5901.105414678701
1.128,-0.6620738007261918,5896.899526388457
1.132,-0.6681081178769122,5903.8603412923785
1.136,-0.6685590592239161,5901.607312331648
1.14,-0.6566502515368187,5897.015897762967
1.144,-0.6302185653469923,5899.595526207928
1.148,-0.5916963955354075,5904.501837729122
1.152,-0.5456470579651793,5893.758926327145
1.156,-0.49562247657892244,5900.395186424416
1.16,-0.4423453289437669,5894.966608213942
1.164,-0.3843317546859077,5901.037331705908
1.168,-0.32054636216422644,5901.38173714067
1.172,-0.2533559834614861,5894.269188066208
1.176,-0.18970548883826754,5905.086043393992
1.18,-0.13937014047385765,5895.614249368107
1.184,-0.11087633463810989,5900.797983173736
1.188,-0.10711939467359725,5903.957685966199
1.192,-0.12287471087156658,5908.147702195606
1.196,-0.14532996769506767,5901.2241867862285
1.2,-0.15737316043355415,5900.60385252719
1.204,-0.1424854705019745,5903.972961711685
1.208,-0.08985169966189004,5907.96808114694
1.212,0.0016303929840566936,5898.530936684349
1.216,0.12166244997560946,5896.943333176906
1.22,0.2501087976758642,5901.582417590892
1.224,0.3618367508805475,5896.874274005237
1.228,0.43340055269931393,5902.130135820148
1.232,0.44904555677085195,5898.753563587059
1.236,0.40379313161394353,5911.076515863831
1.24,0.3029571426477265,5902.068047462797
1.244,0.15923233137529952,5897.362511766509
1.248,-0.010655385534605549,5889.199374984446
1.252,-0.18825626235348114,5901.616240791206
1.256,-0.35454548925044027,5905.872559933547
1.26,-0.4908882189185645,5892.214883825749
1.264,-0.5807614305269396,5892.647624487221
1.268,-0.612216438399193,5901.363530754087
1.272,-0.5802201676204777,5897.925132422725
1.276,-0.4880751167221716,5896.42371601717
1.28,-0.3477860541226765,5905.458819113482
1.284,-0.1795274240224665,5899.07967343303
1.288,-0.009904747847734591,5901.187856352751
1.292,0.13176849234424243,5900.373870808665
1.296,0.21950718620592735,5893.84332865967
1.3,0.23787342916651705,5907.329792615341
1.304,0.18776169622849398,5896.965166941579
1.308,0.08793882430901165,5910.198096409817
1.312,-0.028998535588679774,5907.331704433299
1.316,-0.12542305259084335,5896.5335628679295
1.32,-0.16979441320586258,5908.039721988445
1.324,-0.14698961452705897,5902.506716635499
1.328,-0.06480692985137532,5905.319377635699
1.332,0.04569296658064062,5898.838853520871
1.336,0.136968324395811,5900.9990373574565
1.34,0.1579611197253609,5896.332950116391
1.344,0.07037762509266145,5900.101000858199
1.348,-0.13584728016469713,5898.362308966135
1.352,-0.4321874891892918,5895.528273245928
1.356,-0.7496468088082376,5886.495468401612
1.36,-0.9870383644054648,5896.529354848043
1.364,-1.0288724939116862,5893.55333176511
1.368,-0.7699997221351409,5899.073429751733
1.372,-0.14217426305217135,5895.875753585102
1.376,0.8636926039765279,5907.019797334972
1.38,2.1861901738117555,5898.383870586848
1.384,3.6981940126045227,5901.457647280444
1.388,5.2292156401159495,5892.983338424191
1.392,6.600879023089763,5901.990955986023
1.396,7.665438734398455,5896.436761595856
1.4,8.335420150107847,5905.839587865999
1.404,8.596022094955103,5902.059767333042
1.408,8.49862929938055,5899.332331948722
1.412,8.139946622867642,5898.117355120557
1.416,7.634703150213587,5899.174902454975
1.42,7.090146458223267,5907.450456227234
1.424,6.588208559123535,5902.702189751599
1.428,6.177575666991913,5903.761295684717
1.432,5.874549811672242,5898.438530543008
1.436,5.669682913824211,5903.654785494704
1.44,5.536885701101676,5899.514456677465
1.444,5.442527488871523,5903.68017345697
1.448,5.353179002985712,5901.594066866242
1.452,5.241467920690517,5895.029712090515
1.456,5.089802741610938,5900.568074515153
1.46,4.891813923046854,5896.277932640975
1.464,4.651667664885343,5906.029749496147
1.468,4.381824533878288,5898.935554596751
1.472,4.099972936885643,5901.30083145096
1.476,3.825705697681548,5897.928444231078
1.48,3.577246983162376,5894.652880896047
1.484,3.3683947675243915,5902.405683096145
1.488,3.20599437491312,5899.780654474328
1.492,3.0886293795358197,5898.993871494205
1.496,3.0073025320869267,5907.412053509993
1.5,2.9482715857405486,5904.483664732819
1.504,2.897202254363787,5902.357510357181
1.508,2.8431018215157544,5904.468178759848
1.512,2.780520774048888,5908.52927699958
1.516,2.709248912912185,5892.004164385414
1.52,2.631904443374991,5908.862344968449
1.524,2.5508745905122736,5905.076311206119
1.528,2.4663372687833927,5898.390280316382
1.532,2.3763072581252516,5897.504691067596
1.536,2.278351063509862,5900.055374532676
1.54,2.1717231992405033,5901.760845076744
1.544,2.0586897262265142,5899.498766916581
1.548,1.9445163548761368,5900.560822113093
1.552,1.8363867778006928,5907.2867534782
1.556,1.74185339868398,5900.388556061004
1.56,1.6672526332600512,5899.478210572927
1.564,1.6161842303918887,5900.4266289197
1.568,1.5880567726175934,5897.991055713464
1.572,1.5770384893033162,5917.465611423156
1.576,1.5722832109404026,5899.580777085297
1.58,1.560296408143997,5895.542714157019
1.584,1.5292501472032738,5895.400605726834
1.588,1.4735665904297564,5910.345025274509
1.592,1.3965273544654564,5898.882389205233
1.596,1.3095694395378465,5898.92698234296
1.6,1.2284741202998477,5896.424142488497
1.604,1.1678199404242326,5893.188852927183
1.608,1.135559056847184,5895.541523067722
1.612,1.1295021297067884,5900.529216966399
1.616,1.1369521352018412,5899.073208948896
1.62,1.137832743496352,5887.129658859568
1.624,1.1106074570321536,5886.409016158204
1.628,1.0392999759053174,5885.801262402257
1.632,0.9193150194715728,5887.720645476119
1.636,0.759901127083059,5888.16631024552
1.64,0.5821268677087028,5888.242063072044
1.644,0.41284424710960405,5882.63209859971
1.648,0.2767065026233322,5885.549635553484
1.652,0.18923229709721462,5880.626463861657
1.656,0.15357116073077098,5886.365124004713
1.66,0.1619677539428434,5877.026643561007
1.664,0.20075744499045373,5878.432098187478
1.668,0.2562384655654029,5868.285832485687
1.672,0.31870375436835613,5869.987362012647
1.676,0.3832531377670132,5880.638990686809
1.68,0.4479491738810494,5878.717968183568
1.684,0.5111850578628147,5877.20280742902
1.688,0.5700086120757479,5882.798934774838
1.692,0.6199643724206237,5880.520932967765
1.696,0.6558960230163878,5873.420990082974
1.7,0.6728824814285267,5873.2120337711885
1.704,0.6669392520185472,5880.208202189963
1.708,0.6356230643214139,5874.346511838067
1.712,0.5787537086595399,5864.087552771987
1.716,0.49919815314490534,5862.702321042487
1.72,0.40342302767185123,5859.262864727502
1.724,0.30148785152208907,5870.100179293806
1.728,0.20619989909717243,5865.448781685521
1.732,0.13120639192802594,5866.520700361143
1.736,0.0880267464143213,5858.003141589465
1.74,0.08256458256973784,5857.911401190865
1.744,0.11229214720234339,5862.448099418915
1.748,0.16558253260816638,5861.422614709527
1.752,0.22412208810453926,5870.7368847384105
1.756,0.26799632843514487,5847.414786966261
1.76,0.2816273352492005,5858.559940500748
1.764,0.25817574568451573,5854.343639201687
1.768,0.20065439241874036,5869.559195828551
1.772,0.11944460755252677,5853.469799767945
1.776,0.02749676342402231,5863.689447248884
1.78,-0.06445479158060648,5863.664624839723
1.784,-0.1504777934703433,5868.353386276324
1.788,-0.22905994289462217,5855.26605382321
1.792,-0.30073213428584916,5853.91896908564
1.796,-0.36550282600398215,5851.384178808587
1.8,-0.421482012308092,5854.574540612924
1.804,-0.4650512527479156,5850.419634546729
1.808,-0.4921187726916955,5857.535241324209
