时间(s),电压(V),幅值(高频80K)
0.0,0.4682840649818497,5900.142449365467
0.004,0.02381260980729156,5901.47812039782
0.008,-0.3688189806605256,5892.298188321391
0.012,-0.6677037846984254,5900.492268042004
0.016,-0.8502807257761484,5902.596627816855
0.02,-0.9165060215008644,5899.347317904353
0.024,-0.8863459023690281,5910.303306184975
0.028,-0.7926700537612746,5899.885537031629
0.032,-0.6720560683017468,5891.955005088379
0.036,-0.5563686299471268,5893.382195149417
0.04,-0.4671855360044142,5901.803057746461
0.044,-0.41383993065723546,5899.826439664335
0.048,-0.39472163423647316,5898.597306256702
0.052,-0.4007310520108798,5894.25122000029
0.056,-0.41941029165854915,5895.9795183565
0.06,-0.4384255464072856,5898.990520887467
0.064,-0.44775030310543334,5902.314281024344
0.068,-0.4407582939511012,5894.090267224427
0.072,-0.4149015858959946,5908.91293507816
0.076,-0.3722894602301017,5914.1925788778335
0.08,-0.3196376341149419,5907.085715813222
0.084,-0.26677004430080825,5900.310909112459
0.088,-0.2236620488227273,5901.7796267221975
0.092,-0.1971703789879919,5893.546296428782
0.096,-0.18892835846980707,5894.948224805237
0.1,-0.19514734909773737,5909.262144133556
0.104,-0.20810847221223838,5889.6550752157855
0.108,-0.2187297120434416,5898.326462074835
0.112,-0.21953387614965614,5899.225519432067
0.116,-0.20709786733796337,5906.836566795874
0.12,-0.1829406740883489,5894.883516533079
0.124,-0.15247605596704886,5902.842770912596
0.128,-0.12280261145252037,5903.965635048545
0.132,-0.10058615636827585,5906.932778039468
0.136,-0.09067719768093593,5897.3495141093845
0.14,-0.09527792798504564,5903.80453252893
0.144,-0.11339604224913807,5898.694858688178
0.148,-0.14081042474241903,5902.76536065468
0.152,-0.17094171439960248,5900.9875082015005
0.156,-0.1965458176845279,5901.613908907875
0.16,-0.21152249208058654,5902.428152531763
0.164,-0.21199030721817208,5906.677565835216
0.168,-0.19634932463347077,5900.057138408432
0.172,-0.16492193473867353,5903.576558079769
0.176,-0.1200561778011402,5898.609911059305
0.18,-0.06682976466741665,5901.108801690246
0.184,-0.013434487185064927,5905.857657035534
0.188,0.02981375012738278,5890.833044178164
0.192,0.052906750174242505,5906.23261181172
0.196,0.04903012237871697,5904.848167301606
0.2,0.016683957297594067,5903.351502017672
0.204,-0.039762819278717436,5903.716253514143
0.208,-0.11133144901379208,5905.07570403628
0.212,-0.18713907305352107,5901.841533218244
0.216,-0.2575025453735688,5901.758137008482
0.22,-0.3160211517631844,5899.874533816461
0.224,-0.35966619223649654,5907.540590553112
0.228,-0.38719391490410926,5895.685417035994
0.232,-0.3974387619523411,5899.268746331589
0.236,-0.38899392335559124,5892.960812754563
0.24,-0.36136649634560536,5898.332702634642
0.244,-0.31636570784386325,5899.196048706667
0.248,-0.25850925558813437,5905.961339921673
0.252,-0.1942379485300469,5897.526501643921
0.256,-0.13052860009057782,5905.685744597135
0.26,-0.07362796177803911,5899.287597184358
0.264,-0.02842390802573875,5896.399676643275
0.268,0.0013165991801553543,5906.739308807264
0.272,0.01206284720300591,5901.456497905567
0.276,-0.00021174064213784968,5899.660892242029
0.28,-0.03960383194371134,5896.320472777004
0.284,-0.10833975120096533,5900.3659216366605
0.288,-0.20412699959466465,5899.461430109906
0.292,-0.31834961766217634,5896.337396414075
0.296,-0.436428571279734,5903.370071340723
0.3,-0.540619896525767,5904.544496176492
0.304,-0.6142609916580297,5900.280934912418
0.308,-0.6457360978307723,5909.689368134814
0.312,-0.6306407350984743,5888.996731193685
0.316,-0.5715969386532594,5899.294484560475
0.32,-0.4763517541997168,5904.626184238904
0.324,-0.3555559329069968,5907.725299360185
0.328,-0.22142646644956177,5903.2236355895175
0.332,-0.08736717944978573,5900.092050776049
0.336,0.03250029800258056,5901.238518950232
0.34,0.1249387862974617,5906.707703746783
0.344,0.18020181971822047,5897.586544756284
0.348,0.19433148902345154,5893.204974610131
0.352,0.16977922417585853,5898.609367724066
0.356,0.11403429853096202,5894.593239355595
0.36,0.037097043944133545,5896.458869671921
0.364,-0.05100888760365531,5888.4601763982255
0.368,-0.141951775292916,5905.505543958068
0.372,-0.22998272317579319,5891.199561184406
0.376,-0.312322394533422,5909.829302063314
0.38,-0.38928958287052723,5894.361565786193
0.384,-0.4640326334537812,5893.41750495901
0.388,-0.5413534658042909,5900.187474845984
0.392,-0.6252436033495529,5898.078673338893
0.396,-0.7156058054628185,5898.733588235372
0.4,-0.8056950930544702,5902.426868006293
0.404,-0.8820882796569941,5900.147918634901
0.408,-0.9279208669377913,5906.020409589213
0.412,-0.9282898140464209,5898.042948035189
0.416,-0.87548786284845,5897.67738645844
0.42,-0.7719652092521588,5894.745562318731
0.424,-0.6301700493387002,5898.3516746737405
0.428,-0.46972394241673726,5901.653824770259
0.432,-0.3131966170063601,5905.209438250769
0.436,-0.1819216575736713,5896.739479529952
0.44,-0.0928584317633592,5897.522681578927
0.444,-0.0567875565301799,5898.249997493616
0.448,-0.07762513063329161,5904.12913638232
0.452,-0.15249824378814006,5899.867951310157
0.456,-0.27224017013666196,5902.392304469102
0.46,-0.4220838906581666,5900.969882952738
0.464,-0.5826881979878897,5903.625196794798
0.468,-0.7320434451294592,5890.238290524079
0.472,-0.8486719159927092,5906.0221288296
0.476,-0.9156086387788276,5892.372356823308
0.48,-0.9237165946650241,5905.495049092639
0.484,-0.8730321810839575,5904.282593093169
0.488,-0.7719678077227287,5897.535036935023
0.492,-0.6351859655146982,5908.182972173523
0.496,-0.4810819886810055,5898.922027396107
0.5,-0.32932841515146616,5893.768078370975
0.504,-0.1984289307895498,5896.210885871944
0.508,-0.10309295894902144,5901.557215998745
0.512,-0.05158469521381169,5901.571661027552
0.516,-0.043799201532449906,5905.907050161097
0.52,-0.07113574816815761,5901.723012296323
0.524,-0.11880097063256907,5904.351841484228
0.528,-0.17008244045481005,5896.279823394253
0.532,-0.21107459123633673,5901.297902602805
0.536,-0.23400636731584135,5898.35826212026
0.54,-0.2379185640035286,5905.280255646309
0.544,-0.22665373804648029,5891.774719076812
0.548,-0.20532586971689062,5898.390654946399
0.552,-0.17704946945256997,5911.77960832091
0.556,-0.14151296584671208,5900.045697541088
0.56,-0.09606924089398244,5902.579032133088
0.5640000000000001,-0.03869637312210849,5894.20325342542
0.5680000000000001,0.02885761147982946,5906.17485336948
0.5720000000000001,0.09945428837981989,5902.1421311070335
0.5760000000000001,0.1612311196107866,5894.62083792034
0.58,0.20024078430307912,5899.015686185142
0.584,0.20417066077776974,5897.020229700161
0.588,0.1660773882634547,5902.2914122455695
0.592,0.08701731178488388,5904.129255756147
0.596,-0.023454262757772334,5900.046714080762
0.6,-0.14943285289337577,5894.716869976217
0.604,-0.2729325942156326,5908.244716691495
0.608,-0.37860277469572434,5898.753993310824
0.612,-0.45691052499391344,5904.980483857161
0.616,-0.5047381562337565,5907.411538709552
0.62,-0.5238149639329897,5894.525924122426
0.624,-0.5183181584515226,5903.563350331664
0.628,-0.49292249122319876,5904.47717296918
0.632,-0.45192344945745516,5886.920113625752
0.636,-0.3993290165564394,5902.0384458683975
0.64,-0.33931215973989026,5897.016269856636
0.644,-0.2763491692630595,5895.53048133241
0.648,-0.2148421888956984,5901.952249882002
0.652,-0.15866018338781676,5895.400275987829
0.656,-0.1111163693192758,5907.14737853375
0.66,-0.07532448135965614,5900.300628594805
0.664,-0.05441640588429014,5896.259612351762
0.668,-0.05129962887380457,5903.581972200199
0.672,-0.06804413931214467,5904.365451112889
0.676,-0.1050389024207707,5892.799979400745
0.68,-0.15993568135931596,5894.238325004648
0.684,-0.2265896449423871,5889.706911377943
0.6880000000000001,-0.29462925331686834,5892.936654831707
0.6920000000000001,-0.3503774927587486,5901.314992985956
0.6960000000000001,-0.3793253580741514,5891.480153709295
0.7000000000000001,-0.36957258821184447,5903.501805579438
0.704,-0.31513364577284375,5904.566070137778
0.708,-0.21800724724880258,5899.754503290879
0.712,-0.08841507433281028,5905.339343314094
0.716,0.05662594927252062,5908.831495522176
0.72,0.19580950021156707,5902.359905988116
0.724,0.3067573590896944,5904.142723638289
0.728,0.369859901932106,5895.971208942262
0.732,0.3722649843645997,5905.626182828475
0.736,0.31082021194277365,5900.033431379255
0.74,0.1927499050739906,5894.731153515536
0.744,0.03382492215287697,5898.5733837849375
0.748,-0.14511717686297987,5895.344399664824
0.752,-0.3221360760716522,5900.062446430056
0.756,-0.47784989554381496,5900.5580224857895
0.76,-0.5983874975679057,5895.451312081502
0.764,-0.6773148513520476,5900.169374484425
0.768,-0.7162334408471102,5899.9837239999615
0.772,-0.7239110363453519,5898.214381663897
0.776,-0.7140541522374644,5903.692675381984
0.78,-0.7020088116184605,5898.354154263413
0.784,-0.700847981613201,5903.656776561705
0.788,-0.7176897625012081,5899.40703048136
0.792,-0.7515482860606111,5900.258290201552
0.796,-0.793900950124396,5897.748200466073
0.8,-0.8320949868600086,5894.72192307449
0.804,-0.8543188809516189,5890.656615744282
0.808,-0.8540686965603705,5896.857644733652
0.812,-0.8321622466747163,5898.05737953872
0.8160000000000001,-0.795319991789539,5900.644321692037
0.8200000000000001,-0.75203189922648,5895.816286424615
0.8240000000000001,-0.7080811725667181,5898.305378320503
0.8280000000000001,-0.6643262598403382,5894.305514820196
0.8320000000000001,-0.617773603522732,5895.089379410542
0.836,-0.5648492275665222,5905.165593419972
0.84,-0.5046325070642707,5898.532504149542
0.844,-0.4401793518334874,5905.918587448705
0.848,-0.3774032209945951,5900.027829192792
0.852,-0.32236044267102837,5900.637549992006
0.856,-0.2784749809401447,5895.33801456616
0.86,-0.24501393988789272,5906.180834255794
0.864,-0.21731765242653955,5893.360952148116
0.868,-0.18852358256510018,5897.225012753562
0.872,-0.15215876341221832,5897.088001230737
0.876,-0.10489819802310778,5901.540221184806
0.88,-0.048782719216003356,5896.768180468959
0.884,0.007847549030355574,5905.992201192139
0.888,0.05149892252404322,5900.332683356656
0.892,0.06723731139244407,5903.748896857449
0.896,0.04430315062738424,5904.821243978372
0.9,-0.018642950787141985,5902.983056564804
0.904,-0.11147388272281804,5899.61875639524
0.908,-0.2151322341009398,5895.995058976533
0.912,-0.3076764100348718,5897.35015351005
0.916,-0.3711305093032188,5904.305188288929
0.92,-0.39635074134951787,5902.282002944406
0.924,-0.38420283171459396,5898.661428265062
0.928,-0.3430270352942999,5899.684680374777
0.932,-0.28400593240182104,5895.098056459839
0.936,-0.2168344020950399,5893.941404953064
0.94,-0.14758356828609417,5898.467179295502
0.944,-0.07921646567880808,5899.100699662523
0.948,-0.013768537172168749,5895.914354869964
0.952,0.04544616310904357,5893.455065543056
0.956,0.09293428303804083,5890.864434043737
0.96,0.12188612331108596,5902.59759694291
0.964,0.12632481124935077,5897.443408713916
0.968,0.10344606864734264,5901.868371657143
0.972,0.055010712818631805,5907.341922142268
0.976,-0.01279706019324911,5898.352110279659
0.98,-0.09085708619946198,5904.699920602858
0.984,-0.16928403990971402,5897.730339411574
0.988,-0.23959236071231335,5890.168108226176
0.992,-0.296257238491952,5898.640155668879
0.996,-0.33712073323863684,5902.533102201135
1.0,-0.362413633074578,5898.698252143608
1.004,-0.37291973536343087,5893.339806463528
1.008,-0.36850109618462573,5907.181735854072
1.012,-0.3481472234987139,5910.11939098061
1.016,-0.3117611269544905,5898.213507522134
1.02,-0.262579388325744,5902.748048601875
1.024,-0.20833929304663523,5901.343783929489
1.028,-0.15982862126335512,5903.6282534010725
1.032,-0.12717972738270836,5895.17257395473
1.036,-0.11588869023064194,5893.744383148355
1.04,-0.12467616703060778,5903.382707488924
1.044,-0.1460289869095137,5898.861578333816
1.048,-0.168808489272298,5893.742595812727
1.052,-0.1815759421753667,5899.0835496224645
1.056,-0.17532998965966579,5896.148820887235
1.06,-0.14499638774953222,5893.121873645322
1.064,-0.08992741858765524,5897.335064091186
1.068,-0.014130401430688585,5897.329798653256
1.072,0.07353175965205265,5897.508295135366
1.076,0.15976728046961777,5905.33766587403
1.08,0.22868138545376357,5902.419707294921
1.084,0.26504744816989834,5905.447694295817
1.088,0.2581436915097018,5903.39597930936
1.092,0.20483369534318904,5896.4330256805415
1.096,0.1107237023115498,5905.151452629986
1.1,-0.011158661864124224,5892.745404473174
1.104,-0.14378030941045014,5902.356265612326
1.108,-0.2703576747353781,5897.638325194156
1.112,-0.3779716136818871,5895.0092830306685
1.116,-0.4595760085397035,5906.542960238899
1.12,-0.5141757638907307,5894.6510148430325
1.124,-0.5454606366001945,5895.781041660178
1.128,-0.5593920929765764,5901.459023100751
1.132,-0.5613258652082816,5888.796359992792
1.136,-0.5534188364174902,5894.17009039855
1.14,-0.5332766192345181,5897.34318099499
1.144,-0.4946596837084198,5907.842609656445
1.148,-0.43030352218404616,5899.334620614631
1.152,-0.33585451847656694,5902.390373740258
1.156,-0.2133128043778405,5899.6648253005
1.16,-0.07263400293969022,5904.575037399705
1.164,0.06905520084093042,5900.615181732216
1.168,0.19047707307528913,5896.466364051236
1.172,0.27084696016777215,5909.963638703759
1.176,0.2950264854442618,5898.771938462039
1.18,0.2576582216710849,5899.765750712165
1.184,0.16491822253885766,5887.381299802733
1.188,0.03336465583065168,5895.990903927015
1.192,-0.11358957814679377,5905.014939539639
1.196,-0.2504359731194456,5893.880166594434
1.2,-0.35447938656328626,5902.997486405168
1.204,-0.41012846733257413,5896.899338615614
1.208,-0.4118450181873395,5903.78561266979
1.212,-0.3649550006206554,5895.736344294458
1.216,-0.2838310089732729,5899.253000705907
1.22,-0.18771447242174336,5897.765872047284
1.224,-0.09532254421312042,5889.821046003676
1.228,-0.020035751338418513,5894.708275686563
1.232,0.032567039927671404,5900.055627418607
1.236,0.06413751315131334,5899.06191922545
1.24,0.0808392582397223,5909.374770373693
1.244,0.09017025454434663,5905.788276445378
1.248,0.09851545249568494,5910.77423826866
1.252,0.10963103514308253,5897.789783218062
1.256,0.12384107070389125,5911.355028130433
1.26,0.13804844040856942,5907.710252671077
1.264,0.14700548215702772,5894.163653961418
1.268,0.1458877550427173,5901.734095270606
1.272,0.13319166127711124,5904.554102981797
1.276,0.11235231491270006,5902.742779528607
1.28,0.09101923050041834,5895.353483356212
1.284,0.07823154337171756,5889.031756816386
1.288,0.08070252119424959,5901.549382810553
1.292,0.09953094433756653,5897.723478449185
1.296,0.12840752089741703,5888.776006976691
1.3,0.15423014483420333,5903.18666061816
1.304,0.16050214777478117,5904.130896430944
1.308,0.13260982448421124,5898.404544617787
1.312,0.06294804896550327,5901.320816000159
1.316,-0.046078553606980266,5898.308166181745
1.32,-0.18209666813453967,5905.739395330299
1.324,-0.3255710457479167,5897.598703589746
1.328,-0.4542865199598804,5893.959433247948
1.332,-0.5481677003869865,5892.365861731869
1.336,-0.5933980113199468,5902.760933929907
1.34,-0.5852688294661841,5890.282452593416
1.344,-0.5293501462165379,5895.043388519722
1.348,-0.4404503336730853,5901.512912951598
1.352,-0.3390564941527064,5902.6319113634645
1.356,-0.24597000346644343,5898.890453717842
1.36,-0.17709642094755249,5893.687372822043
1.364,-0.14056463451171844,5907.355636752867
1.368,-0.13702783208675637,5902.954781759617
1.372,-0.16213382896566175,5893.5442077751695
1.376,-0.20926742577138116,5902.130799776974
1.38,-0.2712421944760672,5906.754632429637
1.384,-0.3408393648303909,5896.8718032268725
1.388,-0.4109153757633842,5909.872125233397
1.392,-0.47478909875053965,5906.114871495725
1.396,-0.5270045708755403,5901.005958216454
1.4,-0.5640010773251088,5905.365650258234
1.404,-0.5842409767897297,5905.741344925113
1.408,-0.587769593165333,5900.4186483129
1.412,-0.5754592121262234,5904.536640623778
1.416,-0.548270476429746,5895.5278141400095
1.42,-0.5070192712347403,5899.885360562223
1.424,-0.4530879011598572,5896.636448790385
1.428,-0.3898375452008128,5907.152740873484
1.432,-0.323671754135001,5907.339649005652
1.436,-0.26371134804174995,5899.460216861396
1.44,-0.21988660261601944,5898.7725107029455
1.444,-0.20015443827976612,5898.535320819508
1.448,-0.20797611785370054,5904.778776597715
1.452,-0.2410592144586399,5898.9264573275095
1.456,-0.2917897464193382,5900.860867256042
1.46,-0.3491027648586337,5902.619324273121
1.464,-0.40115714721328244,5904.292355549869
1.468,-0.4381312095464147,5894.814778755018
1.472,-0.4545199768173434,5901.573965635303
1.476,-0.4504581868070671,5902.507105607983
1.48,-0.43187091912925407,5890.690613583616
1.484,-0.4094286640426808,5903.753547924984
1.488,-0.3962133942511816,5901.399847382371
1.492,-0.4041408431393822,5899.1285629627455
1.496,-0.43989969053154604,5900.0456473343
1.5,-0.5019329291938451,5896.762934293765
1.504,-0.5799094662121779,5893.911600677826
1.508,-0.6570308706197736,5895.924948580272
1.512,-0.7141557423891216,5897.557671570779
1.516,-0.7340838841113817,5904.174229879096
1.52,-0.704723744779491,5906.781275794044
1.524,-0.6207821752010365,5903.756610860976
1.528,-0.4843854135624976,5904.440427750425
1.532,-0.30526096014338533,5904.569556754928
1.536,-0.10078197267308611,5902.137916483607
1.54,0.10437664230696383,5904.986568292769
1.544,0.27963445386228863,5910.655726466972
1.548,0.3916939562205179,5894.120654956746
1.552,0.4099145501066549,5908.289107298813
1.556,0.31352616544462614,5899.32910509721
1.56,0.09943698236592127,5902.842211786425
1.564,-0.21132525542102662,5897.8432879021575
1.568,-0.5706994542646682,5900.48417085736
1.572,-0.9058444066107716,5895.611577140059
1.576,-1.127101652968264,5901.335102757937
1.58,-1.1410200908187988,5896.568935846577
1.584,-0.8668531671302376,5898.237723859014
1.588,-0.2541814347834037,5897.910705172877
1.592,0.7014935692186011,5903.650400773807
1.596,1.949230279897064,5897.087996007739
1.6,3.3836947471194403,5893.905818524777
1.604,4.859922550291101,5895.550971521538
1.608,6.220618422831398,5901.9538637541455
1.612,7.328801318888199,5901.33396767502
1.616,8.09505129207821,5902.5067064828645
1.62,8.49067681422122,5894.136028153761
1.624,8.544356094611917,5911.496414733349
1.628,8.325977079715217,5902.870902058523
1.632,7.924683437488715,5889.510009246059
1.636,7.428306504773549,5892.094721663479
1.64,6.909256394474986,5900.599683521935
1.644,6.418526376874995,5895.035618767076
1.648,5.986199382165083,5903.706386782698
1.652,5.625310074092761,5899.713026131728
1.656,5.336399341036492,5898.735051300184
1.66,5.111439163936429,5894.776901547259
1.664,4.936869508617871,5906.733978579105
1.668,4.796051868059016,5911.049708027934
1.672,4.671622204621294,5897.253732086478
1.676,4.547951099291669,5898.117423238395
1.68,4.413327917918073,5900.260164698035
1.684,4.26116695218291,5901.073928982494
1.688,4.089905767795927,5902.931156777749
1.692,3.902030991569089,5902.322782702675
1.696,3.703107216012937,5900.7895983473845
1.7,3.50135527193171,5905.553296742597
1.704,3.3074811986162755,5910.308760813662
1.708,3.13385523913874,5893.28769256426
1.712,2.9923637742423916,5903.880289526234
1.716,2.891219511045787,5905.992906449469
1.72,2.8319943254054114,5897.40121286521
1.724,2.808305805217064,5896.806116345357
1.728,2.8068157183862397,5902.606817821713
1.732,2.8102063960773838,5895.973975227063
1.736,2.8012268654022834,5902.601691308508
1.74,2.7666900492393802,5898.137964522559
1.744,2.700252596136393,5903.229625478477
1.748,2.603055747135498,5901.76996406516
1.752,2.482000962899849,5899.411211055315
1.756,2.3463805393665016,5893.318880273961
1.76,2.2043086338384983,5899.951233017368
1.764,2.060466772832305,5904.58619481836
1.768,1.9160386180630669,5898.8726147197885
1.772,1.7707107284572232,5899.709307498466
1.776,1.6256717873494835,5906.011326765491
1.78,1.4860161524039142,5900.396654596526
1.784,1.361186117882185,5902.038992443488
1.788,1.263033224800077,5895.288871517787
1.792,1.202158439393525,5894.398950745631
1.796,1.183833128857991,5895.61004216261
1.8,1.2049253765363894,5896.955870911133
1.804,1.2529877510526688,5909.56653256026
