时间(s),电压(V),幅值(高频80K)
0.0,1.2901130501012925,5892.322423515488
0.004,0.7881244692562301,5893.978714799605
0.008,0.33559589864182165,5902.632461454051
0.012,-0.025257712531907974,5901.321162084369
0.016,-0.26891935089630714,5900.958352544091
0.02,-0.3890943339653626,5901.642153604417
0.024,-0.396994023902615,5890.933346329722
0.028,-0.31724449503771274,5897.447779701674
0.032,-0.18324262189358342,5904.675714433511
0.036,-0.03263482431700256,5901.889722865131
0.04,0.09742583800314031,5900.744402984358
0.044,0.17556347146421342,5891.027120430809
0.048,0.18135544496443812,5894.854264962651
0.052,0.10884325092078756,5903.246632073249
0.056,-0.03300402571937101,5907.082393971143
0.06,-0.223004033538772,5897.762270696659
0.064,-0.43256614706723345,5903.598824196701
0.068,-0.6312686222477816,5906.566367849237
0.072,-0.7923323679431585,5904.895753340581
0.076,-0.8972799020035823,5902.888544501057
0.08,-0.9388197307531462,5900.571195888775
0.084,-0.921126466595514,5896.75464700344
0.088,-0.8575990692139944,5898.915320052317
0.092,-0.767170403847892,5904.258309399979
0.096,-0.670366348208533,5898.743926643995
0.1,-0.5856268433135742,5893.960153299379
0.104,-0.5258953150455379,5895.669718650135
0.108,-0.4958090797331309,5898.571932953442
0.112,-0.49053331658485455,5894.254496400697
0.116,-0.49737909449357626,5896.330363403631
0.12,-0.5003108334240354,5897.80410002168
0.124,-0.4858449850681159,5903.144414941694
0.128,-0.4479396487822177,5901.969690960107
0.132,-0.3899690524377066,5899.802794080154
0.136,-0.3232558277578928,5905.704118874928
0.14,-0.2629848409116782,5899.818879091268
0.144,-0.2231567548302914,5905.480416418463
0.148,-0.2124301705781523,5903.683823496568
0.152,-0.23219716367222706,5907.452486034118
0.156,-0.27711673541316667,5895.423527547899
0.16,-0.33713347711223884,5902.853479969612
0.164,-0.39968862839651365,5893.595566269393
0.168,-0.45173197635629114,5905.195393757242
0.172,-0.48216529649346146,5903.423151774831
0.176,-0.4850291613705014,5901.940318569554
0.18,-0.4622464779079854,5895.63496348993
0.184,-0.4238858085333745,5899.392882658771
0.188,-0.384959524100307,5888.01343771777
0.192,-0.3598496572264122,5890.859727958878
0.196,-0.35672575216001523,5906.259665300028
0.2,-0.3741054794314463,5896.331815728851
0.204,-0.4007344866961478,5900.323790258278
0.208,-0.4189677292373226,5897.410479153206
0.212,-0.41084423048997604,5902.251200905079
0.216,-0.3649781394807687,5898.853666287888
0.22,-0.2816914081502368,5906.548999399999
0.224,-0.17419922910888572,5903.915038814255
0.228,-0.0652671012159844,5901.189080503862
0.232,0.019296479013650426,5898.282382797224
0.236,0.05791892298015419,5900.478057877166
0.24,0.0392131626429479,5905.277502762085
0.244,-0.0345965508236974,5900.837555417109
0.248,-0.1472633223402543,5901.937328183332
0.252,-0.2712359607034423,5905.01956255453
0.256,-0.37325051417407695,5896.007073352767
0.26,-0.42194492968144065,5914.740649148868
0.264,-0.3959063575607894,5906.244462230321
0.268,-0.2899966880034517,5906.789019856783
0.272,-0.11783299954332482,5914.773523862988
0.276,0.09077069909154042,5899.338042459911
0.28,0.29687218301624724,5897.001147752079
0.284,0.46171562394508986,5894.119613844212
0.288,0.5553479547541837,5911.313368024504
0.292,0.5623065204512917,5898.081373985631
0.296,0.48353458452161546,5895.836461646639
0.3,0.33486565064764756,5890.916923522202
0.304,0.14304731105286592,5903.1817942754005
0.308,-0.059672482794354324,5905.436998016845
0.312,-0.24166782936528222,5907.68533616471
0.316,-0.3781145139409991,5895.940783247459
0.32,-0.4561549091907573,5895.468568535364
0.324,-0.47758219740121266,5895.459522640443
0.328,-0.45784206281000367,5894.685114187344
0.332,-0.42105520522556433,5897.219892675946
0.336,-0.3920595556334593,5903.396055174374
0.34,-0.38796131165458825,5899.372490067835
0.344,-0.41259479993759923,5898.097531272151
0.348,-0.4564572657230393,5891.906870956741
0.352,-0.5021005909801841,5900.997552403925
0.356,-0.5322874064248636,5897.72477038169
0.36,-0.5371569258625668,5898.7316331961765
0.364,-0.517522825443703,5900.122374292547
0.368,-0.48349154451467163,5897.564199318919
0.372,-0.4497393612087956,5897.1524639563495
0.376,-0.42996003547438444,5891.224433091632
0.38,-0.4327466645434651,5893.359729649004
0.384,-0.45997023144454674,5895.872552533248
0.388,-0.507443637724303,5908.248655873446
0.392,-0.566961466952429,5896.8850701937445
0.396,-0.628841075032339,5897.407824577863
0.4,-0.6844781754348975,5889.933871203811
0.404,-0.7285642399187952,5904.280610948276
0.408,-0.7603942029102884,5903.505854418831
0.412,-0.7835930179536827,5904.6784007023525
0.416,-0.8038997566195237,5900.782562923478
0.42,-0.8253481358200667,5890.75508399903
0.424,-0.8462095523217736,5901.39163734708
0.428,-0.8568811323303831,5896.665725206235
0.432,-0.8415256479535269,5906.243727724293
0.436,-0.7834869889354342,5894.598784859629
0.44,-0.6724076832225432,5894.518111770202
0.444,-0.509949675502039,5906.043011445978
0.448,-0.3115802198936604,5906.663774471405
0.452,-0.10353818339668112,5908.368462528677
0.456,0.08401304619281114,5905.365377638728
0.46,0.22519671844938824,5899.688512810559
0.464,0.305026890399157,5897.298090841443
0.468,0.3221034164075799,5895.308285473235
0.472,0.28677722046695614,5894.602753758012
0.476,0.21607639647859636,5900.542412393195
0.48,0.12778668872152693,5906.268711764069
0.484,0.03587407468785539,5892.267614627878
0.488,-0.05162113114938327,5897.895569847808
0.492,-0.1321560431262616,5899.873333916677
0.496,-0.20634581499510105,5895.53588237922
0.5,-0.2747728694242242,5901.862896727591
0.504,-0.33530385267986407,5899.296073897348
0.508,-0.3822142928131706,5901.241548285079
0.512,-0.4077360902653443,5912.825131908717
0.516,-0.40551197092873925,5895.848891225681
0.52,-0.3744788565614695,5901.009512624633
0.524,-0.3214147811772038,5907.352328553076
0.528,-0.2608380080048674,5909.019942711548
0.532,-0.21192629521867254,5897.7023202087
0.536,-0.19329535930660863,5904.176939636789
0.54,-0.21735195680267608,5901.516865402505
0.544,-0.2860743730778576,5892.879178648519
0.548,-0.38952750956297444,5892.201395490078
0.552,-0.5076395117738108,5899.30318992985
0.556,-0.6149539307378123,5901.018062495435
0.56,-0.6871744994775375,5905.235150934329
0.5640000000000001,-0.7075752550849544,5896.246919875153
0.5680000000000001,-0.6712537165763228,5901.689367942157
0.5720000000000001,-0.585966112107311,5899.4565184699295
0.5760000000000001,-0.4695628294844621,5897.608180120135
0.58,-0.3451955518909783,5893.715876246269
0.584,-0.23596461277932543,5904.311721562975
0.588,-0.160414998539279,5910.059098542678
0.592,-0.12962063329436524,5903.636684065583
0.596,-0.14597640630442446,5898.723309709877
0.6,-0.2034487844463501,5902.122710894412
0.604,-0.28889660577675574,5899.762445252196
0.608,-0.38415889533355635,5899.296350833549
0.612,-0.46888635536099504,5896.247576262624
0.616,-0.5242278829958954,5907.385557638407
0.62,-0.5370144160523518,5907.098935098017
0.624,-0.5032154605610372,5891.116898470639
0.628,-0.4291124492791157,5897.345129376903
0.632,-0.32937799234376336,5904.403551974968
0.636,-0.22262230378997988,5894.834904929792
0.64,-0.126147262832169,5893.108585999866
0.644,-0.05200065436088555,5897.932063605077
0.648,-0.005721090679046452,5898.354707894388
0.652,0.012172443239491505,5899.270524281391
0.656,0.0031147781007057345,5895.124397269942
0.66,-0.03231861917636615,5903.931909349611
0.664,-0.09525962061315006,5899.222113609508
0.668,-0.18679450090402758,5895.060888378671
0.672,-0.3046476427395952,5908.447750163117
0.676,-0.4404735563565281,5899.904569338482
0.68,-0.5795715079605179,5898.245930294902
0.684,-0.7032670864443976,5903.834476702665
0.6880000000000001,-0.7927462650108561,5910.078870009822
0.6920000000000001,-0.832867537398203,5895.447555950528
0.6960000000000001,-0.8152039737957785,5899.597559502546
0.7000000000000001,-0.74016923440072,5892.982821385633
0.704,-0.617962536834589,5898.267431445395
0.708,-0.4676910116761556,5901.845398856372
0.712,-0.31412827462890236,5897.44875199673
0.716,-0.1823664448699444,5897.35558200749
0.72,-0.09173006532264853,5907.282158525971
0.724,-0.05102095938188545,5901.892447188093
0.728,-0.05687702600633937,5896.237151156196
0.732,-0.09581127421125253,5901.610723397689
0.736,-0.14902976835529552,5897.332916023603
0.74,-0.198179112988798,5902.662425190196
0.744,-0.230063920756057,5898.934146576302
0.748,-0.23893218217097897,5906.092547084072
0.752,-0.22589347123150832,5899.113951720545
0.756,-0.1962194586258541,5899.359968514931
0.76,-0.15624631904804276,5906.17660851825
0.764,-0.11164476991748744,5900.659420531375
0.768,-0.06763884334673219,5899.121061896144
0.772,-0.030097815940760487,5897.733622634668
0.776,-0.005690584926958321,5896.1549400816975
0.78,-0.00016653871410843678,5906.354687769178
0.784,-0.015558852902550496,5894.016379578377
0.788,-0.04820111716067327,5902.394407441649
0.792,-0.08899364821093059,5903.822668443376
0.796,-0.12580778992294556,5897.541684178302
0.8,-0.14669381120694827,5898.171210448852
0.804,-0.14261308518714647,5902.222158364144
0.808,-0.10928091643727958,5906.8826532802905
0.812,-0.04825218442467967,5904.252580393116
0.8160000000000001,0.03277894682885533,5905.826323484665
0.8200000000000001,0.12076947949435579,5901.023160447182
0.8240000000000001,0.19931127631196624,5904.445132637036
0.8280000000000001,0.25139965902006184,5907.089688849641
0.8320000000000001,0.2623139494617717,5905.275970543274
0.836,0.22211595793538222,5898.970140604867
0.84,0.1276409186814798,5903.640510748829
0.844,-0.015981923188394746,5900.807941421779
0.848,-0.1945604078383176,5897.290461978154
0.852,-0.38566713885312964,5912.45426113339
0.856,-0.5619363768180154,5899.025976731418
0.86,-0.6967100565708113,5905.679678429245
0.864,-0.7704394533473878,5892.057914257361
0.868,-0.7754539723376296,5904.26124726931
0.872,-0.7173040946640823,5894.035371685125
0.876,-0.6124805888830012,5895.543800398258
0.88,-0.48375381767604925,5906.422699590506
0.884,-0.35478720987522505,5901.36243409437
0.888,-0.24518417218521654,5904.187776356052
0.892,-0.1665632328136917,5902.7097225346615
0.896,-0.12018352880248649,5904.50099126096
0.9,-0.09680812828360741,5896.985872354492
0.904,-0.0792946890326128,5897.7430388976745
0.908,-0.04764382952275538,5890.685184084262
0.912,0.014706825375767105,5908.287641676982
0.916,0.11515173308207063,5891.111170099452
0.92,0.24855732953359125,5898.382002411327
0.924,0.39747270622980363,5897.838305949062
0.928,0.5360106932479146,5912.5359820786025
0.932,0.6362924916011394,5899.269455235595
0.936,0.6755605563369523,5898.719349252187
0.94,0.6419197981875078,5903.954700799101
0.944,0.5371324908431498,5899.29301892044
0.948,0.37588525869821604,5898.480220772519
0.952,0.18210739622269678,5901.568989546559
0.956,-0.016348705719960863,5885.882626095999
0.96,-0.19326775723415893,5908.209507467874
0.964,-0.328740333560482,5909.216184170395
0.968,-0.4121412510667601,5904.490581826258
0.972,-0.4429396622043756,5899.273594388857
0.976,-0.42921680651207605,5899.062763512823
0.98,-0.3843432985762223,5895.819234506358
0.984,-0.3230478034759569,5906.241421538683
0.988,-0.25847562432627724,5898.522879021108
0.992,-0.2011744662316216,5891.731612201601
0.996,-0.15962015265702564,5898.124678155146
1.0,-0.1410419513191782,5902.692615006514
1.004,-0.1515528799661687,5908.717095545356
1.008,-0.1953940064070415,5897.621383772174
1.012,-0.27359077938187415,5891.54923672323
1.016,-0.3824085633720425,5901.4474272383095
1.02,-0.5121735637384374,5891.744978460647
1.024,-0.6473241127871944,5894.192664321037
1.028,-0.7684184706773577,5901.154762417122
1.032,-0.8559850297916433,5892.957814268373
1.036,-0.8950690681422871,5890.089778631962
1.04,-0.8788788325354119,5908.153989626746
1.044,-0.8103550708147408,5896.075440512838
1.048,-0.7014101278565487,5907.748535600749
1.052,-0.5703679645524453,5903.619449434751
1.056,-0.43842337989130115,5902.949745756693
1.06,-0.32586258077519514,5902.490911309121
1.064,-0.24868506238552815,5901.418184831761
1.068,-0.21619673783890203,5886.4363750719685
1.072,-0.22990454242972513,5898.939427970652
1.076,-0.2836631180998472,5897.845578089457
1.08,-0.3648326871185077,5898.602817136081
1.084,-0.4563456356361282,5903.298704400142
1.088,-0.5397697399875413,5907.65076796599
1.092,-0.5992617582466191,5905.610097125496
1.096,-0.6255894350230645,5902.150077788655
1.1,-0.6186478444361496,5895.721079836649
1.104,-0.5869858131204039,5906.604681227931
1.108,-0.5442197802293243,5894.524430415268
1.112,-0.5040367525759251,5906.76704259523
1.116,-0.47616938339919324,5897.926278956599
1.12,-0.46464170565791585,5894.080024976637
1.124,-0.4679602602571005,5909.576861899218
1.128,-0.48029104489307656,5911.507855664819
1.132,-0.49308962240149773,5904.159351936709
1.136,-0.4971336807371303,5907.317506143921
1.14,-0.48479821822213215,5908.034297491369
1.144,-0.45196346070208765,5903.028568923907
1.148,-0.3988307640564272,5899.344927519244
1.152,-0.32948249633299426,5902.071402570842
1.156,-0.2508004171238748,5899.131947420495
1.16,-0.17153530590572483,5895.321663542388
1.164,-0.10171036635722154,5900.361770189854
1.168,-0.05181353534549302,5900.687204031825
1.172,-0.03115695349300183,5899.086563369546
1.176,-0.04546743216431961,5899.16816805438
1.18,-0.09458176733864604,5899.966785156549
1.184,-0.1713342266742629,5904.231342107098
1.188,-0.2622958079790872,5893.786056795107
1.192,-0.35036462508914445,5894.41220165321
1.196,-0.41855587708475306,5896.798670487227
1.2,-0.4538812540756572,5899.183533406356
1.204,-0.45017841998709335,5897.580863255319
1.208,-0.40912116405815346,5902.738349842476
1.212,-0.3391925307716718,5891.410779835948
1.216,-0.25299821656324506,5891.533800841886
1.22,-0.1637776422221886,5895.62191671522
1.224,-0.08214454290616137,5896.96882572932
1.228,-0.013941915532006166,5901.435249131267
1.232,0.04022163974605304,5900.125751828375
1.236,0.08362893182966491,5894.089985975252
1.24,0.12082565594746117,5898.886755319471
1.244,0.15485329510811108,5905.0463540223645
1.248,0.18552670280876424,5899.66510648919
1.252,0.2092706479425279,5893.7902836703215
1.256,0.22029482220968077,5897.083745498477
1.26,0.21256976923031284,5896.875239808355
1.264,0.1819717389304534,5893.745169506113
1.268,0.1279145089741213,5907.30902015298
1.272,0.053979827066002545,5903.321038332797
1.276,-0.03251511707304834,5896.253245252843
1.28,-0.12179244247356148,5911.516733386293
1.284,-0.20349691138610074,5894.3771878634725
1.288,-0.2688934750821651,5905.140078745577
1.292,-0.31282445438883777,5903.371119838995
1.296,-0.3347697009152467,5897.740763502493
1.3,-0.33870696898857244,5901.638476125681
1.304,-0.33197802265533777,5889.46828899421
1.308,-0.32358368769743207,5904.838186019088
1.312,-0.32228572963991015,5907.218639627319
1.316,-0.3348128204421806,5906.998996646774
1.32,-0.36436837433915825,5899.453950336371
1.324,-0.409543952524476,5902.094842800359
1.328,-0.46380090430446275,5890.309539739612
1.332,-0.5158467452034586,5905.56397608023
1.336,-0.551256772049461,5905.129394167477
1.34,-0.5554522832909732,5902.806202086102
1.344,-0.5176539409192225,5902.350160469372
1.348,-0.43480068265266036,5901.690487758349
1.352,-0.3140653616029923,5904.335718038639
1.356,-0.17288506089260838,5895.785731331558
1.36,-0.03614162951294079,5902.869013990959
1.364,0.06918740243823651,5891.534259221991
1.368,0.12091733467648311,5899.215557563974
1.372,0.10824686633880345,5903.674251942131
1.376,0.03562936244404016,5904.933746432136
1.38,-0.07799647859573114,5886.535276590179
1.384,-0.20479153045648377,5891.019259261343
1.388,-0.3164265044779445,5901.70400086997
1.392,-0.39198913170588745,5898.302777904948
1.396,-0.4224517239911768,5895.659110819237
1.4,-0.4106894411939637,5900.666217622388
1.404,-0.3681534930777892,5902.623896445194
1.408,-0.31033839618578174,5895.185178731666
1.412,-0.25293563322110674,5901.541168634401
1.416,-0.20949182362751131,5897.454808148579
1.42,-0.1901493846147204,5892.824043079916
1.424,-0.20049995778355298,5904.066344668369
1.428,-0.24016184097870877,5903.449130288211
1.432,-0.3017734590874513,5903.423567666442
1.436,-0.37156991964510017,5901.889377879178
1.44,-0.43211791023471163,5898.3776550675975
1.444,-0.46662458194386186,5906.097421291166
1.448,-0.46338186801477826,5902.255592307636
1.452,-0.41884388639021725,5906.70215620404
1.456,-0.3384273443969757,5899.469908627176
1.46,-0.23500209316127155,5900.162955858945
1.464,-0.12586381521855605,5899.36296701689
1.468,-0.029335488872052454,5900.10948189145
1.472,0.03821971777779165,5895.983984581537
1.476,0.0648358233979583,5899.308777012939
1.48,0.04487964739884425,5894.980792691032
1.484,-0.01979901520745564,5907.659200102501
1.488,-0.12000892290957246,5899.320958269088
1.492,-0.24087614340338098,5892.852049696958
1.496,-0.36469591410696817,5903.743565927739
1.5,-0.47421300851823045,5899.518556940037
1.504,-0.5553879959392153,5897.955069896998
1.508,-0.598897781193502,5907.683972115876
1.512,-0.6002720761549286,5887.708601802574
1.516,-0.5593898828928061,5895.656498940437
1.52,-0.4803228685741075,5894.55947918947
1.524,-0.3717946012876756,5911.551288938257
1.528,-0.24745855654569202,5907.682677840643
1.532,-0.12492089413117063,5902.542563111846
1.536,-0.02317170725741649,5901.787764320562
1.54,0.04103396287478315,5899.886208019778
1.544,0.05694216725670855,5893.725802646009
1.548,0.02274724935094842,5902.77423101772
1.552,-0.05328866073991726,5902.182995569508
1.556,-0.15432323383578786,5907.081938041163
1.56,-0.259034691080377,5909.137742998379
1.564,-0.3472960743415173,5906.485448959197
1.568,-0.4056615061837196,5896.876141469488
1.572,-0.4308727894511415,5895.951070623477
1.576,-0.4302107702630564,5894.26219246106
1.58,-0.4185093827007946,5899.3883872770975
1.584,-0.4126757962474738,5902.420641338607
1.588,-0.42529950594470434,5897.276773610097
1.592,-0.4592640028594622,5900.86709912899
1.596,-0.5052133789499463,5909.125292051077
1.6,-0.5431685608710476,5904.053644384898
1.604,-0.5483672244553749,5904.610303279949
1.608,-0.49978819670597363,5901.885290798735
1.612,-0.3886739957186348,5898.819432507892
1.616,-0.22432083389112928,5896.196948626646
1.62,-0.035192692061785255,5895.546839262955
1.624,0.13552493075828234,5897.896074344468
1.628,0.239583167243516,5906.526715895284
1.632,0.23682032842534634,5897.093878505305
1.636,0.10898720877788447,5901.310065853491
1.64,-0.12906545962198407,5899.304147244486
1.644,-0.42410368830094475,5898.407038109542
1.648,-0.6878255471509594,5896.904330381552
1.652,-0.810063266010471,5894.63371160183
1.656,-0.6807208425473662,5895.209183304243
1.66,-0.21631096622107962,5897.912941531907
1.664,0.6154321818134922,5896.269108624932
1.668,1.7801254743181107,5907.039914206138
1.672,3.176428224938724,5900.634359984246
1.676,4.653218528655396,5895.644509104418
1.68,6.040947710993638,5908.331406721047
1.684,7.188031303659388,5899.237699885933
1.688,7.990822633921132,5901.701300548301
1.692,8.408842156264054,5903.659946121484
1.696,8.463303111484887,5910.002763345356
1.7,8.222687937665901,5892.512594118364
1.704,7.781957555205104,5898.405424704319
1.708,7.241779522550574,5902.533555861188
1.712,6.691965064655555,5907.150969667336
1.716,6.200701389675825,5895.67687294255
1.72,5.809441548300597,5900.893993101969
1.724,5.532658505564263,5894.1747537653255
1.728,5.361524687285655,5899.262202990278
1.732,5.270466729862662,5903.870362541009
1.736,5.225319695967302,5895.505717506181
1.74,5.191539457517639,5895.5712863803055
1.744,5.140884032616404,5896.963434983542
1.748,5.055410832154371,5910.188456960975
1.752,4.928489893443633,5904.422635019422
1.756,4.763371894758996,5900.11156065738
1.76,4.570259210230694,5897.058458461638
1.764,4.36273771435551,5903.456708912476
1.768,4.154136576374663,5899.6789204470415
1.772,3.954290504640444,5898.4496333411735
1.776,3.767347294552368,5898.934483203094
1.78,3.5913057641090647,5901.179805033996
1.784,3.4195133689631354,5897.432952178742
1.788,3.243582417367409,5893.966641447002
1.792,3.0566756720245025,5908.866290382417
1.796,2.856139892979955,5905.069175218954
1.8,2.6447998234843664,5901.842440074392
