时间(s),电压(V),幅值(高频80K)
0.0,-0.19657707694181906,5898.090644264932
0.004,-0.30496205117846564,5900.892274188787
0.008,-0.4022977400336065,5902.996366698357
0.012,-0.4781253729687651,5899.795595260504
0.016,-0.5267938489151596,5897.436703444063
0.02,-0.5483449071955544,5894.904437475381
0.024,-0.5472692908256235,5898.529978155321
0.028,-0.5294086379355554,5899.654315698971
0.032,-0.4985646834132017,5900.9980898901695
0.036,-0.45471568991405165,5896.531071651091
0.04,-0.3948401844164335,5899.747659226913
0.044,-0.315974719856332,5897.6847975304245
0.048,-0.2190744031457619,5900.143934908771
0.052,-0.111770487179931,5900.502626541404
0.056,-0.008364251230474264,5896.988839111447
0.06,0.07349812269923145,5902.51835739944
0.064,0.11843380793804778,5897.205799818467
0.068,0.119015083804455,5898.236997661084
0.072,0.07925687781805617,5898.362740920698
0.076,0.014523194533505368,5907.463070040842
0.08,-0.05215232961041127,5904.203950971745
0.084,-0.09613739833643023,5896.61036105889
0.088,-0.09787947048534817,5896.272679432039
0.092,-0.04844078991072726,5895.816070766287
0.096,0.04752100920740528,5900.275272044073
0.1,0.1723144438737322,5894.82448954678
0.104,0.2995774544739615,5899.371394638458
0.108,0.4013919675599622,5897.353479010208
0.112,0.4557364827878725,5904.782374453822
0.116,0.4515818026595291,5914.294326707483
0.12,0.39012909273892793,5900.165763495713
0.124,0.28252845806256666,5904.498890455499
0.128,0.14576040320743874,5903.032940241375
0.132,-0.001400716655947105,5899.515193749956
0.136,-0.14119759011328553,5902.986801854427
0.14,-0.2584357781711634,5897.677204588425
0.144,-0.3413912152412049,5898.323230871212
0.148,-0.38268051652612006,5908.468525725323
0.152,-0.380224934513857,5902.422314325073
0.156,-0.3378767139052503,5899.162178766628
0.16,-0.2649780228954465,5894.956165527794
0.164,-0.1744362029495439,5894.965701563382
0.168,-0.07979330764440182,5896.61775912652
0.172,0.007435542093680277,5901.95549840254
0.176,0.07897936536527013,5897.523154294775
0.18,0.12940501437547236,5886.538414313823
0.184,0.15488301605451937,5895.72102855511
0.188,0.15208375847905237,5899.937817122562
0.192,0.11776250374700936,5902.435437235305
0.196,0.049327014429622694,5899.844539810213
0.2,-0.05343591553120337,5894.000105466052
0.204,-0.18580058117128032,5913.507406855374
0.208,-0.33596483129087196,5905.761810215127
0.212,-0.485153684077467,5907.351378532619
0.216,-0.6110517606104781,5904.797771537658
0.22,-0.6936977540223405,5907.227311454434
0.224,-0.7212458866879731,5894.8666741287625
0.228,-0.6930251118452364,5897.296921833479
0.232,-0.6189946784616355,5896.817988312537
0.236,-0.516454118635913,5906.25026820714
0.24,-0.40555621985623,5891.072936353776
0.244,-0.30496036492547485,5901.519038493575
0.248,-0.22853717841336674,5909.9886712308335
0.252,-0.1836589164100621,5900.783992988128
0.256,-0.17122989476166983,5902.796537976651
0.26,-0.18723565300104186,5908.8317014378445
0.264,-0.22522855175018408,5904.114024392476
0.268,-0.27883965441816094,5903.016918111544
0.272,-0.3433176895519633,5899.263948878972
0.276,-0.41547356713244066,5898.872198568286
0.28,-0.49220547812757054,5898.0036613137945
0.284,-0.5686193161885589,5894.510906518808
0.288,-0.6370761911273618,5902.174243865084
0.292,-0.6879563693534367,5900.252261194923
0.296,-0.7118833213277784,5904.672925466126
0.3,-0.7024136481859814,5901.86349368738
0.304,-0.6581914332820835,5896.34540896924
0.308,-0.5839746559309856,5899.571468623933
0.312,-0.49026615153026637,5897.443361262792
0.316,-0.39143369040523324,5899.123867093283
0.32,-0.302474907443728,5897.172228411293
0.324,-0.23519040186368972,5890.644549795344
0.328,-0.1951805331233915,5901.953558704127
0.332,-0.1810489653903158,5901.801704757972
0.336,-0.1861205664350819,5899.842815281068
0.34,-0.20157193016763433,5894.786282911401
0.344,-0.21929975123767284,5904.514131468977
0.348,-0.2334221303509859,5896.064801452405
0.352,-0.2402953656226842,5892.416928929475
0.356,-0.23761623072968044,5899.789947655816
0.36,-0.22340291668889237,5896.003384845867
0.364,-0.19549061875099422,5898.496497148532
0.368,-0.15180102175506296,5897.479810243881
0.372,-0.09131998731581571,5904.7194442803375
0.376,-0.015552235260642578,5895.566775525173
0.38,0.06997744415281096,5895.158099590871
0.384,0.15489269852180026,5906.950745825313
0.388,0.22460501899840304,5903.551689410327
0.392,0.26289315125281176,5891.523548553557
0.396,0.2561583676937291,5897.926475023587
0.4,0.19813423821460788,5901.293195854015
0.404,0.09317085497400335,5906.058709780972
0.408,-0.0435407702710483,5909.30662365116
0.412,-0.1893002315866974,5897.768990655548
0.416,-0.3198486320680074,5901.293992173904
0.42,-0.41590682864365197,5896.6002154369935
0.424,-0.4679742797984571,5907.7271502925405
0.428,-0.47773058901305593,5899.153384790774
0.432,-0.45572433531347134,5902.389657075241
0.436,-0.41650387057567256,5892.005483716721
0.44,-0.37333653448423654,5898.054181855797
0.444,-0.33464931839967893,5892.895805544655
0.448,-0.3033011627061664,5892.791651387632
0.452,-0.2783987292391825,5894.934907603919
0.456,-0.25826913933986145,5904.597898127313
0.46,-0.2427703340248157,5897.920081236844
0.464,-0.23358056789395468,5906.986237405801
0.468,-0.23240613806758217,5902.287842998497
0.472,-0.23845627602243943,5907.049147633391
0.476,-0.2470357677815934,5902.75268389738
0.48,-0.2503758884694023,5902.990251503187
0.484,-0.24051459180553658,5895.421453233238
0.488,-0.2129730183484145,5899.419581801945
0.492,-0.16952103733028606,5904.735430568596
0.496,-0.11860199601469565,5890.7403835515215
0.5,-0.07302471011578059,5902.16325108549
0.504,-0.045862524589640304,5902.570036835209
0.508,-0.04624963060936274,5904.65747019514
0.512,-0.07654543152124292,5900.759670252984
0.516,-0.13158313163056304,5893.194932640115
0.52,-0.19996523760818033,5892.367038106302
0.524,-0.2667981606336495,5904.262015868404
0.528,-0.3169806968368478,5905.848591757347
0.532,-0.33826703131651303,5905.210801914199
0.536,-0.32362975957050505,5900.758365697458
0.54,-0.2726474672845221,5903.840061887632
0.544,-0.19169305207409015,5895.960897006196
0.548,-0.09283804609175678,5895.270990359112
0.552,0.00826972755543269,5901.318065188315
0.556,0.09502863203627337,5906.609388817289
0.56,0.15257950454290384,5890.142263366346
0.5640000000000001,0.1704017746217552,5905.815926493184
0.5680000000000001,0.14457091279196277,5893.168031586834
0.5720000000000001,0.07907354194439185,5903.949408456187
0.5760000000000001,-0.014551860988367794,5895.159781526371
0.58,-0.11951694794294417,5896.671003546936
0.584,-0.2174907042095284,5899.657086806515
0.588,-0.29259482947386767,5894.905162893359
0.592,-0.3345661719446379,5907.432688159425
0.596,-0.34039010859254554,5902.742637944391
0.6,-0.3141446251271808,5903.380340551354
0.604,-0.2651159491079637,5901.413029898659
0.608,-0.20472188006103048,5894.208075773698
0.612,-0.14336925205997236,5893.6701476408825
0.616,-0.0884347699799514,5902.40456526849
0.62,-0.043784139418059295,5892.231781287442
0.624,-0.010342470834165134,5897.812176281032
0.628,0.012984367554015712,5896.87927769411
0.632,0.028423215461476265,5890.810518983507
0.636,0.03863236019858706,5903.026151784595
0.64,0.04621410228162126,5894.668908724959
0.644,0.05327719049597911,5906.041050277702
0.648,0.06091410374096299,5905.06093395539
0.652,0.06885206666958416,5894.499838956791
0.656,0.07569000340863215,5900.755335973388
0.66,0.0796356783751356,5900.697756381658
0.664,0.07911369350143053,5896.843248557461
0.668,0.07278504004526584,5904.3462864315525
0.672,0.059259494990946945,5897.147542209673
0.676,0.03728433004743019,5901.503104475375
0.68,0.006855351621158221,5902.050673464391
0.684,-0.029276166879830087,5897.038045370406
0.6880000000000001,-0.06492814979019718,5907.347381154624
0.6920000000000001,-0.09159594900994532,5899.586554647782
0.6960000000000001,-0.1012597557939631,5900.10049869119
0.7000000000000001,-0.08977408040937333,5907.5395436698045
0.704,-0.05925374827279346,5906.591499747803
0.708,-0.018154934415880484,5898.53570229167
0.712,0.021259360358041768,5889.556431635529
0.716,0.0471015240093889,5897.3855159793775
0.72,0.05195449681091085,5895.107264291972
0.724,0.03534878925499247,5904.806290523167
0.728,0.003837177980233959,5898.786853056519
0.732,-0.031418309965235786,5902.459644036926
0.736,-0.05891842757006317,5897.90213139454
0.74,-0.07146096813910723,5906.012371584356
0.744,-0.0691894369955385,5892.176872825353
0.748,-0.05971372802249053,5909.6542960230245
0.752,-0.05532034692225963,5892.352588474381
0.756,-0.0684897287233599,5900.080347268818
0.76,-0.10746046847098512,5890.602200821327
0.764,-0.17344339939160552,5893.763947263803
0.768,-0.2603740134057458,5897.393217605526
0.772,-0.35696675316141624,5892.4406289949975
0.776,-0.449860098510319,5908.182158154904
0.78,-0.5264717939439019,5897.717394991261
0.784,-0.5768402124780622,5903.455625347837
0.788,-0.5945283742658113,5899.6169557662
0.792,-0.5770217718185552,5901.698487676914
0.796,-0.5259651667418912,5898.460149739395
0.8,-0.44731462555914514,5905.80841257308
0.804,-0.3512039464103976,5892.766063446777
0.808,-0.2511968170516158,5897.219210915248
0.812,-0.1627140901740818,5899.298638768935
0.8160000000000001,-0.10066513813509022,5897.755466054097
0.8200000000000001,-0.0765016817874628,5902.230643653917
0.8240000000000001,-0.0951414854230752,5898.933497404664
0.8280000000000001,-0.15264142582284806,5903.705164458932
0.8320000000000001,-0.23585875212371601,5895.354812604638
0.836,-0.32499792824554136,5900.99056921803
0.84,-0.3987230221985793,5890.822314284644
0.844,-0.4401363279223299,5897.94055713216
0.848,-0.4413864918843739,5904.336681521275
0.852,-0.40534078315504474,5908.615756506967
0.856,-0.344125286135843,5910.809031104639
0.86,-0.27552849957837205,5896.343129339102
0.864,-0.21868185242928065,5896.491368492267
0.868,-0.1901018670448329,5906.186722157556
0.872,-0.20063641272466995,5899.736782417145
0.876,-0.2535766477785233,5900.584829148739
0.88,-0.3441462839623045,5886.713073163278
0.884,-0.4604498151026288,5905.876701284691
0.888,-0.5856660620701235,5892.838774207019
0.892,-0.7010165381142694,5901.881890765733
0.896,-0.7889600362347466,5896.299375774815
0.9,-0.8360838026594579,5898.010793487919
0.904,-0.8352045325108045,5884.706765188668
0.908,-0.7863335296059933,5901.847263741111
0.912,-0.6964424309649256,5911.006600100972
0.916,-0.5782700429820414,5903.519245615311
0.92,-0.4485445487123285,5897.689681993508
0.924,-0.3258500647557241,5896.70552511704
0.928,-0.2280994669170997,5895.9317090266095
0.932,-0.16958651242044406,5897.477024772476
0.936,-0.15804620411679154,5893.921424143464
0.94,-0.19265290289118564,5902.9514009722
0.944,-0.2639234592941517,5900.654494321775
0.948,-0.35597418331555575,5895.455563170836
0.952,-0.450670587701985,5908.242073799217
0.956,-0.5322301526891008,5902.183913015033
0.96,-0.5904412366257447,5891.526645307583
0.964,-0.6213447041424629,5899.20988775575
0.968,-0.6256361929115037,5902.276457643143
0.972,-0.6062223132263861,5892.896409151072
0.976,-0.5665278222225563,5888.345213898982
0.98,-0.51026199297399,5907.32768239393
0.984,-0.4421392545664444,5898.777616829808
0.988,-0.36837901649226373,5899.118504732423
0.992,-0.2960433816851668,5893.241321122829
0.996,-0.2312441018739652,5894.357251599707
1.0,-0.17733006324311995,5901.303208900379
1.004,-0.13442949434506116,5901.244145608321
1.008,-0.10078223749112529,5906.858072854122
1.012,-0.0748873572850048,5901.373868857162
1.016,-0.05685003875082848,5892.001662112814
1.02,-0.04803126851539541,5902.646813430274
1.024,-0.049514184427007064,5895.572772064795
1.028,-0.060687964971686784,5903.56045076699
1.032,-0.0788346543140332,5902.698340324439
1.036,-0.09965140856590063,5903.617761984188
1.04,-0.11811951410795991,5897.487071328696
1.044,-0.1292899154431932,5896.478436361826
1.048,-0.12896634169941731,5899.957917626501
1.052,-0.11448881708024534,5894.693521611972
1.056,-0.08571047482687547,5898.863947253374
1.06,-0.04589650899652701,5896.092606265253
1.064,-0.0019318594832738352,5888.114576325695
1.068,0.03670201941833916,5914.708832122999
1.072,0.06015919488392984,5909.202428797293
1.076,0.06104102166354793,5896.47673545757
1.08,0.03687761714390985,5904.579921796099
1.084,-0.008666962700582028,5889.693737267973
1.088,-0.06661279177694625,5894.823771644793
1.092,-0.12554410350752504,5897.329579075857
1.096,-0.1755039479797763,5905.2962531968415
1.1,-0.2111524447118121,5906.618173100354
1.104,-0.23272777134742392,5900.310863477023
1.108,-0.2445267765409706,5900.945357537175
1.112,-0.25200956782673867,5898.3360186551845
1.116,-0.25929639821643846,5902.883437681047
1.12,-0.2681978111140971,5904.9477354235305
1.124,-0.27858211433439833,5898.780709819771
1.128,-0.2891288966223372,5899.856061178861
1.132,-0.29785243692647073,5904.918654992588
1.136,-0.30251508694615437,5901.296127328582
1.14,-0.30129274108494486,5900.087636549649
1.144,-0.29359193209531964,5897.632818390924
1.148,-0.28037341792207826,5906.578574551173
1.152,-0.26353490758817755,5900.253660748477
1.156,-0.24479111313954244,5897.94802109297
1.16,-0.2250629206985106,5907.8811778087465
1.164,-0.20499007626931032,5904.242769857642
1.168,-0.1861931963434996,5907.401850167448
1.172,-0.17214922534025498,5891.7841555581845
1.176,-0.1676320788682237,5901.918667608116
1.18,-0.17667702318760437,5892.783846033753
1.184,-0.2002090770847916,5910.945391113103
1.188,-0.23477487433716362,5891.174305136314
1.192,-0.2729631450676594,5899.547756867929
1.196,-0.304970265919908,5907.37294859611
1.2,-0.3204594256773603,5894.245811053945
1.204,-0.310457378455241,5899.629585540857
1.208,-0.26956555627715195,5902.764423593575
1.212,-0.19843256012051377,5894.418770291534
1.216,-0.10551727786651358,5898.94912652556
1.22,-0.006696248517761281,5903.372964191744
1.224,0.0780250926440111,5901.1809770369055
1.228,0.12992607873433773,5897.295088608512
1.232,0.1371546501194808,5899.706161992677
1.236,0.09836907398672909,5902.130175003147
1.24,0.023102217243047705,5893.033094883825
1.244,-0.07116718137305972,5898.18293063732
1.248,-0.1639776270585511,5897.708778135995
1.252,-0.23706578961299735,5905.493954683611
1.256,-0.2782713815564297,5905.700534398562
1.26,-0.28340697473858384,5901.251341116903
1.264,-0.255963308058391,5897.476034694303
1.268,-0.20494200136445848,5897.170262164526
1.272,-0.1415169122347279,5904.028039281611
1.276,-0.07567039419749912,5902.555472527491
1.28,-0.0141090372955327,5907.2482229330335
1.284,0.03976954584770773,5895.335578579322
1.288,0.08426272154451163,5900.111663883336
1.292,0.11755905412815419,5893.85532603576
1.296,0.13718711230603794,5898.795614557985
1.3,0.14102408543525277,5902.541442336794
1.304,0.12898259040641008,5909.536570687375
1.308,0.10421841769820114,5896.525917017807
1.312,0.07319432228444146,5891.356036844122
1.316,0.04448319794552538,5901.109043352685
1.32,0.026526765088908798,5912.461662102077
1.324,0.02490553142065157,5901.959643080995
1.328,0.04011619698649846,5899.222432130816
1.332,0.06700463027439088,5901.6502816986
1.336,0.09639490267715174,5894.552243705632
1.34,0.11829117089200603,5891.090674471037
1.344,0.12515939573023527,5906.613763130179
1.348,0.11383028403932688,5900.775044053293
1.352,0.08540029622000066,5896.737528230174
1.356,0.043599793049756086,5889.106685657073
1.36,-0.007203575657637608,5900.400123320024
1.364,-0.06332356083558578,5895.3008624915
1.368,-0.12212230150564474,5892.225052058898
1.372,-0.18183706260065166,5896.652352593071
1.376,-0.24131304582092095,5904.065212563979
1.38,-0.29963880784898894,5901.37103194757
1.384,-0.3554016075967297,5906.667184802259
1.388,-0.40556771411081705,5902.194067898656
1.392,-0.4445447505318074,5901.096756435212
1.396,-0.4641663285073179,5891.379881550161
1.4,-0.4549808153727026,5903.166880739174
1.404,-0.4087405656695353,5906.4045132175925
1.408,-0.3216340895730988,5905.198935681679
1.412,-0.19737951991757102,5893.657962899358
1.416,-0.04886827459409331,5906.390806659062
1.42,0.10273296711960114,5899.880574817857
1.424,0.2313803453810405,5911.149234726639
1.428,0.31081516178355284,5896.924697103041
1.432,0.31908236669879014,5903.5377383449
1.436,0.24238343602598264,5890.44993122069
1.44,0.07873867410687022,5893.259855017244
1.444,-0.15790390382363245,5905.48427883087
1.448,-0.4334285772601595,5899.204436381301
1.452,-0.691038148244208,5894.987242349665
1.456,-0.8533578506486653,5903.055968861426
1.46,-0.8315822113883996,5891.9497334448215
1.464,-0.5419393643806287,5903.8303532054815
1.468,0.07331221143226756,5898.242679208191
1.472,1.0258334841532366,5901.584960921858
1.476,2.268782778275065,5897.660921170439
1.48,3.6977110097906354,5896.142075903162
1.484,5.16697456715852,5898.617391763826
1.488,6.518428703389716,5900.3853800660245
1.492,7.613987956891551,5906.594382676375
1.496,8.361921975457122,5898.317019813342
1.5,8.729819492687689,5893.177501183324
1.504,8.742808853763856,5904.451311249025
1.508,8.470400421707174,5902.574506037033
1.512,8.007433373747,5897.346183503731
1.516,7.454313455193774,5903.860671710835
1.52,6.900197226695525,5901.78670479254
1.524,6.411190648790457,5901.094503918464
1.528,6.024477227482892,5898.408946573505
1.532,5.748365868904726,5906.95331679971
1.536,5.567310154793515,5905.180417100788
1.54,5.4501440278805005,5908.007393974479
1.544,5.359459546689811,5900.902627662963
1.548,5.260367763507037,5897.079098174113
1.552,5.127470099056371,5898.86382399898
1.556,4.949161637105052,5900.443544229937
1.56,4.728456338192888,5896.026608762237
1.564,4.480067084104458,5897.802005742301
1.568,4.224682893854806,5901.676456805131
1.572,3.982485768934042,5893.746864636777
1.576,3.7681180774542673,5893.505055600656
1.58,3.5884437591900746,5908.607033421951
1.584,3.4430539477006894,5893.597061265505
1.588,3.3263387722471425,5896.892821166827
1.592,3.2296811374433356,5906.64301403132
1.596,3.1428990394584178,5900.936666009344
1.6,3.0549893348842714,5898.730639557415
1.604,2.9549264614809334,5902.454235773058
1.608,2.833230920025787,5906.107528505568
1.612,2.684260065074908,5904.477745199633
1.616,2.5083595278841773,5897.160037297331
1.62,2.3127281967434836,5906.650068967538
1.624,2.1102322111873875,5899.616252961828
1.628,1.9163610042287353,5886.683620675726
1.632,1.745512595824805,5902.02135039336
1.636,1.6080122635117442,5904.347707294378
1.64,1.508613391673056,5901.374294344012
1.644,1.4464463921250907,5902.743172587041
1.648,1.4159942203351596,5896.137158936943
1.652,1.4085746672621395,5899.208410838735
1.656,1.4138766411701196,5901.415133621849
1.66,1.4213830461196026,5899.75641955156
1.664,1.4217991889462362,5905.038529084306
1.668,1.4084953290826137,5903.35636139655
1.672,1.3785485408760068,5896.608467463703
1.676,1.332796327330525,5897.993473227671
1.68,1.2746894819331585,5901.023816517809
1.684,1.2083974522925285,5899.509960811795
1.688,1.137142592332516,5901.95764697253
1.692,1.0627620476600939,5901.846703757587
1.696,0.9868361317670921,5905.895338553624
1.7,0.9126436221647181,5896.571706030387
1.704,0.8464440454814999,5885.85141343127
1.708,0.7967941068945988,5893.892758946407
1.712,0.7717265784861812,5892.914697938404
1.716,0.7749348735171708,5893.098470268384
1.72,0.8028071528095871,5886.983536241103
1.724,0.8438573794001801,5889.227460829129
1.728,0.8810118046748038,5883.849274372119
1.732,0.895939280915015,5877.659584447268
1.736,0.8737980741016675,5877.554317837255
1.74,0.8067787686887279,5877.861100316502
1.744,0.6956108403133616,5868.156467535223
1.748,0.5492031387000911,5875.402024596718
1.752,0.38301345189226044,5875.259999917648
1.756,0.2164697192455798,5871.181316807813
1.76,0.06956657498819735,5873.898519808118
1.764,-0.0408902012092691,5885.082405781952
1.768,-0.10451841871174161,5869.6908492765415
1.772,-0.1192326086643227,5858.5731988650405
1.776,-0.09121292928210642,5867.996860893374
1.78,-0.03285444025879512,5866.3314905597
1.784,0.04073249140753243,5865.051763598087
1.788,0.11542110715527366,5859.509725038122
1.792,0.18068150670970284,5865.101743957289
1.796,0.23054510323871616,5866.752733557305
1.8,0.2631977704054409,5867.385349236697
1.804,0.27983464072459013,5862.560957499534
