时间(s),电压(V),幅值(高频80K)
0.0,0.8778643480869566,5897.235523587769
0.004,0.3674371404112244,5904.370441008375
0.008,-0.08234273507204179,5897.94725205785
0.012,-0.4227366551499182,5897.483224772
0.016,-0.6316413751203733,5894.370356075275
0.02,-0.7151641127605788,5905.4016196425855
0.024,-0.7002262078649463,5897.097440183815
0.028,-0.6220007220133282,5891.139213060301
0.032,-0.5117243783412401,5900.78151275417
0.036,-0.38946527733355435,5902.77808332412
0.04,-0.26347165462990574,5896.518454006889
0.044,-0.134631514012145,5886.639025202367
0.048,-0.002951481664044944,5899.337230974022
0.052,0.12696358644401098,5901.564867037049
0.056,0.24354236205956684,5898.265230566875
0.06,0.33001464831515487,5897.579285640062
0.064,0.3698999495198808,5894.492004902597
0.068,0.35393377422595457,5905.775417932043
0.072,0.2849359037931201,5900.391760873026
0.076,0.1780212527896518,5893.249830149112
0.08,0.05628521361589236,5893.5345237359015
0.084,-0.05565424481263343,5901.103164754261
0.088,-0.13780869593201886,5893.111946844349
0.092,-0.17936355517127026,5902.33133084016
0.096,-0.18084534858487772,5895.426865520606
0.1,-0.1531120120613544,5899.411299737807
0.104,-0.11311797010805616,5896.857003491891
0.108,-0.07813988024999229,5901.627281320252
0.112,-0.061268577384380116,5895.763039569839
0.116,-0.06989846284406721,5904.258142770121
0.12,-0.10638137870503073,5891.710519753456
0.124,-0.16863923793983646,5898.660828190609
0.128,-0.24980049263199955,5902.588050390314
0.132,-0.33813753247611544,5895.167151309664
0.136,-0.41905901301357107,5898.923601711794
0.14,-0.4792532174647153,5901.417153178696
0.144,-0.5112316863887535,5884.741146677951
0.148,-0.5161412551112241,5901.721778097679
0.152,-0.5036250703975738,5896.767294797962
0.156,-0.4887095898814567,5898.96623696521
0.16,-0.48668425289982514,5889.407740538494
0.164,-0.5077297294099204,5896.763190052332
0.168,-0.5534066842716753,5900.605545626318
0.172,-0.616492623618946,5908.558685277928
0.176,-0.6840338929890345,5895.271101266343
0.18,-0.7418864654222824,5890.61723952687
0.184,-0.7786408138206768,5901.988230622015
0.188,-0.7877847828468446,5900.455246178931
0.192,-0.7682534872769254,5901.833789885136
0.196,-0.7240320262376382,5906.340576807932
0.2,-0.6630293551530518,5901.986527263086
0.204,-0.5949477977041112,5913.771931579362
0.208,-0.5282720559123582,5898.1481572329085
0.212,-0.46749795864329824,5906.169716281308
0.216,-0.4120687657918405,5899.497909613688
0.22,-0.35755717010673327,5902.947763933289
0.224,-0.29821903617243034,5897.979498826641
0.228,-0.22945139255468464,5905.226723377629
0.232,-0.14927301635043513,5897.502735676068
0.236,-0.058899467480188775,5899.311603901322
0.24,0.03707866886122307,5899.724726279792
0.244,0.130597589973829,5895.496448405028
0.248,0.21024876579292412,5893.766388041709
0.252,0.2621984217366052,5884.954829335159
0.256,0.27248733700713335,5902.667059119953
0.26,0.230636886530472,5896.548502099964
0.264,0.1334669112413486,5899.486943792443
0.268,-0.01248222972206461,5905.367339476633
0.272,-0.19106772338616843,5893.141777993708
0.276,-0.3792333552334576,5908.905772702691
0.28,-0.5513083935161863,5893.760564079099
0.284,-0.6837370444360965,5905.742604702901
0.288,-0.7594941168484274,5913.102432686799
0.292,-0.7716905640807383,5904.985198082979
0.296,-0.7254993291802568,5897.374310279796
0.3,-0.6372133647074779,5898.6945741812015
0.304,-0.5299380214424102,5901.209432547409
0.308,-0.4270352779787037,5899.331082034124
0.312,-0.34580016669089153,5894.749397682115
0.316,-0.29388853870436726,5896.314780238371
0.32,-0.2696358010142269,5895.928768575082
0.324,-0.2654159638268076,5893.996334485553
0.328,-0.271837402944128,5901.503838539483
0.332,-0.2807647521970786,5893.668714185658
0.336,-0.2865460620759885,5907.944716892673
0.34,-0.28598339109797905,5893.838653375238
0.344,-0.27762875898513667,5900.356088118295
0.348,-0.26060089224738764,5901.625480346768
0.352,-0.23332375238512307,5898.83644262084
0.356,-0.19308346175778843,5902.238914801616
0.36,-0.13705325756314282,5899.784234318232
0.364,-0.06443163907530208,5901.944025241199
0.368,0.02140776184816612,5899.421945668792
0.372,0.11177083816787303,5911.508923146756
0.376,0.19306468153401637,5900.337872531817
0.38,0.24911282815732053,5896.697801235327
0.384,0.26541702061923583,5906.842286757449
0.388,0.2344558641671149,5894.832537987018
0.392,0.15976575258136277,5904.710160480281
0.396,0.05625892088867659,5901.787470771505
0.4,-0.05408763903820509,5906.151146693912
0.404,-0.14938156380219159,5895.495084825611
0.408,-0.2144529522361137,5905.376793003758
0.412,-0.2442497206834828,5896.446864287017
0.416,-0.24328331026515468,5896.91121352628
0.42,-0.22233741767166534,5906.521361262355
0.424,-0.19452944788098672,5901.259722407584
0.428,-0.1724319241719528,5896.433060848438
0.432,-0.16667913113877925,5907.267870022167
0.436,-0.18524093833466218,5900.732518462139
0.44,-0.23227628970659353,5903.927780494497
0.444,-0.3063621769923247,5901.482143786484
0.448,-0.3992015417742357,5908.5508985609695
0.452,-0.4963986391667407,5902.995621324495
0.456,-0.5808637463078727,5898.44272906763
0.46,-0.637683138783446,5888.222148671676
0.464,-0.6583235560412847,5892.429245209444
0.468,-0.6423551070258777,5906.762691671922
0.472,-0.5960629397874063,5904.015470249407
0.476,-0.5288520038376071,5911.188160109898
0.48,-0.44956766135620846,5908.502828677503
0.484,-0.3648803418841782,5902.661977817886
0.488,-0.280434190897841,5897.776264888116
0.492,-0.20346963281217076,5899.934820052075
0.496,-0.14457185307871698,5902.099886894357
0.5,-0.1168081190398447,5899.615935623446
0.504,-0.13221731279535326,5903.2307081083545
0.508,-0.19709632440043,5903.424540353347
0.512,-0.30795192582878755,5896.195192904447
0.516,-0.44960189283485347,5895.977235207472
0.52,-0.5963580717288108,5889.92453541317
0.524,-0.7165585880092197,5904.743450680715
0.528,-0.7796778355660198,5893.647044994098
0.532,-0.7641761272098748,5902.096418266855
0.536,-0.6638502440736841,5893.213785390182
0.54,-0.49088316111046887,5904.442616360857
0.544,-0.2747410528326728,5889.125495781887
0.548,-0.05707863297255975,5900.231216509319
0.552,0.116499866513477,5894.802071013012
0.556,0.20649949338674864,5902.102733762583
0.56,0.18933439252206924,5897.468298796969
0.5640000000000001,0.06400777033396363,5899.659278939776
0.5680000000000001,-0.1468646615234403,5896.852580548584
0.5720000000000001,-0.4023108594110029,5900.292920807159
0.5760000000000001,-0.6528273011722304,5907.331948374807
0.58,-0.8518587215583353,5906.100182176366
0.584,-0.9661085201301101,5887.684155845817
0.588,-0.9823858172115669,5898.635738457946
0.592,-0.9093420517185709,5895.053017283786
0.596,-0.7735441406189485,5908.354836232419
0.6,-0.6109274674496291,5903.876964762174
0.604,-0.4562251448850244,5905.702654454869
0.608,-0.33373413641527877,5902.004941432073
0.612,-0.25230859076660833,5908.816110791046
0.616,-0.20587174268984965,5900.1384880029145
0.62,-0.1786540645584462,5912.0662507632005
0.624,-0.15274427632379386,5893.871058351081
0.628,-0.11508745779648775,5902.84059907082
0.632,-0.061769432537246385,5904.431463003422
0.636,0.0012911367375984606,5901.965110485075
0.64,0.060865612062977,5898.509495989043
0.644,0.10086189651139568,5906.789139696245
0.648,0.10696326084463924,5902.915676518714
0.652,0.06991556072494873,5898.613328948587
0.656,-0.013190435422595058,5904.364284970057
0.66,-0.13907870485849452,5893.907744439983
0.664,-0.29867261118099514,5889.488427080987
0.668,-0.47701318839280366,5903.404951885239
0.672,-0.653184685747527,5899.082364259002
0.676,-0.801355139160292,5901.533536798364
0.68,-0.8937814805263283,5888.23136904222
0.684,-0.9059771340596419,5897.317775227387
0.6880000000000001,-0.8234310843314805,5898.006376300697
0.6920000000000001,-0.6482149126410595,5900.521435968891
0.6960000000000001,-0.40291360664419734,5904.948252906546
0.7000000000000001,-0.1294036885311535,5897.819645424243
0.704,0.11850580723986866,5911.734010937358
0.708,0.28723475099366563,5905.814175763132
0.712,0.3370664078773047,5894.425790754893
0.716,0.2530664807953888,5898.498353834351
0.72,0.04963396297108277,5900.716942592835
0.724,-0.2330266399521891,5899.016466605467
0.728,-0.5393489474977969,5904.2144639293565
0.732,-0.8120766296942972,5903.11907468645
0.736,-1.0046851792020843,5904.6657348559065
0.74,-1.0893074297177865,5897.688081512266
0.744,-1.0591448660818388,5896.419837322999
0.748,-0.9262272775664891,5900.292312851716
0.752,-0.7162799388875325,5901.431644768028
0.756,-0.462547101718564,5900.492506147812
0.76,-0.2000743438802518,5904.427411090272
0.764,0.03865271358744459,5900.071661687903
0.768,0.2264824680313351,5905.883086160919
0.772,0.3430548548601992,5904.418201475482
0.776,0.375583978549702,5902.44716473931
0.78,0.31985736226380646,5891.987023641285
0.784,0.18204923192905573,5900.706394164035
0.788,-0.019225966147802424,5903.467868168369
0.792,-0.2526263330964749,5913.26263074753
0.796,-0.47784957684844603,5893.558893576186
0.8,-0.654020841557624,5902.493197676153
0.804,-0.7504018675171965,5907.03438026948
0.808,-0.7551293568206169,5904.217835557159
0.812,-0.6780514875438424,5903.724274228577
0.8160000000000001,-0.5463451678648823,5904.521689493519
0.8200000000000001,-0.39498510470269194,5892.060859488367
0.8240000000000001,-0.2563214625444063,5899.800490965488
0.8280000000000001,-0.15272142698471491,5894.311447983812
0.8320000000000001,-0.09390991259007973,5886.054227507422
0.836,-0.07821324471275411,5901.511603875371
0.84,-0.09588796988092846,5891.904738291547
0.844,-0.13306969794419704,5895.584050088957
0.848,-0.1756599351912867,5896.059101436277
0.852,-0.21282660469016595,5896.354803800653
0.856,-0.2394772589416471,5901.988669405214
0.86,-0.25672709629086604,5897.831918658742
0.864,-0.269947377688332,5895.456731211681
0.868,-0.2852957919178373,5895.383257629371
0.872,-0.30650672201636636,5897.052845743545
0.876,-0.33344230321317825,5899.776945111593
0.88,-0.3628916916696635,5898.603593640938
0.884,-0.3909935817059405,5896.539356302144
0.888,-0.41575042867484746,5891.245799982357
0.892,-0.4378557637254537,5902.935614897784
0.896,-0.4589971637439541,5892.580389005197
0.9,-0.4785759480816407,5897.4804816694905
0.904,-0.49106106127868765,5887.32000131388
0.908,-0.48594799614616696,5904.000180318264
0.912,-0.45084602691056125,5905.331317246132
0.916,-0.3766464413817059,5900.981469223311
0.92,-0.2627303174149627,5910.662284830081
0.924,-0.11991696047770202,5895.584812455629
0.928,0.030585058942667095,5893.006563342106
0.932,0.1625235488230463,5897.980614737815
0.936,0.25259746712609177,5907.098554501693
0.94,0.2879844548533268,5898.525643489169
0.944,0.27026386985537987,5899.187511619617
0.948,0.21406596974412903,5898.673582417435
0.952,0.14089867379598703,5892.815358047644
0.956,0.07057280537848305,5907.813198276471
0.96,0.013963423547826818,5903.7264504921695
0.964,-0.029275904744194364,5896.882011633403
0.968,-0.06672421650779917,5901.93707539405
0.972,-0.10522326198148366,5898.566875372729
0.976,-0.14360927118275604,5892.645963126358
0.98,-0.17016631307482416,5896.269676793081
0.984,-0.16589606226989578,5905.863938602964
0.988,-0.11182335228563094,5906.615454175794
0.992,0.0027591059182885984,5905.995008286741
0.996,0.17404423633677193,5899.527157775367
1.0,0.3815761197174262,5899.281166188162
1.004,0.5913052506992884,5901.892856234838
1.008,0.7635119438268981,5898.983555504295
1.012,0.8634899708148008,5896.226651112936
1.016,0.8714295824695891,5899.142268394414
1.02,0.7878098168892029,5900.106268441037
1.024,0.6322045711503315,5895.590385303334
1.028,0.43619106004230845,5899.568136150468
1.032,0.23360340518554926,5892.721991452667
1.036,0.05210403787997116,5894.060092609732
1.04,-0.09142498697818907,5894.898500011257
1.044,-0.19156082493567717,5890.324739195248
1.048,-0.2525945336089991,5902.218185020454
1.052,-0.28595351742114733,5895.05672555328
1.056,-0.3074189264979882,5912.416888175174
1.06,-0.333807827854275,5901.1603301069335
1.064,-0.37867111570373235,5894.613036659666
1.068,-0.4475141588291964,5904.781599677873
1.072,-0.5344208170067564,5893.6181584512415
1.076,-0.6222877019406565,5898.940686265116
1.08,-0.687396580949923,5901.0645896133465
1.084,-0.7069301580513763,5900.269213569339
1.088,-0.6668544416809836,5902.377224323597
1.092,-0.5674968276424497,5903.834939529491
1.096,-0.4246819070625014,5905.503670194997
1.1,-0.26558834640209866,5892.573837778244
1.104,-0.12049207885031542,5899.537165043619
1.108,-0.013368529574314458,5902.833135669284
1.112,0.04498047305155837,5898.397568725095
1.116,0.05850024111267683,5895.917766390209
1.12,0.041778785463896156,5901.4855260794975
1.124,0.012670762915719466,5896.693802357317
1.128,-0.014580925810506344,5906.054778687368
1.132,-0.03288713957550472,5902.499307115343
1.136,-0.04197106761110759,5904.3603744721095
1.14,-0.04557377738679611,5904.552171379168
1.144,-0.04830196214252235,5894.63536810087
1.148,-0.05360151205606966,5907.735174875941
1.152,-0.06321606799176466,5901.276461451716
1.156,-0.07770918408275275,5901.634880799785
1.16,-0.09740921129084408,5911.432128872442
1.164,-0.12318068848854798,5892.517168664556
1.168,-0.15657962024387131,5908.273952000313
1.172,-0.1992052956464529,5891.657630258205
1.176,-0.25138523789325307,5906.257241812134
1.18,-0.3107203444163129,5898.701691080675
1.184,-0.371284547715124,5897.251285301223
1.188,-0.424074561061507,5899.555381164065
1.192,-0.4586879193475124,5897.895077527458
1.196,-0.4656506225234733,5908.066786349628
1.2,-0.4386430182011086,5895.150901267685
1.204,-0.3759973004103311,5894.813873621901
1.208,-0.28112113837951613,5909.41868710325
1.212,-0.16190042292617554,5892.218577956417
1.216,-0.029434376422182326,5901.911047397503
1.22,0.10354834395497978,5898.033494819018
1.224,0.22438427485894374,5892.931736195804
1.228,0.32216419856192896,5895.08666061324
1.232,0.3893507955707891,5898.296558276164
1.236,0.4231146088605287,5904.546008723386
1.24,0.425799493968892,5895.773494868908
1.244,0.4038788824723279,5900.177746097032
1.248,0.3655368876654758,5898.02081344482
1.252,0.31803642664256077,5896.415351720722
1.256,0.2661864599968726,5896.124307897934
1.26,0.21230964769473618,5907.582024030348
1.264,0.1571346419208391,5903.521911862191
1.268,0.10074871817807807,5898.862757430515
1.272,0.042960152973500476,5895.144101135157
1.276,-0.0171453881547106,5894.374190576452
1.28,-0.0819867569443595,5897.535278142814
1.284,-0.15558165306601987,5897.600876296514
1.288,-0.2422089155493321,5905.388479511944
1.292,-0.3439432980923797,5904.666083966346
1.296,-0.4582767408836035,5903.854662999759
1.3,-0.5772170941960926,5898.858734804465
1.304,-0.6887039790266423,5885.734895222493
1.308,-0.7800298840107017,5896.537298469592
1.312,-0.8416715800979947,5903.9539445305545
1.316,-0.8695447084928204,5909.140735307769
1.32,-0.8647699276907543,5902.036445793691
1.324,-0.8316881240350757,5892.52541682618
1.328,-0.7755883799172331,5902.86762642175
1.332,-0.7011559925895646,5906.135438159967
1.336,-0.6119827237430707,5893.661383885327
1.34,-0.5111493879686252,5902.622221874037
1.344,-0.4025370012550635,5904.016000593176
1.348,-0.2919858146780402,5900.436045010267
1.352,-0.1872654346078783,5901.205857026751
1.356,-0.09654702515370966,5905.180901251135
1.36,-0.026187039507351528,5906.1398773333385
1.364,0.020951129025976505,5904.186212135854
1.368,0.045952960840895375,5899.6404453707055
1.372,0.05308596653460788,5906.443832808032
1.376,0.04811865232205013,5908.896792766381
1.38,0.03628042272261543,5906.068695265382
1.384,0.02067479697166029,5893.59175721542
1.388,0.001710068635831495,5897.251322242926
1.392,-0.02258287611142478,5891.589711855385
1.396,-0.055727776239807396,5889.442110713228
1.4,-0.10141066398937518,5897.720280749159
1.404,-0.16127784644907406,5899.29475454977
1.408,-0.23250423154677988,5891.7005585553
1.412,-0.3067579637247747,5895.606161320621
1.416,-0.37207926295817323,5899.893202967816
1.42,-0.41768512438541777,5910.455643507557
1.424,-0.43989619398204555,5900.499861579037
1.428,-0.4463640432832137,5896.388218966511
1.432,-0.45597967721780625,5894.197817050735
1.436,-0.49325015992329724,5898.369281001271
1.44,-0.5780021171473559,5902.016232644321
1.444,-0.713073318017345,5905.561363319517
1.448,-0.8736889013385106,5903.624524189296
1.452,-1.0025507911466665,5892.28781178503
1.456,-1.014194523774909,5909.151506244498
1.46,-0.810421740968916,5900.661694823892
1.464,-0.3053375989512572,5903.174981983629
1.468,0.5456601218181681,5904.125356674905
1.472,1.7220803302603398,5908.559758664791
1.476,3.1297295448338596,5895.7702195644615
1.48,4.613913445788733,5889.862126212096
1.484,5.993226534274674,5903.477479019707
1.488,7.103436457130241,5893.574721217244
1.492,7.83589070977694,5898.252081038561
1.496,8.157581109042424,5902.214166864999
1.5,8.108551433812659,5902.630840167467
1.504,7.781253049407378,5913.841610322877
1.508,7.291413504383769,5895.642046676649
1.512,6.750131662213651,5895.931409929812
1.516,6.243897350264985,5899.418497999365
1.52,5.825178767467202,5902.40599605222
1.524,5.5126640662113635,5898.908120341289
1.528,5.298128063158351,5908.230639387042
1.532,5.1565434391719,5905.849495061855
1.536,5.05681466383585,5896.815433275643
1.54,4.971204222081415,5904.867567100607
1.544,4.8817482610576475,5895.655835853555
1.548,4.782371217134234,5904.086951066281
1.552,4.67655440585792,5894.416814191801
1.556,4.5719371488813,5907.311770107356
1.56,4.474233241180682,5896.245011586013
1.564,4.382785954990789,5891.294984713917
1.568,4.289196826796633,5898.799573104814
1.572,4.179310919448437,5906.4349231037695
1.576,4.037800361035465,5897.158146415928
1.58,3.8538433075477156,5897.107302378094
1.584,3.6260711788645463,5900.057616357561
1.588,3.365149096287785,5907.374465079276
1.592,3.0929696773246516,5902.096211535289
1.596,2.838183176194485,5901.693186182359
1.6,2.628687873097369,5893.021834996156
1.604,2.483028903191706,5905.206020221041
1.608,2.403860614971989,5900.122754174812
1.612,2.3764973532363363,5903.2110336139685
1.616,2.373706064018335,5899.03699159818
1.62,2.365196311466323,5906.202582316568
1.624,2.3280980908163156,5896.683356887926
1.628,2.254123659717305,5902.6748990764845
1.632,2.15048616028266,5899.058995040316
1.636,2.0344386108016077,5906.002999008382
1.64,1.9240854288851887,5897.384222233235
1.644,1.8295742148092118,5897.015704106244
1.648,1.7484807411248062,5908.420909179066
1.652,1.667448882563753,5891.208899710429
1.656,1.5695282737668328,5897.259318148716
1.66,1.444083221030491,5903.856216839321
1.664,1.2946926926013063,5899.099740449644
1.668,1.1409205284140003,5895.338715906828
1.672,1.0124590677739158,5898.742953859482
1.676,0.9379890968934299,5893.395680873743
1.68,0.9338074484868106,5899.990294795542
1.684,0.9970382198784615,5899.941903452203
1.688,1.1057657608177023,5902.390464754334
1.692,1.2256873856177606,5894.656730383355
1.696,1.3207831481097319,5897.956385883692
1.7,1.3641422556097804,5887.545881308898
1.704,1.345097033433902,5889.600638303854
1.708,1.2706184917974943,5891.895873952139
1.712,1.1614706158837176,5885.245602382003
1.716,1.0452248475005106,5885.530795753527
1.72,0.9484094674789667,5884.87038480799
1.724,0.8896066508359785,5883.916328521387
1.728,0.8748794869446685,5874.526437377164
1.732,0.8964265959024484,5876.825895007686
1.736,0.9346699552858467,5881.345955586645
1.74,0.963294299177407,5874.132699936018
1.744,0.9562496114434232,5874.262216470461
1.748,0.8952390427518082,5868.593823432181
1.752,0.7756267233614914,5870.437385038043
1.756,0.6084779196308876,5876.590590427573
1.76,0.41738474731446795,5864.975341629548
1.764,0.23090125307583945,5871.327345558773
1.768,0.07357787143591436,5866.452806689512
1.772,-0.040819639691594634,5857.967590185156
1.776,-0.11167441904503128,5868.791693304182
1.78,-0.14941344273019286,5859.693127577224
1.784,-0.17035555779489953,5853.924628251036
1.788,-0.19020120253230077,5868.818767281426
1.792,-0.21779187374818548,5849.485825459732
1.796,-0.25106732265066795,5857.487059920657
1.8,-0.27700905460449415,5869.625305269438
1.804,-0.27594220644173034,5857.849075674623
1.808,-0.2286686353386804,5856.953261755651
