时间(s),电压(V),幅值(高频80K)
0.0,-0.19110285818914166,5899.809555217306
0.004,-0.09720101371485441,5905.38460710579
0.008,-0.012824856665741383,5907.309835937794
0.012,0.053160840793985926,5901.658691171867
0.016,0.0950149151829689,5891.691800789479
0.02,0.11054750172366386,5896.572218194145
0.024,0.10132348383476018,5897.24391571922
0.028,0.07280127891385207,5903.112045455871
0.032,0.0337739778946175,5892.906470371275
0.036,-0.005501823019010717,5915.255702880201
0.04,-0.03607324139321859,5897.327132168164
0.044,-0.05259341942974228,5897.496763446617
0.048,-0.053986189813908986,5908.030903631249
0.052,-0.04240623485437433,5901.795946839147
0.056,-0.021404464824570396,5902.027402511746
0.06,0.0055706676861619914,5897.966849428175
0.064,0.03560900046058228,5902.47075300457
0.068,0.06568744532533899,5899.360442523791
0.072,0.09159807477221468,5896.5768485661165
0.076,0.10740842438570157,5905.178964153967
0.08,0.10610267512328483,5905.504359041345
0.084,0.08136237876086529,5903.435787868004
0.088,0.02973773591701171,5898.075394957173
0.092,-0.04783509295534493,5900.286435334556
0.096,-0.1457562158865557,5902.990500693076
0.1,-0.2543873547011698,5904.377092849077
0.104,-0.36084061131038314,5894.3510425705645
0.108,-0.4498827122451099,5896.093284366181
0.112,-0.5058625539579789,5894.2007544561175
0.116,-0.5163203135515736,5899.964801904116
0.12,-0.4763090325457612,5910.582967356495
0.124,-0.3910969208487314,5890.39691107891
0.128,-0.2754397826333588,5907.509714221677
0.132,-0.14968380313300095,5891.8633092035325
0.136,-0.034659077567306025,5898.350656749707
0.14,0.05266255834622598,5901.416224212356
0.144,0.10183567791788113,5900.169716590475
0.148,0.10982201566220358,5904.815871469718
0.152,0.08023420280112138,5894.702331622345
0.156,0.02139693884392715,5904.193048719387
0.16,-0.05592507756200716,5907.76100337054
0.164,-0.14031860549292038,5897.778866167209
0.168,-0.22082871783767305,5905.978871337391
0.172,-0.2878394591041498,5896.993641957508
0.176,-0.33429713758585505,5896.917194316453
0.18,-0.3573128358473961,5898.910372325573
0.184,-0.3594651696217973,5900.4750077881645
0.188,-0.348841815450199,5900.906192992197
0.192,-0.33728147766808725,5908.771919818228
0.196,-0.3370831931996332,5901.202959209981
0.2,-0.35711637180818323,5912.339662928132
0.204,-0.3996110009584728,5902.1481610436
0.208,-0.4588836513596744,5899.179570911862
0.212,-0.5226336761674331,5900.624299685944
0.216,-0.575300023326641,5897.327279581109
0.22,-0.6020474932480122,5899.937631165561
0.224,-0.5919774738674031,5908.262713568702
0.228,-0.5399684998268771,5896.767161155378
0.232,-0.447289061216437,5893.463699680588
0.236,-0.3212833032486037,5896.880915234696
0.24,-0.17432213567176522,5892.464323839182
0.244,-0.022220243743897753,5901.347001476822
0.248,0.11770450898482532,5895.143120803461
0.252,0.22891142889088098,5893.971460331403
0.256,0.29818904299776366,5899.789170285675
0.26,0.31804919230189654,5903.881494899433
0.264,0.2882747154890365,5898.373017645473
0.268,0.21603354348227008,5901.158517846461
0.272,0.11437344683550259,5895.385057598498
0.276,-0.00046238207344686584,5900.623323980163
0.28,-0.11195840038348977,5905.393903090889
0.284,-0.20571932761464143,5900.044841989534
0.288,-0.2712363143703038,5897.269702882772
0.292,-0.30324832061329693,5903.363422247755
0.296,-0.3026209417055307,5900.795180413328
0.3,-0.27635919858211727,5894.99097472486
0.304,-0.2364640727288333,5897.344324247156
0.308,-0.19768427580188852,5897.862870397607
0.312,-0.17461865191520903,5899.359909814797
0.316,-0.1788960619888325,5886.535969132562
0.32,-0.21703396675307568,5905.27334996969
0.324,-0.28917116637360535,5901.020070825525
0.328,-0.38868850228892604,5899.884117051163
0.332,-0.5029089226545088,5904.10969470304
0.336,-0.6150939659074249,5907.565779389715
0.34,-0.7074738157879795,5895.71957058828
0.344,-0.7645108910548358,5902.274182702521
0.348,-0.7756089688016811,5902.804761268316
0.352,-0.7368926524601965,5891.338664493889
0.356,-0.6519140589416959,5901.194775308503
0.36,-0.5311148335649657,5911.727805182961
0.364,-0.38999627862232333,5893.193819436526
0.368,-0.2463569904011915,5893.962315187328
0.372,-0.11727790608676271,5904.632642213932
0.376,-0.01648933134767168,5891.546375794852
0.38,0.04747795844023246,5898.995015567582
0.384,0.07208920801237804,5906.118153207721
0.388,0.06036376007980912,5905.684030118425
0.392,0.019285590607186168,5898.408067382099
0.396,-0.04238810579679439,5897.504360385165
0.4,-0.1160884542877396,5906.028446084379
0.404,-0.194486806264079,5898.81383447294
0.408,-0.2714771444399855,5907.550562716753
0.412,-0.341506345369593,5900.176515727587
0.416,-0.3989655752958019,5900.329343613779
0.42,-0.4382251554249236,5897.462003670971
0.424,-0.4544574708173029,5900.852581491445
0.428,-0.4449018438377448,5897.7407484091245
0.432,-0.40995659505906534,5897.534600885667
0.436,-0.35358259751046106,5899.544591919194
0.44,-0.28284698852366524,5889.117134088456
0.444,-0.20677566504773687,5897.525471891224
0.448,-0.13484527238182864,5898.962448247368
0.452,-0.07541970025027687,5901.632655149669
0.456,-0.03439348052036236,5895.671836220984
0.46,-0.014351437478518508,5902.638191075813
0.464,-0.01450921677745771,5907.325974483735
0.468,-0.03140520905125434,5906.230663009028
0.472,-0.05998478644837815,5886.407638768405
0.476,-0.09464720875557331,5899.835137738058
0.48,-0.12998032789732358,5898.669479525069
0.484,-0.16110530219425692,5903.119823878329
0.488,-0.18376022693103203,5900.61867183452
0.492,-0.1944403245137788,5900.462903447607
0.496,-0.19092355068604527,5899.97862140896
0.5,-0.17323880315839224,5894.168433122165
0.504,-0.1446639316304318,5894.530200986726
0.508,-0.11196755345828324,5900.009604889626
0.512,-0.08425022761644686,5898.391395772493
0.516,-0.07048012519708037,5904.971656847883
0.52,-0.07660489759449178,5909.48867759745
0.524,-0.10333628501087234,5896.400575622797
0.528,-0.14535544484238974,5900.789314152152
0.532,-0.19222246490265693,5894.880504838223
0.536,-0.23091455341104278,5902.367440351721
0.54,-0.2495033319763102,5898.595911522809
0.544,-0.24097457830940955,5900.727743506292
0.548,-0.2059496392056334,5904.564915240137
0.552,-0.1533404889739288,5902.7745239935775
0.556,-0.09856955432782247,5901.236103694831
0.56,-0.059631940776690116,5898.741007073782
0.5640000000000001,-0.05186425681988428,5885.706855213208
0.5680000000000001,-0.08281217020986444,5903.353785679754
0.5720000000000001,-0.1490055308216049,5901.682856129369
0.5760000000000001,-0.2363264778029082,5905.703897231996
0.58,-0.32445415896927715,5903.207903514423
0.584,-0.3939123237543309,5894.579917320166
0.588,-0.4327659236919325,5892.435231035969
0.592,-0.44002828169565744,5891.215548846645
0.596,-0.42440688074506877,5899.746209933719
0.6,-0.3992943652810121,5894.991179684587
0.604,-0.37661924077480224,5901.31188052083
0.608,-0.3623621574271872,5903.198016924739
0.612,-0.355290654397615,5898.201369498998
0.616,-0.3487337615342486,5902.97728444525
0.62,-0.33405037370772156,5893.3393370594495
0.624,-0.3042382902780988,5895.602735757147
0.628,-0.2565845366696599,5905.691224260978
0.632,-0.19385374732620306,5891.445252454213
0.636,-0.12393275267865274,5903.542764052731
0.64,-0.058066766406089244,5899.898132034573
0.644,-0.007973947616801995,5903.257980680158
0.648,0.017638909718698158,5901.184378262205
0.652,0.016264839093433948,5899.980262848437
0.656,-0.0067505139874315155,5896.172385290097
0.66,-0.03923951810245668,5904.425760473507
0.664,-0.06619818907119022,5895.326233400027
0.668,-0.07557003438793204,5907.898405177471
0.672,-0.06353758272743747,5900.802531855862
0.676,-0.036963527975490414,5897.429687889523
0.68,-0.011697429884135406,5904.686771389881
0.684,-0.00713829645367548,5900.777322755655
0.6880000000000001,-0.03895989667751287,5907.633350493281
0.6920000000000001,-0.11262172716346683,5902.843178737218
0.6960000000000001,-0.21996193631979427,5894.795452785889
0.7000000000000001,-0.3400592686797951,5906.917062627446
0.704,-0.4441713329062512,5888.342717409088
0.708,-0.5033195146023579,5900.215864470025
0.712,-0.49628692689972564,5895.566817510223
0.716,-0.41571841946469434,5900.020374047801
0.72,-0.2707402407864925,5896.039461630695
0.724,-0.08564387606506271,5903.730194313084
0.728,0.1048946910152403,5895.709067789358
0.732,0.2630599358880151,5901.534535985875
0.736,0.3562271882093038,5897.750594490984
0.74,0.3646429807229835,5892.334167777492
0.744,0.28660725679381255,5897.057165125109
0.748,0.13962740342240565,5898.79272709433
0.752,-0.04322120393958607,5904.709788826241
0.756,-0.22125112179664488,5902.940076605676
0.76,-0.35645589252703047,5904.401128052999
0.764,-0.42310313409477596,5899.092442998282
0.768,-0.4136492639809071,5895.469853365475
0.772,-0.3392436100818588,5910.89446041201
0.776,-0.22499042742903924,5897.221599747983
0.78,-0.10185442802436386,5894.764371200947
0.784,0.0020392706696176644,5902.113619871847
0.788,0.06808956199704856,5901.813375353964
0.792,0.09018536639105776,5896.3289605888285
0.796,0.07364481165943333,5896.199004224181
0.8,0.031168948489754014,5900.0239011827
0.804,-0.022418477538060984,5889.364939790024
0.808,-0.07486422717153463,5895.990929238633
0.812,-0.11920690869104472,5898.739308834595
0.8160000000000001,-0.15376076111809572,5908.2589372492885
0.8200000000000001,-0.17966331057397292,5903.094802652588
0.8240000000000001,-0.19755271764693066,5893.012696568969
0.8280000000000001,-0.2055259532719478,5918.63428085969
0.8320000000000001,-0.19970130303098474,5898.123521043585
0.836,-0.17686222190466544,5890.989366025152
0.84,-0.1372261657842535,5897.58611522633
0.844,-0.08549052828107362,5901.35954850339
0.848,-0.029655080165682433,5902.234265134784
0.852,0.021539020962156635,5896.652929954277
0.856,0.06121118548626523,5907.39944002239
0.86,0.08595383437761746,5905.052089332511
0.864,0.0961501759183394,5896.671670215244
0.868,0.0953278517528741,5901.2198205952345
0.872,0.0890069708427764,5899.654102629486
0.876,0.08324651085619762,5906.936565228391
0.88,0.08301441546964537,5905.335706854748
0.884,0.09076488050912691,5906.17913068177
0.888,0.10575266916607956,5900.207566004763
0.892,0.12434106006074444,5907.431863646767
0.896,0.1411265003333676,5899.675854160918
0.9,0.15046830623783838,5891.473400525864
0.904,0.14796734711381446,5896.998801388326
0.908,0.131437076751592,5896.12773895794
0.912,0.10105570580160125,5905.7599244762905
0.916,0.058780051989599603,5898.651184552231
0.92,0.007446634224577647,5904.708837818514
0.924,-0.05001203303283373,5902.342512758271
0.928,-0.11098275746658585,5895.781612063119
0.932,-0.17309819861643494,5905.28505989926
0.936,-0.23373023422607977,5895.271473336054
0.94,-0.2893280398170336,5898.8890350094725
0.944,-0.3349263588626572,5893.442281522766
0.948,-0.36401343047256335,5898.765117221791
0.952,-0.3689063729869088,5899.490637859794
0.956,-0.3418926925318562,5901.468666257274
0.96,-0.2772968957435461,5901.03100224414
0.964,-0.1741107350977944,5909.485093613973
0.968,-0.038270296502603524,5903.402523993241
0.972,0.11646471800204207,5899.312886897498
0.976,0.2697996632249591,5900.864080057608
0.98,0.3986134253388348,5903.7454988646
0.984,0.4824875047365183,5899.495125121209
0.988,0.5093916366050766,5898.119126044736
0.992,0.4792860248029234,5891.621223508364
0.996,0.4039735091499327,5899.36797344248
1.0,0.3030820420937025,5902.273002570709
1.004,0.19771857158412967,5897.134704363041
1.008,0.10424365044627994,5904.210813809335
1.012,0.030376050994788736,5899.343575133705
1.016,-0.025264513932315765,5906.318535681774
1.02,-0.07036884448587058,5897.318647833309
1.024,-0.11417293033535286,5905.028644160445
1.028,-0.16266335066229692,5904.618265359173
1.032,-0.21571710731496405,5893.43987574406
1.036,-0.2673222651477622,5898.550028785702
1.04,-0.30868277173146746,5900.654655167268
1.044,-0.3328157854228168,5902.778648307237
1.048,-0.3387043739588108,5891.621769398495
1.052,-0.33323560132729774,5900.302951485452
1.056,-0.32994321590995046,5897.493861768873
1.06,-0.3448614099304613,5907.599425525064
1.064,-0.39109405555343574,5902.541995561762
1.068,-0.4742402191150532,5898.1672038534525
1.072,-0.5902615721000829,5903.625506354716
1.076,-0.7262201355620461,5897.893198984197
1.08,-0.8632937440577059,5898.5054326764575
1.084,-0.980883473715283,5901.899593844868
1.088,-1.0604678994914065,5900.860619379793
1.092,-1.0882439921615483,5899.261818968879
1.096,-1.0564133505228275,5901.487775761254
1.1,-0.9636400785220253,5905.810821947907
1.104,-0.8152380518698351,5903.121509265045
1.108,-0.6231483160326972,5900.466142202634
1.112,-0.4052321275854759,5892.630278735211
1.116,-0.18330834577775437,5897.7595861041045
1.12,0.02011754841067421,5894.927047945153
1.124,0.185674366449229,5904.922834712472
1.128,0.3003172794279779,5906.847682434477
1.132,0.3590737738073231,5904.411593330127
1.136,0.365242532015839,5902.787589316385
1.14,0.3292970092602887,5898.824979931297
1.144,0.26668559455039514,5899.288032447882
1.148,0.194738315384427,5899.207515830004
1.152,0.12915374394366758,5893.84313477456
1.156,0.08078819667613467,5897.009909550974
1.16,0.05354287877082305,5898.984397180276
1.164,0.04407167186408405,5899.572060056834
1.168,0.04366153983683544,5895.504586107809
1.172,0.04174341397715153,5894.763008203302
1.176,0.029494891036772834,5897.921556846143
1.18,0.0019110925432678895,5897.336488473376
1.184,-0.04216950263476517,5908.952675247287
1.188,-0.10130534378993576,5908.813647281506
1.192,-0.17274363435828294,5905.483856945252
1.196,-0.25293803267827153,5908.228899035831
1.2,-0.3371244833711892,5896.056462869959
1.204,-0.41844785343995805,5901.959138426275
1.208,-0.48762552192456415,5899.610871238118
1.212,-0.5340725846149831,5902.9308470003125
1.216,-0.5486240485227936,5894.715467808444
1.22,-0.526915200534842,5893.204510913933
1.224,-0.47186814352087797,5901.135779616712
1.228,-0.3940527320778878,5898.136841778199
1.232,-0.3097275735571465,5899.546064397296
1.236,-0.237308122964958,5899.6339395134455
1.24,-0.1932764124269247,5891.459857849277
1.244,-0.1884157312028381,5902.062510863788
1.248,-0.22522817134570297,5896.86519329435
1.252,-0.2973216421364448,5906.548393262595
1.256,-0.3910261670823502,5904.069498786629
1.26,-0.4887295953097706,5902.580468699369
1.264,-0.5729227550516411,5901.569357200925
1.268,-0.6298081464581161,5893.161024774218
1.272,-0.6514843999922572,5903.539094347502
1.276,-0.6362649384603187,5892.808861779065
1.28,-0.587523224571328,5896.8880127700095
1.284,-0.5120703921974596,5897.290381403684
1.288,-0.41896384068398806,5904.202882650925
1.292,-0.31891111744389977,5898.770100580299
1.296,-0.22377926843914187,5894.214406003722
1.3,-0.14572136097298696,5905.475895946154
1.304,-0.09587690153803803,5896.949501118831
1.308,-0.08281688338606547,5894.2506914151545
1.312,-0.11074234272405103,5901.631807587271
1.316,-0.17754430233278978,5903.464498488323
1.32,-0.27351846223990744,5903.0977118066685
1.324,-0.38202490564507985,5909.912163888484
1.328,-0.4827667410874529,5904.313296577188
1.332,-0.5568929964198459,5895.636800721941
1.336,-0.592042813405092,5902.2421452962535
1.34,-0.5855400946589355,5888.6142218227
1.344,-0.5448538251194797,5910.542855309912
1.348,-0.48536115460926466,5903.244297579243
1.352,-0.42610601859134206,5899.560409509196
1.356,-0.384739959269807,5894.755486526238
1.36,-0.3730827439275893,5894.236153785148
1.364,-0.39455649511123797,5894.943088834945
1.368,-0.44417867914641007,5903.767670659865
1.372,-0.5110292983565395,5898.2669105273135
1.376,-0.5822458071988912,5899.915573854095
1.38,-0.646887914414681,5891.713000200188
1.384,-0.6979733742771419,5903.847175155771
1.388,-0.7319717838308406,5895.368808270315
1.392,-0.7465987536174647,5902.836259485443
1.396,-0.7387086557129126,5891.815756950065
1.4,-0.7037163578895409,5904.648711162151
1.404,-0.6368082621694025,5897.283152088205
1.408,-0.5352414542876871,5898.69712366917
1.412,-0.4006765020743321,5907.773867662274
1.416,-0.2405645462705924,5899.407412861465
1.42,-0.06795126703769623,5893.989387749001
1.424,0.10037203471900281,5903.857222460675
1.428,0.24682343319085465,5904.441909464948
1.432,0.3561850565361074,5896.150816436253
1.436,0.4181026719197822,5901.976378145602
1.44,0.42840689655291336,5895.012504540972
1.444,0.38913496750156945,5890.030690628551
1.448,0.30755291566182813,5900.561725720174
1.452,0.19483713757006804,5907.8575482147735
1.456,0.06503385795054918,5904.3260410207495
1.46,-0.06567886801214082,5898.785095544909
1.464,-0.18005823833739523,5906.230313458886
1.468,-0.2618935452720573,5900.082059974172
1.472,-0.2991900138707191,5893.930604382461
1.476,-0.28753308674970507,5900.263765882667
1.48,-0.23208108729198557,5901.65084287659
1.484,-0.14686252931685312,5899.2135176611855
1.488,-0.051154139728561525,5898.1499423250825
1.492,0.03590009104008619,5892.431616314649
1.496,0.10029773474360802,5902.400688717982
1.5,0.13565939935906035,5910.409633322268
1.504,0.14216102932383465,5901.812507860952
1.508,0.12276212542215738,5893.982443535984
1.512,0.07916181464585141,5899.157713525598
1.516,0.010234506913811057,5896.227693086674
1.52,-0.08553474752177793,5904.4434769300005
1.524,-0.20419748058333712,5898.12478516865
1.528,-0.3293976418995571,5898.711126191927
1.532,-0.42721396770574266,5902.414737923168
1.536,-0.4452129709828447,5901.766914376743
1.54,-0.31739698699597996,5895.022916525397
1.544,0.02414309908934947,5888.493761740383
1.548,0.631709755789573,5898.347723810949
1.552,1.5222068165040725,5896.027377501008
1.556,2.661531264923904,5903.233681093516
1.56,3.9605742833270843,5892.0403434014215
1.564,5.287560017053182,5903.228376403665
1.568,6.495138309484736,5900.092818592988
1.572,7.4536676489244265,5893.872350759566
1.576,8.07900834173301,5902.943253279067
1.58,8.34611744802858,5900.414495465738
1.584,8.286490808936891,5907.731911881517
1.588,7.9735843363979235,5894.133757924096
1.592,7.502909272153844,5901.834304351314
1.596,6.972536125366699,5899.528570667151
1.6,6.467177016232015,5894.087799604458
1.604,6.04698733415326,5892.604459218595
1.608,5.741588200498115,5900.91834344468
1.612,5.549868248755892,5895.445111204243
1.616,5.445744651787416,5892.682942677436
1.62,5.388806514644792,5907.092110868816
1.624,5.337123357817103,5906.150200032124
1.628,5.258512417859552,5891.292402704545
1.632,5.137049055156423,5900.433270141281
1.636,4.973509275031548,5900.664205173295
1.64,4.780778379188742,5899.220895372685
1.644,4.576825808841153,5900.164735265452
1.648,4.37802425780382,5909.407973960015
1.652,4.194744836584386,5905.673815716349
1.656,4.030032524689103,5898.491177781972
1.66,3.881116121396913,5905.964782662007
1.664,3.7426462990345,5903.592897303257
1.668,3.610168255186081,5906.983432070862
1.672,3.48255715623836,5897.282720479485
1.676,3.362676046029158,5905.566599625424
1.68,3.256094298544564,5908.404625917771
1.684,3.168311616002398,5900.391097557724
1.688,3.101452062636094,5896.7940923629485
1.692,3.051630123715728,5902.703372769105
1.696,3.0080864713645115,5904.395950287312
1.7,2.954713059027183,5899.285695497008
1.704,2.873744636262591,5899.985594973003
1.708,2.75053093427785,5903.797120064432
1.712,2.5779642496969957,5888.60388773047
1.716,2.359394954702025,5892.800806197344
1.72,2.109251355765346,5908.123290569129
1.724,1.8508877915090822,5899.556037664569
1.728,1.611752649503922,5899.725150271583
1.732,1.416913664998934,5907.596344027098
1.736,1.2827899981052355,5901.818376902133
1.74,1.2130426813051833,5895.285221574931
1.744,1.1979156766343553,5901.551293100532
1.748,1.217249132696526,5903.071306611089
1.752,1.2462272831172323,5896.1572364325
1.756,1.2619847225245033,5902.3633755505
1.76,1.2489690942939327,5897.927775739014
1.764,1.201695344736872,5897.972951481825
1.768,1.124694037036817,5904.831853817422
1.772,1.0302106407349316,5901.453344139679
1.776,0.9343755433601173,5882.440334482086
1.78,0.8526661478395534,5892.77289750429
1.784,0.7958260424987615,5892.449464984503
1.788,0.7675420124071839,5898.036794536171
1.792,0.7645647975973774,5898.606112791901
1.796,0.7788212928408714,5892.560911539073
1.8,0.8002577156036145,5888.830700469922
1.804,0.8192569442514946,5887.543689947415
