时间(s),电压(V),幅值(高频80K)
0.0,-0.05009649431507525,5907.764879592511
0.004,0.02333005173577626,5898.322454474682
0.008,0.0910270392347446,5897.477855967377
0.012,0.1451052861287511,5903.314448118443
0.016,0.17727208484252033,5900.706768890912
0.02,0.17838631736457644,5896.100892459197
0.024,0.13926327205711675,5899.950779032255
0.028,0.05361227907496925,5904.300839803832
0.032,-0.07783762418560054,5905.302542921972
0.036,-0.2443859606340984,5904.778366452751
0.04,-0.42552782692014735,5901.534106242212
0.044,-0.5943783362632451,5893.117614751614
0.048,-0.7230439896755663,5894.821155926683
0.052,-0.788459918515031,5895.79468212272
0.056,-0.7776041236252669,5904.929510904877
0.06,-0.6910547323663233,5898.569403712763
0.064,-0.5438050758494923,5892.814574012597
0.068,-0.3627716121916117,5895.090068723408
0.072,-0.18141682719286994,5909.119396542946
0.076,-0.03269658004544077,5903.272190569022
0.08,0.05810157129331204,5902.127127133948
0.084,0.07887762691322611,5899.220697710087
0.088,0.032897826639353346,5894.818444993582
0.092,-0.06323527204455419,5899.184134805308
0.096,-0.18509932472146498,5901.812395397919
0.1,-0.3074507910808383,5898.981161175129
0.104,-0.4105863254281445,5897.0619108519095
0.108,-0.484600350227872,5896.98027740579
0.112,-0.5307127053827734,5894.458924807028
0.116,-0.5593612662123628,5899.757372491123
0.12,-0.5854173873630333,5902.384609288323
0.124,-0.6218196419189879,5891.646512348108
0.128,-0.6739388488360554,5891.404546573148
0.132,-0.7372300119689933,5895.355627231257
0.136,-0.799293491034474,5900.4598757602025
0.14,-0.8449936561034331,5903.990473590916
0.144,-0.8617949425381437,5898.392551764609
0.148,-0.8430675924227887,5892.472532005657
0.152,-0.7888453429933229,5888.363935312295
0.156,-0.7048659187151592,5906.033035486891
0.16,-0.6010425546570886,5904.78135627725
0.164,-0.4899983246071749,5905.351778948314
0.168,-0.3856007610764519,5892.36586462538
0.172,-0.30123837725033725,5895.256478592085
0.176,-0.2478754026515616,5899.789537300071
0.18,-0.23211571590154154,5896.68611861587
0.184,-0.25446857416142266,5896.065926437302
0.188,-0.30820701804339873,5891.329036751261
0.192,-0.3796589493806648,5895.609917426427
0.196,-0.4507554899224514,5911.353342774641
0.2,-0.5037648086115727,5899.9370459070415
0.204,-0.5268465454381208,5888.021005698659
0.208,-0.5182148753085731,5902.361198596306
0.212,-0.4868559685976067,5907.48527595441
0.216,-0.4490019154782153,5897.576462776882
0.22,-0.42150003775591144,5911.067051529905
0.224,-0.41493500118914445,5898.628595448237
0.228,-0.42979689807415405,5903.3999822343785
0.232,-0.4575715066847972,5896.025569626083
0.236,-0.48596826682681005,5905.294129935246
0.24,-0.5052534235017934,5905.290278280972
0.244,-0.5122861162718241,5895.980066693099
0.248,-0.5104519176620439,5899.793346346944
0.252,-0.5060181903668857,5911.90781792662
0.256,-0.5030575990018826,5895.702279398887
0.26,-0.49940689092084883,5906.222478273588
0.264,-0.48545225785840795,5897.105635270518
0.268,-0.44637992634903473,5901.890936737255
0.272,-0.3672651090752072,5903.647466672041
0.276,-0.23929150871514684,5895.761004240255
0.28,-0.06481603565652942,5891.441279133011
0.284,0.1407541023180155,5907.203339221856
0.288,0.3511399109744144,5902.805457693527
0.292,0.5347297458796063,5893.800368612587
0.296,0.6616848135360156,5907.31961152466
0.3,0.7106076317803838,5906.204080563804
0.304,0.6731594465120263,5895.216576915024
0.308,0.5555651436089973,5893.499177295783
0.312,0.3766608381641648,5905.910891469797
0.316,0.16317890433380697,5898.629905106043
0.32,-0.05606100303459085,5901.174657030419
0.324,-0.255225339877082,5898.390276566548
0.328,-0.4147384839713132,5899.427349312301
0.332,-0.5226983767355289,5906.767338608979
0.336,-0.5750087131259783,5895.944054737625
0.34,-0.5748558540231808,5902.769423269741
0.344,-0.5317719458084471,5896.947139090512
0.348,-0.4601091331453976,5888.81974299146
0.352,-0.37668331921575143,5898.447223409791
0.356,-0.29759504326047054,5895.819090952027
0.36,-0.23467624407602974,5894.191143271962
0.364,-0.1926443828748675,5894.570325303896
0.368,-0.1684223894493166,5904.219377375993
0.372,-0.1534380003864229,5901.200211369529
0.376,-0.1381443460787078,5903.127705348258
0.38,-0.11668151544311954,5896.542673952924
0.384,-0.08959969100148629,5900.1882287268845
0.388,-0.06387046990402226,5897.258824348252
0.392,-0.05089353609421556,5897.864942095408
0.396,-0.0636022536503028,5896.10480997876
0.4,-0.1131403434145901,5889.22988617528
0.404,-0.20524580607015977,5906.368259279679
0.408,-0.33708428478941865,5905.480878262412
0.412,-0.49589532116533475,5892.020260950998
0.416,-0.6604748247507158,5907.775009032945
0.42,-0.8054389150895392,5907.236232441488
0.424,-0.9071430975660733,5895.81630889598
0.428,-0.9494750033101816,5902.5443592654665
0.432,-0.9276852195828584,5901.923835790908
0.436,-0.8490548332548622,5900.612004213305
0.44,-0.7302829332186663,5906.477273345546
0.444,-0.5925777696166719,5899.266422790469
0.448,-0.4561894889649405,5904.520069712171
0.452,-0.33618444805898945,5899.302408970306
0.456,-0.2404618938813237,5896.711170293758
0.46,-0.16982817805503544,5906.226664504551
0.464,-0.11929081216094772,5892.990480698722
0.468,-0.08001201063287133,5899.393923945831
0.472,-0.04194710488639568,5902.160020405109
0.476,0.0028298584847017165,5903.9332424773565
0.48,0.05683998553133461,5900.960293828728
0.484,0.11528480091608569,5896.445219292259
0.488,0.16656211924100292,5909.29991677954
0.492,0.1952597710364338,5899.3302424849535
0.496,0.1867155408501159,5901.009964323353
0.5,0.13188689388059777,5901.081021378541
0.504,0.03136822785095358,5905.342633619655
0.508,-0.10255207294097707,5909.643377678005
0.512,-0.24693069978001517,5899.461805996859
0.516,-0.37304311622381414,5900.090450133859
0.52,-0.4545019648166528,5898.762388115849
0.524,-0.47606876232460105,5904.871328383972
0.528,-0.43939321688656435,5904.091503726604
0.532,-0.3627847206082092,5902.906491220125
0.536,-0.27478794689558106,5901.06096441895
0.54,-0.20405932368552232,5900.258314263835
0.544,-0.1693781825820878,5906.160616501395
0.548,-0.17340834641156674,5904.762696802513
0.552,-0.20253189909361388,5898.792679885433
0.556,-0.23296666281770304,5905.508775357445
0.56,-0.24081263689840418,5893.03854870664
0.5640000000000001,-0.2118456912683288,5907.765480700305
0.5680000000000001,-0.1470559216339426,5896.600916335591
0.5720000000000001,-0.06200464386251104,5896.203503342056
0.5760000000000001,0.019234343414450086,5898.697139698733
0.58,0.07275112130563298,5898.416831105692
0.584,0.08268436473430775,5908.445387378676
0.588,0.045735912799570067,5901.312953960674
0.592,-0.028722141386469467,5889.6430018434285
0.596,-0.12248431654801051,5901.947463671717
0.6,-0.21466772789018587,5895.050786373376
0.604,-0.28795110686214875,5897.893151183451
0.608,-0.33283291553178124,5900.023105732629
0.612,-0.34873986692508785,5903.955123372597
0.616,-0.3421059378543682,5894.994598727004
0.62,-0.32276648139851755,5905.198183013118
0.624,-0.3005383524375038,5902.195775853682
0.628,-0.28323706983250235,5899.54625971517
0.632,-0.27605871757346057,5900.426860906902
0.636,-0.28137146925819406,5892.772004972314
0.64,-0.29819876850019905,5908.89447794421
0.644,-0.32165804285128086,5905.133609118951
0.648,-0.34336300038917794,5911.230293343526
0.652,-0.3534720120583619,5900.92422848032
0.656,-0.34381460939869285,5906.688624238822
0.66,-0.31056182139477806,5898.574930531144
0.664,-0.25514323485334256,5900.862161237274
0.668,-0.18315662193359672,5898.429099518803
0.672,-0.101970852705091,5900.810987049214
0.676,-0.018234915355728347,5901.488705047788
0.68,0.06347769764805994,5894.537805652879
0.684,0.1402553336668335,5894.654606470888
0.6880000000000001,0.20904151962367035,5908.906427557043
0.6920000000000001,0.2646370073630662,5903.783799718395
0.6960000000000001,0.2989102544026715,5908.647833660304
0.7000000000000001,0.30213134678799103,5900.1870346130745
0.704,0.26635254586103935,5896.720550409282
0.708,0.18966130338665202,5899.379330055438
0.712,0.07945030762623172,5902.082924493666
0.716,-0.04703113618233857,5897.260842579519
0.72,-0.16558182796838988,5894.381712484999
0.724,-0.25071502631011267,5902.050167649224
0.728,-0.2823232069725248,5901.566192561429
0.732,-0.25125487209989733,5898.829901856529
0.736,-0.16200335620153344,5901.71375139587
0.74,-0.03163407569523519,5897.993552824711
0.744,0.11442204272809453,5904.166034893156
0.748,0.2479053033471437,5899.2702348326375
0.752,0.3428466056917144,5893.79661856938
0.756,0.37947124346582467,5902.24986216649
0.76,0.3468707809967262,5897.532246753653
0.764,0.24455429892427888,5903.219957394906
0.768,0.0827973284927285,5891.817328306622
0.772,-0.11835270264433179,5897.062543111878
0.776,-0.3314583532193623,5891.369582459551
0.78,-0.5253875326133275,5907.542817398853
0.784,-0.6700534620002366,5904.493103965548
0.788,-0.7416817351104408,5904.201482783977
0.792,-0.7279016607518044,5900.234313024927
0.796,-0.6316744758852044,5905.670928714451
0.8,-0.4725815527859211,5895.335235533446
0.804,-0.28388218450487324,5891.900776116201
0.808,-0.10486536528363066,5893.413054688609
0.812,0.029761166520140905,5903.389864096081
0.8160000000000001,0.09978691270096553,5901.46604000204
0.8200000000000001,0.10482546675346495,5891.29989280051
0.8240000000000001,0.0628107758774929,5897.323521864687
0.8280000000000001,0.0022101735175213363,5900.276111207892
0.8320000000000001,-0.048850552077770455,5900.33064442467
0.836,-0.07220653448644673,5896.900344696295
0.84,-0.06455259518138456,5905.668252176093
0.844,-0.03637459080561617,5905.669998300043
0.848,-0.00601272362718097,5912.2455236725855
0.852,0.008527191351954077,5894.227895577601
0.856,-0.0029878004168285843,5901.17698692343
0.86,-0.03889266018396846,5898.64067196344
0.864,-0.08636971859228401,5894.413043965794
0.868,-0.12693043840350982,5907.8694491682645
0.872,-0.1443353635298824,5900.336413352149
0.876,-0.1311665098469465,5890.96904832236
0.88,-0.09078730768723534,5905.023912958594
0.884,-0.03399895034179506,5897.587817316649
0.888,0.02729481719211955,5900.564081621535
0.892,0.08565897616181818,5899.325431293069
0.896,0.14005725405530564,5906.043235709165
0.9,0.19361717753156676,5895.317281968579
0.904,0.24899235918348092,5902.225778109823
0.908,0.3041852055945931,5895.137106901211
0.912,0.3512750200676171,5903.20919101488
0.916,0.3788446064787753,5899.0564774452805
0.92,0.37686462557198525,5901.3520623705
0.924,0.3415241353068885,5908.552634004423
0.928,0.27761911214914925,5896.834102347072
0.932,0.19730653132019976,5898.404386483746
0.936,0.11559923898280576,5899.710886041422
0.94,0.0444075704270405,5895.706170973152
0.944,-0.012259354429323077,5908.867640945498
0.948,-0.0596208201791956,5903.936807435875
0.952,-0.10910939413824261,5888.105478731486
0.956,-0.17219091577819948,5907.3662507959725
0.96,-0.2539315384730817,5898.015800213867
0.964,-0.34952522631251853,5895.806732040308
0.968,-0.4453498874687417,5890.455332743275
0.972,-0.5235509172722523,5898.00265813075
0.976,-0.5675510742052691,5901.412128988989
0.98,-0.5661301924811633,5899.3654876919445
0.984,-0.5150327300005868,5901.343884670458
0.988,-0.41627910081011865,5890.46003400667
0.992,-0.27608162922958485,5899.877157097682
0.996,-0.10263242323551947,5906.192134308301
1.0,0.09502874218455612,5902.537423498164
1.004,0.3065659644083027,5902.263683294301
1.008,0.5189505603630806,5905.982746450494
1.012,0.7155473533259689,5892.9301565024525
1.016,0.8769283824398136,5906.49262451118
1.02,0.9836392715103472,5886.471771348875
1.024,1.0201694189212163,5898.844272611787
1.028,0.9790386141141654,5897.615855285104
1.032,0.8638953884485728,5891.354860529931
1.036,0.6904591481121417,5903.231778454556
1.04,0.4844065900631714,5901.506288021386
1.044,0.2763102253646047,5892.418130699812
1.048,0.09507265357875169,5885.842762483933
1.052,-0.037919705479049104,5894.958998983306
1.056,-0.11201796085097024,5896.9850365401335
1.06,-0.12722963235048262,5907.999234735591
1.064,-0.09161621913743917,5885.366804049075
1.068,-0.017945837287265728,5897.617569056323
1.072,0.07863529366908258,5904.740010297127
1.076,0.18134946330516488,5898.304723587948
1.08,0.2720487187940866,5886.147746130535
1.084,0.332770832160578,5903.874684469365
1.088,0.34934638608341034,5906.8761070221735
1.092,0.3159382033732367,5910.424385281912
1.096,0.23818782258372248,5896.946107477816
1.1,0.1329022605420893,5897.467416735199
1.104,0.023735434141761894,5905.3424489626605
1.108,-0.0657046485201659,5897.7122776011065
1.112,-0.11855687523477057,5906.628548070738
1.116,-0.12859461944135941,5889.792977668911
1.12,-0.10020253176565594,5902.842832616602
1.124,-0.04522893192721527,5894.085726564536
1.128,0.021400496541120757,5903.267518160633
1.132,0.08552830011913162,5894.067311274734
1.136,0.1361292941865307,5904.978036566269
1.14,0.16605898757283177,5891.885026438908
1.144,0.1714811443699055,5892.620831741301
1.148,0.1505001621548502,5902.118809057534
1.152,0.10174474503425406,5894.989876744445
1.156,0.02369732488839324,5896.589102684713
1.16,-0.08473930867775831,5896.194215775402
1.164,-0.22250605617527558,5901.06727215738
1.168,-0.3842066155473079,5901.596119649002
1.172,-0.5587378289723778,5912.261715590002
1.176,-0.7299308809769529,5902.472933538424
1.18,-0.8794645748622377,5889.737394427652
1.184,-0.9910357598688492,5896.714642976232
1.188,-1.054265574980866,5895.118443795634
1.192,-1.0674076793371052,5900.223797860676
1.196,-1.0385485624965833,5902.268916912663
1.2,-0.984751841978846,5889.352128385459
1.204,-0.9282909324413486,5900.825028519903
1.208,-0.8900367402593465,5893.794289811744
1.212,-0.8819416254071798,5903.75698294323
1.216,-0.9017858564417842,5903.939414592104
1.22,-0.9328126058980812,5898.461585599137
1.224,-0.9488588466908299,5904.897637537754
1.228,-0.9233438196085101,5906.301466660627
1.232,-0.8391048920012389,5894.389452966601
1.236,-0.695774027469771,5904.264486117873
1.24,-0.5119536442497976,5903.168676392045
1.244,-0.3209427455926626,5903.3835999581925
1.248,-0.16105835449575595,5904.159281829412
1.252,-0.06380064388185099,5901.038949934682
1.256,-0.04411669307517574,5904.455270819212
1.26,-0.09629052130326837,5904.313456006065
1.264,-0.19674700361233516,5903.206309824509
1.268,-0.3122436288070497,5890.034435853583
1.272,-0.40989751436342226,5896.755549914723
1.276,-0.4652857876500932,5899.555886268752
1.28,-0.46645652381172,5910.884131705377
1.284,-0.41396483900945036,5899.699058832474
1.288,-0.31853170083177546,5901.577446665125
1.292,-0.19797495453418848,5899.626401969595
1.296,-0.07419831952354226,5889.962000984936
1.3,0.029871821396805314,5902.697910617968
1.304,0.09383017998413433,5899.779181581464
1.308,0.10379810516810961,5898.742319482629
1.312,0.05599810522769379,5900.289807306363
1.316,-0.041599825804603974,5902.103453579133
1.32,-0.17078701223781712,5892.106984219505
1.324,-0.30776280016965774,5902.227918416041
1.328,-0.42935682109044304,5902.83552708252
1.332,-0.5185115237575337,5903.425316934428
1.336,-0.567309814265229,5892.343711134006
1.34,-0.5772611043319561,5893.461867995711
1.344,-0.5576128010194041,5900.794696845483
1.348,-0.5224392214460588,5897.0760163887535
1.352,-0.486850589952525,5902.073481559243
1.356,-0.46293590657623673,5898.988483184477
1.36,-0.45678862193573916,5902.858650322959
1.364,-0.4679569554280036,5893.573906608606
1.368,-0.491492466508315,5898.013436922793
1.372,-0.5213278995385547,5903.0749493298645
1.376,-0.5531095685140686,5901.051586705367
1.38,-0.5851913412376126,5907.45555676446
1.384,-0.6177711329086756,5894.23539670939
1.388,-0.6512091082414319,5903.979974057466
1.392,-0.684705719327315,5892.178817658887
1.396,-0.7158221185891499,5900.802005005235
1.4,-0.7406006076519174,5899.437847646949
1.404,-0.7539175469405628,5890.807548254922
1.408,-0.750002709788219,5901.914495151875
1.412,-0.7232567453501352,5901.469324062574
1.416,-0.6693912228954563,5897.752337747858
1.42,-0.5866660457949076,5909.903890260411
1.424,-0.4768501014769685,5887.201182199649
1.428,-0.3456541520144822,5909.38549774229
1.432,-0.202729816564651,5902.065170169387
1.436,-0.06154641811881404,5907.989292642006
1.44,0.06078726435011984,5904.437332914037
1.444,0.14421579122869085,5896.641465996806
1.448,0.16762893804325715,5898.594549756331
1.452,0.11240159492279918,5890.526291353306
1.456,-0.032266688005469876,5903.543724450178
1.46,-0.26242974338322156,5896.078892785619
1.464,-0.5520794531434934,5906.742510055644
1.468,-0.8480191899409355,5900.43918405556
1.472,-1.0702286103394532,5902.944704385617
1.476,-1.12036775764855,5905.527324495765
1.48,-0.8991541640059512,5901.553004613246
1.484,-0.33041752080093006,5896.578697615382
1.488,0.6137885311921604,5899.159968737786
1.492,1.89514733236467,5902.372223783519
1.496,3.406069226267474,5904.398024121274
1.5,4.985806800247382,5898.475335859098
1.504,6.452880570307637,5892.175380953391
1.508,7.644095362543945,5900.082800611992
1.512,8.447810649433597,5900.629681988105
1.516,8.82235284182594,5896.948135080425
1.52,8.796664134919034,5905.013520838911
1.524,8.455675209165971,5901.260663754394
1.528,7.916025349051494,5897.401449926601
1.532,7.298843460299084,5895.94338507473
1.536,6.705720892670804,5897.182768523085
1.54,6.202348634242669,5905.99717969543
1.544,5.812336678566954,5897.772508038354
1.548,5.5216794405600425,5898.415622130247
1.552,5.291918205012024,5897.117817898367
1.556,5.077685332193073,5906.168913060289
1.56,4.843152302941451,5896.748914625397
1.564,4.572614193497852,5908.150696057588
1.568,4.272666784615671,5899.6461898954085
1.572,3.966331607722118,5894.299354930335
1.576,3.6820957513384736,5909.533179496126
1.58,3.442261116251633,5897.017651587385
1.584,3.254866172330988,5892.318209160709
1.588,3.111925322921658,5892.116556095873
1.592,2.994227411691506,5902.458735872655
1.596,2.880252487269717,5899.010465813847
1.6,2.7551958378276096,5897.774858617533
1.604,2.6164806574206434,5906.157741767927
1.608,2.4740773468113084,5904.458970427331
1.612,2.3462388777442067,5898.151721053427
1.616,2.252881822714608,5900.0857223803605
1.62,2.209252297636099,5909.053694881103
1.624,2.221744270500605,5891.60923480805
1.628,2.286405906694523,5894.787285273653
1.632,2.3896100772940287,5898.482949161073
1.636,2.510112711015524,5899.902709381142
1.64,2.622163147474394,5898.088554832815
1.644,2.69967150828637,5891.341477883142
1.648,2.7210534798770873,5902.0099973776005
1.652,2.6736678482775496,5895.912601276135
1.656,2.556541000098691,5900.627843798516
1.66,2.380544050145179,5907.510700166729
1.664,2.1660630492650896,5907.685097486247
1.668,1.9389758202528071,5903.277322464061
1.672,1.7259190643921816,5905.895421776959
1.676,1.5495190279963942,5903.245143461601
1.68,1.424143272340601,5905.113020264733
1.684,1.3530439473312206,5905.111013827548
1.688,1.3279282404299433,5899.655722915165
1.692,1.3314192199447792,5908.202503669171
1.696,1.3418181600743493,5895.290486887132
1.7,1.3388441861800255,5896.373597869543
1.704,1.3089034705797642,5897.981605334168
1.708,1.24860297182858,5897.773586178873
1.712,1.1654654040868517,5902.909424478713
1.716,1.0753101975006243,5892.73137567395
1.72,0.9967776770243363,5903.788928565294
1.724,0.944747850897234,5885.110198648533
1.728,0.9250828649777287,5898.053366241516
1.732,0.9325581536713382,5892.18232466458
1.736,0.9524247074580671,5900.973017768501
1.74,0.9647244746648617,5899.6887442636535
1.744,0.9498554922776535,5892.978021229811
1.748,0.8938810288198751,5884.950661836835
1.752,0.7922742461199748,5898.131948505828
1.756,0.65099876922868,5887.677040831402
1.76,0.4843615016805707,5881.870755721869
1.764,0.31021947273046974,5894.162596414809
1.768,0.14446061003433136,5893.383427285592
1.772,-0.0027735223923384352,5881.349972215263
1.776,-0.1275508880805213,5877.409261572501
1.78,-0.2296229746684552,5874.455382857284
1.784,-0.3088308444208339,5873.762324555206
1.788,-0.36260982206118775,5890.600838152547
1.792,-0.3857438848894329,5880.955545007968
1.796,-0.3721983718233198,5882.86116138011
1.8,-0.31802129515699357,5880.181947471398
1.804,-0.22411622625457428,5884.356726705972
1.808,-0.09791970742710987,5881.367598671816
