时间(s),电压(V),幅值(高频80K)
0.0,-0.5885646140914289,5884.364305052213
0.004,-0.3167894407261265,5895.830424438653
0.008,-0.09255834459978997,5903.590646461542
0.012,0.04733600272895873,5902.986897828883
0.016,0.08539964296491255,5895.326960266887
0.02,0.02581984024545591,5892.470814047194
0.024,-0.10886810378660647,5897.302960847037
0.028,-0.28519168676005346,5895.743236617152
0.032,-0.46782088208987815,5893.053756044455
0.036,-0.6277588032318135,5905.422187017063
0.04,-0.7473448936733689,5905.614609774319
0.044,-0.8208386926552337,5893.726042201201
0.048,-0.8512880950374664,5902.108336016035
0.052,-0.8460550797923138,5903.836449759696
0.056,-0.8134403336854308,5897.889867135497
0.06,-0.7613862193888693,5901.14151641791
0.064,-0.6976525914329452,5895.960191274357
0.068,-0.6302931082659069,5891.557322537052
0.072,-0.5675663545728206,5895.912450522249
0.076,-0.5168602668461697,5907.632856030624
0.08,-0.48262551673981374,5896.192064969348
0.084,-0.46405131753194895,5900.811233552981
0.088,-0.454067162412071,5900.436664887634
0.092,-0.44115669526086754,5900.413791239614
0.096,-0.4138655281442244,5883.704744541449
0.1,-0.3659213326137356,5900.771079441352
0.104,-0.29931355678600297,5905.853169378917
0.108,-0.22384435852464163,5901.02282462114
0.112,-0.15349978500011421,5906.406132169782
0.116,-0.10141498394365155,5896.082179599838
0.12,-0.07563056788665924,5908.70349060869
0.124,-0.07718198616108705,5901.208030435154
0.128,-0.10091994352672354,5901.690733763977
0.132,-0.1385241214994804,5899.374875527449
0.136,-0.18249717471031598,5893.859371900114
0.14,-0.229390694293992,5890.821753401369
0.144,-0.28056799444063923,5904.493257146987
0.148,-0.3399029846844024,5907.747177187703
0.152,-0.4094980904463676,5892.717562536214
0.156,-0.4857107270030157,5906.585820271783
0.16,-0.5577645900066243,5899.207685449004
0.164,-0.6100093625266356,5908.315789270953
0.168,-0.6271392496543247,5896.521240770285
0.172,-0.6002710062865255,5898.226203906411
0.176,-0.5313310276977007,5908.225280076393
0.18,-0.4338263758529398,5891.488388435833
0.184,-0.32949265093959196,5898.832214758912
0.188,-0.24195446377646815,5905.836739561859
0.192,-0.1896598220444071,5903.932462069001
0.196,-0.18044020489600188,5904.8273532550575
0.2,-0.20925776686767564,5894.97318296296
0.204,-0.2596609366387003,5899.866889990923
0.208,-0.308567767212961,5899.345024637128
0.212,-0.33311317132282253,5893.887840646437
0.216,-0.31743168088984675,5904.02017592105
0.22,-0.2570580502505936,5904.031339583195
0.224,-0.15968963535012026,5903.499216470112
0.228,-0.04275470989997073,5898.884686533324
0.232,0.07076621214446241,5898.8982437677
0.236,0.15703727452947175,5908.458730196026
0.24,0.19607182050029467,5895.141880640469
0.244,0.17616911879826014,5895.157999448924
0.248,0.09733312389778809,5896.604749718534
0.252,-0.027600659462593522,5898.908640252013
0.256,-0.17517050381091528,5894.874041876831
0.26,-0.3167477776997551,5905.296164341253
0.264,-0.4257910908870167,5892.5059719525625
0.268,-0.484606121471668,5894.1163401378935
0.272,-0.48846245737066446,5901.979794421975
0.276,-0.4458699753266207,5895.01688367733
0.28,-0.3751363447566882,5900.277608552515
0.284,-0.2985413085620762,5898.564451704772
0.288,-0.2360883253926932,5903.054753046598
0.292,-0.20062963152014632,5899.302573679275
0.296,-0.19554958229740027,5901.460838136842
0.3,-0.21552499895657248,5905.631120079166
0.304,-0.2500830654541236,5906.862528791413
0.308,-0.28863471389113976,5891.842890167978
0.312,-0.3248381638464772,5906.038115959933
0.316,-0.35825976117858227,5894.34647346873
0.32,-0.3925319828690978,5889.7702645291465
0.324,-0.43098490481202995,5906.01309114369
0.328,-0.47210991074217074,5896.259395211087
0.332,-0.5074583207918534,5896.05590039193
0.336,-0.5234849043014321,5912.952229493675
0.34,-0.5068411756463026,5901.556420861491
0.344,-0.4506967383781777,5897.3155101856055
0.348,-0.3589937909954095,5899.74275020161
0.352,-0.24657241259960447,5894.426008012309
0.356,-0.13508787128253757,5906.932674090619
0.36,-0.04638317590399689,5896.237777482619
0.364,0.004185394605760019,5899.031930469365
0.368,0.012125501336615361,5896.555988633059
0.372,-0.015499138144558588,5894.376535768304
0.376,-0.06304497279638471,5895.144709206357
0.38,-0.11157591647143533,5899.980185926314
0.384,-0.14442086192445763,5904.744063164151
0.388,-0.15130770937673346,5898.160145753858
0.392,-0.13044132415593487,5902.164200037205
0.396,-0.08872871856907438,5892.572324916731
0.4,-0.04035484346599967,5893.308621248797
0.404,-0.0035583494180285013,5904.091721529185
0.408,0.004296746230535122,5911.258493634477
0.412,-0.02771384832005496,5900.795497611038
0.416,-0.09975372600592906,5898.818464446133
0.42,-0.1998906686253278,5900.545906345481
0.424,-0.30644293653897803,5901.915862559218
0.428,-0.39335325332717785,5899.8390271961525
0.432,-0.43691247569195824,5895.579538133002
0.436,-0.4218044830726632,5901.620135406628
0.44,-0.34475536527849704,5904.371863697082
0.444,-0.2148681962392786,5901.518560449337
0.448,-0.050782496125312916,5895.912198953988
0.452,0.12427870339875975,5893.628748642
0.456,0.2880490953620898,5898.162743890131
0.46,0.42377787633888553,5902.533573654878
0.464,0.5225382988982327,5905.413191783334
0.468,0.582841998496552,5902.921566160064
0.472,0.6083692649916367,5903.386834694743
0.476,0.6054989436471448,5897.698744704426
0.48,0.5819759381113904,5904.603502381022
0.484,0.5466695138439486,5899.399295268197
0.488,0.5091301400858468,5902.91021629292
0.492,0.47766041260128855,5892.158222291056
0.496,0.45597783463094893,5902.130835269909
0.5,0.4402383593237797,5901.397438917553
0.504,0.4187835919366494,5910.538855136766
0.508,0.3757831300627322,5903.916925087459
0.512,0.29768834217632234,5897.748138124272
0.516,0.17968225868866702,5911.621133412946
0.52,0.029204180042727,5903.465881259305
0.524,-0.1350267614711818,5898.891503769604
0.528,-0.28822773501540694,5903.183593313422
0.532,-0.4071737231762583,5900.676669802375
0.536,-0.47739489448271777,5900.138472111505
0.54,-0.497099141456121,5908.4295856478375
0.544,-0.4763369186600418,5901.684526646682
0.548,-0.432191045313134,5905.807236404444
0.552,-0.3824665812670543,5899.5257859856765
0.556,-0.34044145903892403,5903.940789219777
0.56,-0.3121571646839967,5889.163723531837
0.5640000000000001,-0.2965901746955987,5901.940021727558
0.5680000000000001,-0.28823379956524847,5891.894217736623
0.5720000000000001,-0.2808868734548507,5897.679641787054
0.5760000000000001,-0.2709625990858228,5903.696241506167
0.58,-0.25891435720063755,5901.865230212659
0.584,-0.2483853340229077,5907.041144801106
0.588,-0.2438287145473803,5904.278693790405
0.592,-0.24803262964666184,5896.382126586822
0.596,-0.26082763171736095,5896.272857408438
0.6,-0.27928416702404685,5897.727904943582
0.604,-0.2986655417651127,5905.11864734052
0.608,-0.3132003147658807,5900.069969284714
0.612,-0.31645808349128773,5898.497416596505
0.616,-0.3018760320806037,5905.078220032596
0.62,-0.2639540367496301,5897.744217808909
0.624,-0.19998373683534004,5895.570922737124
0.628,-0.11171297488638596,5898.834341199683
0.632,-0.006340017477385461,5893.2699247375895
0.636,0.10370528063008409,5911.515725387097
0.64,0.20263661058823318,5901.466956510262
0.644,0.27467986068377687,5897.2894701981495
0.648,0.30777552670606806,5898.235372003448
0.652,0.2960565213781931,5909.6301432562
0.656,0.2403082912409468,5891.190506790705
0.66,0.1468448987832289,5896.261969552968
0.664,0.02590916361057679,5899.579382572769
0.668,-0.1093934641365721,5895.639893953762
0.672,-0.24321760482140511,5898.403018586079
0.676,-0.3566954347682033,5900.116961387805
0.68,-0.4286990957462578,5901.335520888701
0.684,-0.4390604445388291,5901.697193547536
0.6880000000000001,-0.3741692168946871,5904.175797528891
0.6920000000000001,-0.2328447060444043,5900.739369334808
0.6960000000000001,-0.02950051027000097,5903.280214432568
0.7000000000000001,0.2073230596883112,5902.719386211479
0.704,0.44076022108955354,5898.691888578009
0.708,0.6335446598543931,5904.632864243794
0.712,0.7553619757265826,5902.531884297708
0.716,0.7879577877211826,5900.637732958395
0.72,0.7278164623809037,5898.017163375567
0.724,0.5868398839099818,5897.250566585323
0.728,0.3909522559795454,5902.025454776518
0.732,0.17598936924672862,5895.809604496079
0.736,-0.019349052384134473,5904.866590437241
0.74,-0.16228381698873803,5898.209479740594
0.744,-0.23375889592278593,5898.577114681224
0.748,-0.2321779228387933,5893.4326747296445
0.752,-0.17154620336454052,5896.619698010608
0.756,-0.07527864909199561,5891.127365670748
0.76,0.03106645659010052,5906.117985326486
0.764,0.12519699545856666,5902.493660496333
0.768,0.1907490990883674,5898.550637885912
0.772,0.2180063645228601,5901.042002086715
0.776,0.20369413897985844,5898.2732105312125
0.78,0.15029114523722625,5903.810435641923
0.784,0.06501622755683761,5901.309795306991
0.788,-0.041280576904241084,5897.166354245224
0.792,-0.15520658727109912,5901.343627327613
0.796,-0.26212389682484566,5904.815798539082
0.8,-0.3479928296143684,5908.7239205038
0.804,-0.40179193201106067,5897.185413811612
0.808,-0.4181121419656695,5893.71054339768
0.812,-0.39916350123510397,5897.8598801814
0.8160000000000001,-0.3551932546741099,5905.666614712384
0.8200000000000001,-0.3025123777042127,5893.22478936344
0.8240000000000001,-0.2592674242854212,5900.701719556419
0.8280000000000001,-0.2403145908711234,5898.435401641101
0.8320000000000001,-0.25308263249415813,5894.392511186014
0.836,-0.2957561273522064,5901.654327584639
0.84,-0.3580142898903696,5900.137603038219
0.844,-0.4237398777955362,5904.171879233567
0.848,-0.4749035519186339,5887.619264535929
0.852,-0.49593974724328455,5903.894400072033
0.856,-0.4779233883704815,5895.784643249883
0.86,-0.42167515461539523,5893.584702036177
0.864,-0.33885746475644984,5902.870720350874
0.868,-0.2503766498284538,5902.420175750852
0.872,-0.1819226175761607,5909.75681108017
0.876,-0.15723172164360574,5896.147717728078
0.88,-0.1907011238455337,5898.623782115734
0.884,-0.28188791408993696,5897.212313081131
0.888,-0.41427087427375237,5897.181445916264
0.892,-0.5591100295752703,5904.5304614849765
0.896,-0.6831943858548564,5902.553404713078
0.9,-0.7578899508984502,5901.878429741461
0.904,-0.7666213589214647,5892.253706125455
0.908,-0.7085735134850744,5901.90322234698
0.912,-0.597712105490315,5893.562734527972
0.916,-0.4578442270181422,5905.076179680025
0.92,-0.3157896503031791,5899.803166382729
0.924,-0.1951423084688405,5898.262136701158
0.928,-0.11234985117413458,5895.690741345179
0.932,-0.07550875001003839,5896.678639369945
0.936,-0.08524944902118771,5902.741835419494
0.94,-0.1367001546710516,5901.901464168002
0.944,-0.221525465958263,5901.054552261804
0.948,-0.3293170648596865,5898.046019542193
0.952,-0.4482423197032592,5907.730228268872
0.956,-0.5655033982666764,5897.926212869626
0.96,-0.6682502416981705,5898.460893878686
0.964,-0.7451459659746079,5895.593038862262
0.968,-0.7883064720268801,5897.54583873136
0.972,-0.7950231247223793,5904.219782265018
0.976,-0.7685177038963035,5902.182291837959
0.98,-0.7171808877927457,5906.148051324704
0.984,-0.652341095694577,5891.592780910311
0.988,-0.5851934608684198,5900.141518374756
0.992,-0.5238114062943797,5901.02720133466
0.996,-0.47124774037357126,5881.361008829027
1.0,-0.4255596809508847,5898.246123004627
1.004,-0.3819292501225218,5899.392578057872
1.008,-0.33605674770430244,5899.140027741881
1.012,-0.28729837427164895,5900.338696969429
1.016,-0.24005473972633806,5894.295688780216
1.02,-0.20266299677410932,5903.713472488373
1.024,-0.1841619701141387,5901.677632121758
1.028,-0.19030533439543687,5896.143987637059
1.032,-0.22059152269469373,5890.8428333101765
1.036,-0.2676251951384675,5907.01409322555
1.04,-0.31907232450032075,5907.585096233981
1.044,-0.36137027621928025,5898.43192385347
1.048,-0.3837035454379991,5896.649620782893
1.052,-0.38082685530013133,5895.959709490758
1.056,-0.354019579466448,5894.514315104857
1.06,-0.31029789514339695,5898.326859701428
1.064,-0.26049744096436206,5898.600978817623
1.068,-0.21688108888332722,5903.855890209927
1.072,-0.19074247087228433,5897.431139441236
1.076,-0.19027694784865293,5900.417849697005
1.08,-0.2188630229138875,5892.363116245955
1.084,-0.27389436598628325,5905.170250314066
1.088,-0.34646313063223333,5902.439411329288
1.092,-0.42231397767004236,5892.799502944599
1.096,-0.4842477778914133,5894.875851564441
1.1,-0.5156643852284681,5896.286244227288
1.104,-0.5045860901831924,5911.190620311122
1.108,-0.447301308383886,5901.400865846241
1.112,-0.35050816985781946,5906.535482943335
1.116,-0.23078468980711797,5900.201260547595
1.12,-0.11090517845189121,5893.191898561941
1.124,-0.013902842487648465,5899.251329222081
1.128,0.043070072679964044,5898.614669543751
1.132,0.05298548967657321,5899.678249970395
1.136,0.020084056886082304,5905.021685896159
1.14,-0.042247689396201105,5894.704104277728
1.144,-0.11617353586916036,5891.641937252792
1.148,-0.18511841813054328,5904.514632623414
1.152,-0.23839852989917507,5898.763126752863
1.156,-0.2731567336058045,5905.660335496998
1.16,-0.29331261024726635,5906.551702208987
1.164,-0.3063805764460171,5897.35649766761
1.168,-0.31949178128423555,5901.266579083204
1.172,-0.3360691854580867,5897.249263136583
1.176,-0.3543749904849441,5898.663444240224
1.18,-0.36833588142153006,5902.384015915567
1.184,-0.3699868560547924,5899.005409775915
1.188,-0.3522380236364707,5893.285585181387
1.192,-0.3107638831872176,5898.690234997432
1.196,-0.2445406783403432,5909.074951108947
1.2,-0.15552671849256067,5917.006447468342
1.204,-0.0485496607550984,5891.331045681709
1.208,0.06786140002999358,5901.756125571145
1.212,0.18008595633744484,5900.105658989604
1.216,0.2690474853360218,5888.497222154881
1.22,0.31278890790694364,5901.844847600658
1.224,0.29293690709248044,5906.642534870716
1.228,0.2041416615941387,5895.654280986067
1.232,0.06370436018595892,5903.731635872824
1.236,-0.08241342286278508,5904.682908586519
1.24,-0.16070526346504796,5912.03542993413
1.244,-0.08035506651264203,5899.788257729143
1.248,0.2478044625705741,5895.890313199265
1.252,0.8869570973224015,5893.497029315904
1.256,1.8507653313217187,5901.10220092538
1.26,3.088353385686957,5896.902449680619
1.264,4.4847307389469915,5904.083702695324
1.268,5.879761302477917,5896.273242376175
1.272,7.102310267647923,5899.066817959231
1.276,8.009601064075245,5904.844843314697
1.28,8.519085588819499,5902.081390505676
1.284,8.623186198713091,5897.032850137744
1.288,8.383951258446665,5898.889644876493
1.292,7.91117360576383,5909.405774092918
1.296,7.331614986936287,5896.027722612681
1.3,6.758375547785172,5895.109928972446
1.304,6.268437787574692,5897.650445549267
1.308,5.893257363651981,5903.927061104263
1.312,5.622858432134412,5894.653831471964
1.316,5.419928574414029,5896.795732695246
1.32,5.238249835186628,5899.502585627885
1.324,5.039612592893576,5901.31619318514
1.328,4.804685852882429,5895.0346571489445
1.332,4.535704658574736,5891.439399628785
1.336,4.251642975323092,5900.740776255058
1.34,3.978852057490583,5900.795556117477
1.344,3.741158838261947,5901.564263378837
1.348,3.552825528199096,5895.263291657935
1.352,3.4159642052960866,5894.842123820757
1.356,3.3219911041620236,5900.880025363573
1.36,3.2554793616220303,5887.981602778253
1.364,3.1986234452302686,5904.851041282679
1.368,3.135079490479177,5899.076696293679
1.372,3.05260567905778,5902.373639510526
1.376,2.944362493560416,5901.184049438978
1.38,2.8090206679659167,5904.64443498026
1.384,2.650131661967804,5894.997958980261
1.388,2.47538577424865,5901.794612830578
1.392,2.296140853790771,5895.302665600822
1.396,2.127029480676264,5903.799388246139
1.4,1.9849254873132278,5893.744342663633
1.404,1.8865038557264935,5902.036914826986
1.408,1.844363363550106,5904.990045023654
1.412,1.862884962821827,5904.510292755964
1.416,1.9356717652025306,5906.46261568513
1.42,2.045874634431659,5895.56944460539
1.424,2.1693347357432082,5893.0292666569485
1.428,2.279249836323897,5906.596001547485
1.432,2.3507723132192084,5895.105262939929
1.436,2.364674339412691,5898.499539194297
1.44,2.310160232989571,5897.947555253389
1.444,2.1869609214591246,5897.062953199968
1.448,2.0060258537096765,5899.423407566469
1.452,1.787793952792465,5899.951495829783
1.456,1.5580658478150569,5896.253518306944
1.46,1.3429728941725383,5902.901642316246
1.464,1.164854559047268,5898.117825848512
1.468,1.0398146421589713,5905.207329810192
1.472,0.976587263458965,5895.67284072434
1.476,0.976048310106753,5897.092567849139
1.48,1.0309905954703256,5889.0805218332325
1.484,1.1261826694277057,5891.8158490765
1.488,1.2392838018031545,5891.832886807319
1.492,1.343581763282468,5890.470293021836
1.496,1.4129322798374495,5892.827033937928
1.5,1.4277665171047829,5887.239891396418
1.504,1.3799769287723092,5883.47871934912
1.508,1.2749514458931805,5879.418908271158
1.512,1.1303981811359274,5886.081229129558
1.516,0.9725289766086332,5883.35929562443
1.52,0.8303292414355821,5877.873972714321
1.524,0.7288332180696415,5885.196625120204
1.528,0.6829254202053127,5871.01138493052
1.532,0.6935554882119027,5872.013454050373
1.536,0.7477382733697379,5871.818872797106
1.54,0.8224367530406328,5869.266255880654
1.544,0.8910042107518773,5879.457389154234
1.548,0.9299473534828501,5866.314230733709
1.552,0.9238251151285354,5876.422203202168
1.556,0.8671106578337702,5872.057612840109
1.56,0.7632463803124448,5884.191445691738
1.564,0.622123470821343,5862.914043035544
1.568,0.45732096359404767,5867.525126531863
1.572,0.28380121305052103,5859.83794756367
1.576,0.11603945428569275,5857.101708751254
1.58,-0.033711463301144586,5867.690136053332
1.584,-0.15711574646212084,5864.139707961808
1.588,-0.25107271410395876,5867.562667604422
1.592,-0.31800601835200343,5855.96654048782
1.596,-0.36458549872144524,5866.44775700954
1.6,-0.3989714181607063,5855.886526605032
1.604,-0.42748294983728274,5850.093496379641
1.608,-0.4519811830793425,5851.252253012675
1.612,-0.4688953772526469,5838.911305581589
1.616,-0.4700910947232013,5851.651103644416
1.62,-0.4453242282817811,5854.723757996723
1.624,-0.3858666391910816,5847.543769589595
1.628,-0.2885103301967238,5842.90199543922
1.632,-0.15856751779361522,5846.712956822283
1.636,-0.010440858168822955,5848.373907101171
1.64,0.13476097063699227,5846.155195733056
1.644,0.2538396077412597,5842.733569507628
1.648,0.32690158910408035,5852.201879099182
1.652,0.3420977830832729,5846.724150208631
1.656,0.2986419867316081,5848.126023896592
1.66,0.20735716482955022,5850.774666524422
1.664,0.08833710468570763,5840.932496012177
1.668,-0.03403252517883988,5835.746513513962
1.672,-0.13754759331917552,5833.023456305615
1.676,-0.2082776081266036,5837.487727152128
1.68,-0.2442193060157938,5834.853797271688
1.684,-0.2550774177314015,5834.410932923533
1.688,-0.25819352037701815,5839.428014951595
1.692,-0.2723350897750311,5831.288009676394
1.696,-0.3118742583376487,5835.824530212666
1.7,-0.3831979918673899,5835.940666183467
1.704,-0.4836634002657846,5835.898649359334
1.708,-0.6024096424710259,5843.556198642458
1.712,-0.722432753608012,5841.902921364344
1.716,-0.8237903790262705,5831.345254822251
1.72,-0.8876977962189765,5833.608214459768
1.724,-0.9006768065608987,5837.555801849945
1.728,-0.8576349995555036,5831.675378056479
1.732,-0.763098583552884,5830.016720837336
1.736,-0.6303349683435859,5839.956427172622
1.74,-0.47847276883781137,5825.70190084729
1.744,-0.3281576498367886,5829.669343674867
1.748,-0.19682784955694718,5836.575483697959
1.752,-0.09501659141627032,5837.704952767673
1.756,-0.024887136540832692,5821.048984092646
1.76,0.018560305961236513,5821.004610869279
1.764,0.04424060512599203,5826.480968220462
1.768,0.06111358118434003,5820.193524858133
1.772,0.07512209062516001,5823.3020328230405
1.776,0.08774240378904942,5832.955335851806
1.78,0.09625782650285408,5827.612039199549
1.784,0.09542781218889096,5821.944739205217
1.788,0.0799358113733379,5830.396681887476
1.792,0.04672533424659528,5821.662605705653
1.796,-0.003757925621750955,5818.843036893609
1.8,-0.06794533283850844,5826.613358874332
1.804,-0.14064130926873789,5824.657865432331
1.808,-0.21624274983186229,5818.470101056389
