时间(s),电压(V),幅值(高频80K)
0.0,-0.17438899862732157,5893.824067652424
0.004,-0.3020883849627707,5895.830534512159
0.008,-0.42136704218601506,5900.565419478164
0.012,-0.5251581080252801,5908.117543108255
0.016,-0.6077520378129051,5901.280940111767
0.02,-0.6648627645611075,5902.630076740106
0.024,-0.6933173777041971,5906.738655996301
0.028,-0.6911917361019372,5898.7628022041135
0.032,-0.6590837995367577,5896.368905096563
0.036,-0.6020929634371389,5906.915542167368
0.04,-0.5308382231124819,5893.941914850407
0.044,-0.4599326840245111,5901.720902416603
0.048,-0.4039677856209471,5909.908068790512
0.052,-0.3728723161393153,5895.256374267221
0.056,-0.3690253790074314,5896.893181147812
0.06,-0.3874903803645138,5895.229864946273
0.064,-0.419120831075896,5903.936801770043
0.068,-0.45508739271750276,5889.010667803619
0.072,-0.49086946968885314,5902.695630741477
0.076,-0.527819985109786,5892.603885501602
0.08,-0.5712622104794314,5895.02599039548
0.084,-0.6258658357307975,5894.8573711762765
0.088,-0.6908840057182002,5901.115480421862
0.092,-0.7581252541382515,5895.80274602035
0.096,-0.8137290055159025,5903.780235319714
0.1,-0.8423439142962307,5892.2495119372
0.104,-0.8312912028082067,5895.485325747219
0.108,-0.7732934622065298,5900.423913892114
0.112,-0.6678710017598808,5904.300092790024
0.116,-0.5218772555909136,5897.71261084758
0.12,-0.34895359014492183,5904.0626164132655
0.124,-0.16737796967292806,5890.796398558764
0.128,0.0034266932440335856,5910.494081044362
0.132,0.14644144953170155,5906.823901666683
0.136,0.24933841983016503,5898.443331820744
0.14,0.30525430561185385,5899.907061178461
0.144,0.31290526693855125,5895.837272833133
0.148,0.27689906371123146,5898.742134234436
0.152,0.20805689611216724,5909.179174698282
0.156,0.1227101579785021,5904.253288002276
0.16,0.04017751316299522,5899.7892796461365
0.164,-0.021428622809680296,5900.480544226961
0.168,-0.05005578872862121,5894.57072476213
0.172,-0.04368089596632382,5899.617125523517
0.176,-0.01167131727051979,5899.691117429796
0.18,0.027695778777034923,5897.167348806827
0.184,0.05337139007800955,5897.723175525831
0.188,0.04926966361386459,5899.808529134593
0.192,0.010389074574798632,5895.278944783757
0.196,-0.05536307634884668,5901.228682557041
0.2,-0.1303473864936336,5902.323460455457
0.204,-0.19385995896474936,5900.156799546417
0.208,-0.22947471672988665,5908.554645998807
0.212,-0.23028775467664575,5900.393445741423
0.216,-0.2004694866817527,5888.053228438494
0.22,-0.15316668979618794,5897.560559501138
0.224,-0.10604647103337196,5896.718468255445
0.228,-0.07612731450460962,5900.78642299867
0.232,-0.07516282642893675,5901.849776989554
0.236,-0.10634734682551601,5900.231855248167
0.24,-0.16292012760229455,5907.504929764496
0.244,-0.22920958543589093,5891.245624233043
0.248,-0.2843627818128229,5900.116321144534
0.252,-0.308233511910037,5902.875871972465
0.256,-0.2878448832645334,5908.06898447096
0.26,-0.22212139434378095,5903.078941830729
0.264,-0.12292795511503539,5903.518781041777
0.268,-0.011917202553517865,5901.619544490262
0.272,0.08557822234968118,5904.128331845373
0.276,0.14734746132998794,5897.332997509927
0.28,0.15962436022816726,5895.057438879437
0.284,0.11974732660241906,5910.855089202642
0.288,0.03616038435513384,5902.07139033522
0.292,-0.07369502261697129,5906.008843004742
0.296,-0.18722891150749377,5900.925723926541
0.3,-0.2819142283191649,5904.262095923962
0.304,-0.34076325638135496,5906.3503556326605
0.308,-0.35637598971975554,5899.681468817692
0.312,-0.3322952218772746,5905.057050114431
0.316,-0.2815106620352697,5899.522497695244
0.32,-0.2228486430105185,5899.350487606326
0.324,-0.17630788762957836,5896.613300992411
0.328,-0.15834962127103536,5901.170033270776
0.332,-0.17802041972599777,5898.779134049832
0.336,-0.23469336972026428,5899.571785439009
0.34,-0.31806298101389,5896.540854420951
0.344,-0.41067601341871324,5903.24584943121
0.348,-0.4926351821216031,5898.922402168563
0.352,-0.5472753494350979,5900.983347608108
0.356,-0.5660146916189441,5894.138581664294
0.36,-0.5506926012080452,5899.076165931643
0.364,-0.5125299184853174,5905.486993475168
0.368,-0.4680363085333592,5902.4268033883445
0.372,-0.43335338963709175,5911.1204477487245
0.376,-0.4191493770711374,5903.797981423163
0.38,-0.427857966163224,5884.750969810363
0.384,-0.4540195309969956,5898.729434278881
0.388,-0.4873467617413875,5895.047216114012
0.392,-0.5172133830656124,5911.8561544293325
0.396,-0.5367332021677513,5900.987346726131
0.4,-0.5447599683438465,5897.239948014279
0.404,-0.5450522077599985,5896.55833827009
0.408,-0.5431506913236958,5897.997164498364
0.412,-0.542664259824594,5907.973940893648
0.416,-0.5430237620791065,5889.507949399776
0.42,-0.5399285829040106,5901.072803090147
0.424,-0.5281014653619397,5901.381660116677
0.428,-0.504721552718847,5902.62510938932
0.432,-0.47176543373757013,5899.154671941984
0.436,-0.43626042024760414,5898.825282420827
0.44,-0.40853125454208944,5907.5212109122085
0.444,-0.39932997465146475,5900.2911588081815
0.448,-0.41694394184184214,5903.4703786729615
0.452,-0.46505045607200535,5898.996619674245
0.456,-0.5415379673627507,5895.463902093612
0.46,-0.6380907726495516,5904.428688424742
0.464,-0.74038672418713,5901.777037752676
0.468,-0.8292530161778532,5904.556025812597
0.472,-0.883388901864388,5904.659600194047
0.476,-0.8836934598114161,5895.89644534049
0.48,-0.8181941452689383,5896.275161756537
0.484,-0.6860361756119183,5897.028923662498
0.488,-0.49931009639309903,5897.815235816923
0.492,-0.2821050498495054,5898.458242669973
0.496,-0.06661659208937283,5898.4514338555455
0.5,0.11337436445940868,5899.225728394567
0.504,0.23045012307067234,5901.019894538032
0.508,0.2706967706743158,5896.103523535648
0.512,0.2374649076286581,5904.735156830125
0.516,0.1501330862638444,5902.423207432678
0.52,0.03810794657999949,5899.045476963839
0.524,-0.06794216488214969,5898.066450032239
0.528,-0.1446679313407706,5905.25327007224
0.532,-0.1816348936737716,5894.961999136375
0.536,-0.1823948582829615,5903.4850914127255
0.54,-0.1612906826168524,5895.474688626534
0.544,-0.13760936559122952,5894.005800886388
0.548,-0.12909133212906196,5910.863607061396
0.552,-0.14653946264017834,5903.740499201001
0.556,-0.19085760169191446,5899.651008414123
0.56,-0.25330425931308503,5902.271371994674
0.5640000000000001,-0.3188332531592195,5901.030260926132
0.5680000000000001,-0.3713221639756154,5905.793666118152
0.5720000000000001,-0.39884629904445995,5897.307016148504
0.5760000000000001,-0.397190749208006,5903.688772145999
0.58,-0.37040005756228345,5895.910155944511
0.584,-0.3282866455771683,5907.39441073308
0.588,-0.28217405834828496,5897.689882437931
0.592,-0.24094401453025643,5901.520624245253
0.596,-0.20907677755370901,5911.701631283902
0.6,-0.1871299006496739,5893.419741056287
0.604,-0.17383694467795222,5906.167851496361
0.608,-0.16830955915744064,5898.1114958323815
0.612,-0.17089873298409447,5907.132504167777
0.616,-0.1821824445618311,5908.526898803068
0.62,-0.20095595944167732,5896.185657005387
0.624,-0.22296364730814952,5906.036342026433
0.628,-0.2415111831022044,5904.052929517907
0.632,-0.24948659048066332,5897.729820368841
0.636,-0.24125063880540867,5900.184296602028
0.64,-0.21329397006418097,5899.535182142188
0.644,-0.16389543011315907,5896.626287618487
0.648,-0.09292833704305331,5896.385475962065
0.652,-0.0027626982385576845,5896.455726501502
0.656,0.09990113836245833,5903.529805016476
0.66,0.20274735555999124,5906.314320907355
0.664,0.2889772564565125,5907.052869784446
0.668,0.34144414006589763,5903.561559268292
0.672,0.34829630968199293,5899.692343946803
0.676,0.30754714416292106,5899.5068535800665
0.68,0.22851353967760477,5909.5720171221
0.684,0.12943465508858654,5902.944084303304
0.6880000000000001,0.03204275177294197,5904.545293795882
0.6920000000000001,-0.045001713054118236,5907.510311363131
0.6960000000000001,-0.09153384279370853,5890.94221761362
0.7000000000000001,-0.1084415739491533,5893.747536744457
0.704,-0.10662847364769322,5902.835697188289
0.708,-0.10265038409942345,5903.014145574263
0.712,-0.11227345277193433,5903.141031124978
0.716,-0.14407724451549095,5895.920054180579
0.72,-0.1955149788130687,5903.055707102234
0.724,-0.25314709900046606,5896.948085224956
0.728,-0.2972471604296598,5907.245412455616
0.732,-0.30924008333524455,5900.557085850632
0.736,-0.27920662443423944,5906.147384950061
0.74,-0.21057112058939517,5909.867053407464
0.744,-0.12021707013600334,5907.149703044363
0.748,-0.03416878123446565,5894.631044280265
0.752,0.019308585613444205,5909.022963999369
0.756,0.016759705068336808,5903.8851910800495
0.76,-0.05495917369226735,5896.356362410525
0.764,-0.19532054196911786,5896.523802873599
0.768,-0.3890634283693318,5910.786316977013
0.772,-0.6077747903079052,5904.44978149371
0.776,-0.814452760215733,5904.214700039494
0.78,-0.9706980620622504,5894.216215772042
0.784,-1.0450592560218785,5900.73478137685
0.788,-1.0202359321990584,5909.217693374367
0.792,-0.8970316957828021,5893.616534771628
0.796,-0.6941374789429106,5904.277193527682
0.8,-0.4441840526443381,5893.714157552166
0.804,-0.18729161875368147,5902.102351939206
0.808,0.036447745927047914,5902.859264615543
0.812,0.19417967685854842,5911.090451118836
0.8160000000000001,0.2659785136258243,5905.352741067236
0.8200000000000001,0.2480238127127957,5902.501503426771
0.8240000000000001,0.15257248113437158,5895.303098666892
0.8280000000000001,0.004648712872566851,5904.601570624872
0.8320000000000001,-0.16365613613499405,5898.076510845071
0.836,-0.31956358410388,5902.208220058269
0.84,-0.4349698553766797,5908.01556479338
0.844,-0.48996494387308687,5901.703204145279
0.848,-0.4747027625368971,5899.150277962591
0.852,-0.39023415314997933,5895.655883245646
0.856,-0.2485826163137356,5901.760793618545
0.86,-0.07169494374954773,5898.502501450794
0.864,0.11141057073197222,5907.613593251485
0.868,0.26951030476925913,5915.198689953652
0.872,0.37524431746794545,5896.412510677489
0.876,0.4107769413488784,5908.367059742409
0.88,0.37140776472855447,5906.51270102157
0.884,0.26609027487732967,5893.745458711551
0.888,0.1146990321500959,5897.7707025790905
0.892,-0.05712083130028769,5908.57648018315
0.896,-0.2238950924527238,5898.057525916116
0.9,-0.36528010545843737,5907.121975408801
0.904,-0.46881724177507567,5900.956456401863
0.908,-0.5301256133574046,5907.572260294902
0.912,-0.5510427700816476,5900.433596074561
0.916,-0.5368760476015857,5902.400588971796
0.92,-0.4940924384251814,5901.182003113765
0.924,-0.42933795823395066,5905.084945100149
0.928,-0.3498536358392386,5906.310334148752
0.932,-0.26453850899897086,5890.590268438077
0.936,-0.18451881481002086,5899.229149375182
0.94,-0.12234638321828328,5900.818592203017
0.944,-0.08970532667291782,5893.261893307386
0.948,-0.09435787165709959,5904.708889634172
0.952,-0.1376010242081712,5898.18166341253
0.956,-0.21338151682963657,5901.115281821127
0.96,-0.3094593400808335,5902.074532300118
0.964,-0.4102238093000534,5896.967165145918
0.968,-0.5004010782917643,5909.463089126089
0.972,-0.5687154562663017,5903.760174708084
0.976,-0.6104072723939502,5905.25136615049
0.98,-0.6277417873146983,5898.170613182614
0.984,-0.6283512080509939,5902.87040743157
0.988,-0.6219209523680592,5888.653314698191
0.992,-0.6161811914864161,5895.444524839233
0.996,-0.6136145228965196,5906.836541011705
1.0,-0.6103919009515641,5898.018668274856
1.004,-0.5981816454690047,5911.99279405321
1.008,-0.5679877488131254,5900.081691842212
1.012,-0.5142088447203295,5902.053493806979
1.016,-0.4373042595694836,5899.870111517389
1.02,-0.3444043520181062,5900.714975392772
1.024,-0.24804679075020775,5888.258331193932
1.028,-0.16350653368111426,5899.191792309087
1.032,-0.10521537745962113,5903.984043903006
1.036,-0.08302142402201464,5898.468785331732
1.04,-0.09939701376785738,5909.366170002142
1.044,-0.14859302696491136,5900.773135895675
1.048,-0.21800180769295588,5901.62809192256
1.052,-0.2911131326429148,5892.984685756945
1.056,-0.35097783911269426,5908.243344354847
1.06,-0.3831991095580683,5905.578492717865
1.064,-0.37795256082806844,5900.297284074561
1.068,-0.33108242573635455,5899.203396767672
1.072,-0.24464725658473674,5897.803846238323
1.076,-0.12715143286349467,5907.465856730775
1.08,0.006832931261255972,5910.035969022105
1.084,0.1382959626428754,5899.98410339772
1.088,0.24692208877404467,5891.822924700914
1.092,0.3150611205674991,5906.467595835946
1.096,0.33127713410484794,5905.855463890831
1.1,0.2924437448848086,5899.184541992187
1.104,0.20409040057347116,5894.370137722591
1.108,0.07926958548194758,5899.412569625675
1.112,-0.0636842817697874,5893.156036264143
1.116,-0.2042525061367445,5898.163782283399
1.12,-0.32339194352795386,5898.282274695882
1.124,-0.4071540897462174,5894.793567065726
1.128,-0.4493268635105871,5891.97022972353
1.132,-0.4521294275790123,5896.436702510187
1.136,-0.42442171392083805,5905.8671420805695
1.14,-0.3777751692915072,5890.543660197045
1.144,-0.32183613594600996,5893.771057632582
1.148,-0.261037691095042,5896.094606384445
1.152,-0.194204560160194,5896.7244709821
1.156,-0.11711583811268557,5898.529925759725
1.16,-0.02666169245406853,5898.695869181629
1.164,0.07535014236757576,5904.045805472657
1.168,0.1804542496526851,5901.140553343721
1.172,0.27485139995557895,5911.543383304308
1.176,0.34361132071536826,5895.34420260642
1.18,0.376047932115692,5901.831581265844
1.184,0.3695765387172067,5901.6073289675205
1.188,0.329996824014495,5895.129368437003
1.192,0.26821190588495414,5900.3783226898295
1.196,0.19531122598797515,5906.810834651727
1.2,0.1184725986143842,5900.6290329209205
1.204,0.03943284713283399,5892.008383817641
1.208,-0.04397546079123655,5902.227625439727
1.212,-0.1341469942696718,5900.574096662932
1.216,-0.22994872358022558,5904.713417876605
1.22,-0.3250112472825557,5893.815596466856
1.224,-0.4089130593082602,5904.477022758403
1.228,-0.47042549033066156,5896.877923793806
1.232,-0.5011734023897197,5902.924905461452
1.236,-0.4982931986737233,5893.5005896605535
1.24,-0.4652063804689777,5904.81866258581
1.244,-0.4102102579688718,5903.449394054521
1.248,-0.34345873882766015,5903.939826880172
1.252,-0.2737059740612023,5887.439903321776
1.256,-0.20616337093693624,5896.379199588992
1.26,-0.14207906321013253,5895.718809052842
1.264,-0.0799777249142286,5895.949032697261
1.268,-0.018081337956932318,5900.144871114357
1.272,0.043144242709775585,5895.772582922708
1.276,0.09987235473292559,5901.527346310368
1.28,0.14624276109895207,5901.31143654672
1.284,0.1774103921719394,5891.833454467473
1.288,0.19211818678103731,5892.433050401422
1.292,0.1929498156316179,5902.265971169476
1.296,0.18430810335392586,5905.466681192589
1.3,0.16978007963689096,5892.938363100973
1.304,0.15064732210473186,5901.342425496912
1.308,0.12619295471675201,5894.719864565603
1.312,0.09518943518524585,5898.447100748018
1.316,0.05733447307594053,5907.087268419033
1.32,0.013713482720259242,5900.470141599519
1.324,-0.03371252915832159,5906.10496596908
1.328,-0.0828328153245109,5900.0697622302505
1.332,-0.13158126449211052,5899.165553071112
1.336,-0.17752409803021182,5905.627503771007
1.34,-0.21735504148428145,5902.135982864694
1.344,-0.24682822139960323,5893.630577046601
1.348,-0.26142089943699787,5898.197851514016
1.352,-0.25794477055546844,5904.519027672191
1.356,-0.23700568611125516,5895.61157505969
1.36,-0.20520989158134584,5905.430369935143
1.364,-0.17521581240034764,5899.074525940696
1.368,-0.1624952486542341,5900.830437466317
1.372,-0.17978130268721954,5901.823871407191
1.376,-0.23182908121354923,5902.467193569339
1.38,-0.3129517343541123,5900.026787818868
1.384,-0.40821099604820704,5902.107325385133
1.388,-0.4974304821705761,5896.917074893928
1.392,-0.5602759546070847,5905.186242068066
1.396,-0.5807878184133864,5905.872804062656
1.4,-0.5506409647359979,5898.027476260391
1.404,-0.47112139986989643,5897.128948625718
1.408,-0.35365060409257504,5899.084843144496
1.412,-0.21817257425690242,5897.791581028412
1.416,-0.0889518758439266,5899.750545660565
1.42,0.011467675988201167,5903.075572238464
1.424,0.06814171682347851,5899.178268574104
1.428,0.07722104087991159,5897.881941948965
1.432,0.04594578049969801,5898.352206446814
1.436,-0.010378234577590139,5903.217778385228
1.44,-0.07300466265310686,5900.12147707309
1.444,-0.1246406502015203,5904.173313893869
1.448,-0.15376114359360504,5903.190724511589
1.452,-0.15768511402273397,5894.467682535692
1.456,-0.14360670278207638,5897.019140697198
1.46,-0.12682278889717194,5905.747610768434
1.464,-0.1260594883907261,5893.925265027856
1.468,-0.1569277038869734,5894.9476876150175
1.472,-0.22563418307320063,5903.936291408954
1.476,-0.32549673016527847,5893.415281533897
1.48,-0.43802438387931475,5912.964452919931
1.484,-0.5384883290128271,5902.350649237402
1.488,-0.6039681555109824,5902.159886426681
1.492,-0.6208412111838537,5900.720674963751
1.496,-0.5890653635776325,5908.092772486962
1.5,-0.5220308153234702,5906.041416475073
1.504,-0.4423155189505711,5906.568194459849
1.508,-0.37475712399384953,5900.916727230186
1.512,-0.33892179902097525,5894.118668674035
1.516,-0.34338678475345097,5893.610652000641
1.52,-0.3838052999406285,5892.303937832715
1.524,-0.4452056980537508,5901.920274388019
1.528,-0.5071635581758944,5903.085997437178
1.532,-0.5496345966331913,5898.151679550702
1.536,-0.5577155378620499,5893.951222082311
1.54,-0.5246266476161974,5901.028737373429
1.544,-0.4528815630513425,5908.492913972062
1.548,-0.3537310173030034,5893.348038255074
1.552,-0.24491753810451078,5904.124203926346
1.556,-0.14695574351873394,5898.052919657811
1.56,-0.07858420898721774,5899.168468889801
1.564,-0.05242394906776717,5899.195737102844
1.568,-0.07196199948961532,5902.030267967857
1.572,-0.1307133452874381,5898.877844566271
1.576,-0.2138814440851151,5904.75008029216
1.58,-0.302167405354305,5903.919225376861
1.584,-0.37675514787759207,5899.342815716736
1.588,-0.4241220880542893,5896.764936257548
1.592,-0.4393410750640616,5893.504448650913
1.596,-0.42697451633210265,5892.618257982265
1.6,-0.3993472629820818,5898.926817415588
1.604,-0.37266766026573656,5895.150594116617
1.608,-0.36202321713962854,5903.818834188369
1.612,-0.3766681157085235,5901.113598160146
1.616,-0.41707741415598826,5899.970826104354
1.62,-0.4747990744463532,5896.301938230481
1.624,-0.5352842782183731,5898.92782313327
1.628,-0.5828695307378654,5897.41630160362
1.632,-0.6062102671694602,5895.0383703736925
1.636,-0.6021560290035796,5896.670903075314
1.64,-0.5766203434398779,5894.981981164258
1.644,-0.5422176813590525,5897.9946823507735
1.648,-0.5137466138511969,5902.906898349526
1.652,-0.5033965276422697,5895.678231302823
1.656,-0.5173831567722086,5904.072172403437
1.66,-0.5546933747908906,5899.292873741597
1.664,-0.6076075487105854,5894.333099142382
1.668,-0.6633937595661957,5906.921351942652
1.672,-0.7068068494664678,5908.546248190432
1.676,-0.7231352666252914,5900.770395355088
1.68,-0.7013653782153867,5898.848764696591
1.684,-0.6368576474785428,5901.021175219201
1.688,-0.5329636332295563,5901.358408431016
1.692,-0.40123049120826626,5898.272842218172
1.696,-0.2600462194401071,5894.486196690082
1.7,-0.13165519912060036,5901.057468979807
1.704,-0.03764067566309602,5903.651076108513
1.708,0.006428023111326868,5900.488289682572
1.712,-0.0043892635070064585,5909.937107126179
1.716,-0.06241545724197574,5899.544850858096
1.72,-0.14898377856389783,5901.289255866655
1.724,-0.23902871450809451,5897.366939591069
1.728,-0.3068706943181567,5899.842924443559
1.732,-0.3314911684585087,5906.170228655653
1.736,-0.30032951838012506,5899.826324433317
1.74,-0.21127633609050875,5899.899457110718
1.744,-0.07293456641108173,5893.668275752041
1.748,0.09661363743472615,5900.961121731474
1.752,0.2724649745472774,5902.806954515516
1.756,0.42701944775502404,5898.843113292012
1.76,0.5351025950753712,5894.4159927746605
1.764,0.5788753416670854,5890.05298457049
1.768,0.5512169193738496,5898.746625526979
1.772,0.4568184713468097,5897.77768259407
1.776,0.31082223471107023,5912.235062223209
1.78,0.13527533212701806,5905.882914543527
1.784,-0.04583147884343029,5901.811975730069
1.788,-0.21158257433091035,5901.429469002805
1.792,-0.34759833090149306,5904.771602348866
