时间(s),电压(V),幅值(高频80K)
0.0,-0.15617948023449868,5902.191871980914
0.004,-0.11442247515573263,5896.525409728222
0.008,-0.08490695752462159,5891.676793690114
0.012,-0.07535360450201972,5898.26137615691
0.016,-0.09015716631123968,5888.900688037078
0.02,-0.1303242364753578,5892.361375093251
0.024,-0.19344795199212297,5899.965794664276
0.028,-0.27305684325982127,5893.655507052781
0.032,-0.3578050655913396,5897.51900470294
0.036,-0.43174353713266495,5903.983758109819
0.04,-0.47656423278729454,5896.033838620944
0.044,-0.47576087157175173,5902.691021670703
0.048,-0.41982420495525075,5901.92269280795
0.052,-0.3109017795840134,5894.427249346596
0.056,-0.1648549681781522,5894.367873957974
0.06,-0.009056995153676382,5911.262504702658
0.064,0.12398322960997533,5902.643454047685
0.068,0.2048989470371556,5907.685262209997
0.072,0.21439792962634016,5895.298116278558
0.076,0.146692887918282,5892.525811424286
0.08,0.009483585328836497,5894.848568842024
0.084,-0.1780589569895709,5898.874815855267
0.088,-0.38821867023994167,5904.471335798756
0.092,-0.5886059913447979,5896.375275956415
0.096,-0.7472501255227831,5890.316319948293
0.1,-0.8383113082258964,5893.586499879887
0.104,-0.8470708528830911,5907.61889922429
0.108,-0.7730814513523367,5909.156458829258
0.112,-0.6309924849585093,5902.072202606192
0.116,-0.4487700342256061,5905.855788199084
0.12,-0.2629196115782635,5899.891677350114
0.124,-0.11077213564950733,5906.170416696392
0.128,-0.021357180666385277,5902.501529777851
0.132,-0.007938774029112142,5895.178365138457
0.136,-0.0652838217566019,5899.781048287888
0.14,-0.172623035024858,5895.4755394132135
0.144,-0.3004516610613532,5893.62152748768
0.148,-0.4179554604945386,5897.144229482325
0.152,-0.4987899549824139,5906.339805014253
0.156,-0.5249668337767825,5896.91447695307
0.16,-0.48971914323184307,5899.652837391009
0.164,-0.39962023938549274,5894.783419857498
0.168,-0.2749155564009441,5897.185524323944
0.172,-0.14657036623455844,5902.73900713501
0.176,-0.049488061765141,5901.609236408483
0.18,-0.013065468390560653,5898.716941779502
0.184,-0.051870349990781085,5904.059635978524
0.188,-0.160013408510567,5899.393441954121
0.192,-0.31192175254242227,5894.616963183065
0.196,-0.4695727394205824,5893.331741881251
0.2,-0.5933263816323695,5888.601402082371
0.204,-0.6523483304928569,5899.808932976248
0.208,-0.6315734799248941,5903.309073846673
0.212,-0.5338474513441478,5897.747450643007
0.216,-0.37732649021153924,5904.3801730807245
0.22,-0.1894660446699065,5907.068413895751
0.224,0.00010381244200354175,5896.890254478202
0.228,0.16534951221336733,5896.365897012234
0.232,0.28668732605280817,5894.339004926947
0.236,0.35109067182490017,5906.839915196985
0.24,0.3512916976912532,5906.589367966786
0.244,0.28608484082996444,5898.149913969482
0.248,0.16194382422952533,5899.673295621742
0.252,-0.005880350214656795,5893.340460833885
0.256,-0.19469694042308663,5894.067987339561
0.26,-0.3782259370969186,5898.845097701485
0.264,-0.5313695198888477,5895.940736062121
0.268,-0.6342503998475881,5898.308192835572
0.272,-0.6748395483491406,5902.222589373662
0.276,-0.6502441094652541,5900.855296167511
0.28,-0.5668542006305757,5908.312850288053
0.284,-0.43947027127681565,5898.899313737518
0.288,-0.28954027132698745,5903.282841789834
0.292,-0.14261489716880082,5903.387246634106
0.296,-0.024998367318748205,5908.998472945515
0.3,0.04046752657668558,5895.587644356664
0.304,0.039219245529963566,5897.387450863055
0.308,-0.030580977530507404,5897.214957631083
0.312,-0.15556928851961682,5905.198010166924
0.316,-0.30824867995985844,5912.842639784702
0.32,-0.4522337146871102,5893.869945356559
0.324,-0.5507806651232278,5901.248581989898
0.328,-0.5763131624202863,5901.482317154762
0.332,-0.5180753887145105,5897.25541960218
0.336,-0.3855486384098073,5898.905476896427
0.34,-0.2065038506564057,5900.736609402736
0.344,-0.019991325161442246,5894.062348003702
0.348,0.1340049996849679,5902.330723757517
0.352,0.2252050860672852,5893.688304877182
0.356,0.24038149469939055,5908.574907633219
0.36,0.18490798300998929,5907.054425570497
0.364,0.07842078576916459,5894.693093060871
0.368,-0.05313682029784708,5896.855695387356
0.372,-0.18575634361991286,5897.573225886621
0.376,-0.30301571704379243,5895.741062522604
0.38,-0.39776425392688314,5902.032894611578
0.384,-0.4702192334213383,5902.931556620997
0.388,-0.5240338177107348,5899.6905654496295
0.392,-0.5621853090675973,5904.407175665551
0.396,-0.5842156991612366,5901.985755587322
0.4,-0.585753926218332,5904.054055036269
0.404,-0.5604150908494598,5895.07729560036
0.408,-0.5032338934664365,5898.679816667347
0.412,-0.41412460829077985,5901.789830459627
0.416,-0.29977933955441605,5901.771285571168
0.42,-0.1730196871366273,5892.238159891283
0.424,-0.049786553324868775,5900.7785169728695
0.428,0.054861177906662534,5903.725408243828
0.432,0.12997371311256822,5900.070930086968
0.436,0.17008142452047637,5895.002452917592
0.44,0.1747942230197067,5886.092558068019
0.444,0.14754049884779777,5903.655668976971
0.448,0.09452620637994306,5895.221739361226
0.452,0.024564606471004665,5902.580073301824
0.456,-0.05045552302754462,5905.837061751449
0.46,-0.1155572361503182,5896.523928609643
0.464,-0.15429086066881614,5895.448553047465
0.468,-0.1522085835205718,5903.155836060028
0.472,-0.10119109539204511,5892.43804441939
0.476,-0.0029627403922642733,5899.353489612592
0.48,0.12972085677850875,5904.715071123243
0.484,0.27497188324076466,5897.19095536867
0.488,0.40647233009373507,5907.45735981752
0.492,0.4998496996393508,5902.670546630365
0.496,0.5391527415581036,5893.558830208895
0.5,0.5215616085374469,5893.728525362664
0.504,0.4584052371593744,5898.705981069002
0.508,0.3713766313979159,5915.316729945829
0.512,0.28475927139051366,5888.945657072029
0.516,0.21657207168821763,5910.265458632469
0.52,0.17233704838912112,5900.696506822602
0.524,0.14399177814657463,5902.801398169015
0.528,0.11406385135898552,5895.833191194132
0.532,0.06309542788282387,5902.001885316953
0.536,-0.022569638426523188,5900.896092929289
0.54,-0.1451826752959305,5891.6307238837135
0.544,-0.2937023617544121,5907.5590084209125
0.548,-0.4459674385326185,5896.635319626535
0.552,-0.5742579509012858,5902.064434146181
0.556,-0.6527899515086626,5894.186874196437
0.56,-0.6650436796018689,5915.336575239113
0.5640000000000001,-0.608556199009681,5905.261033414432
0.5680000000000001,-0.49540837469319926,5900.212106683303
0.5720000000000001,-0.3481328492693224,5901.724109057332
0.5760000000000001,-0.19255564842694636,5898.725494368574
0.58,-0.05031701805727466,5906.214358054704
0.584,0.06618500820911936,5901.412583403403
0.588,0.15495959276655974,5900.205098253577
0.592,0.22198316770273754,5902.309280511027
0.596,0.27671541315277537,5892.588926166055
0.6,0.32747482869475886,5900.039130672581
0.604,0.378051715657499,5902.516287346906
0.608,0.4260333727380939,5906.429851813739
0.612,0.46279068687137986,5902.07900077315
0.616,0.47518198790239785,5905.815854046487
0.62,0.44912333028257484,5899.57358208914
0.624,0.37457022659934586,5905.660323424105
0.628,0.2503797535091911,5899.827705376288
0.632,0.08692667445134847,5900.29505420882
0.636,-0.0950357522824258,5900.232831640062
0.64,-0.2691798112909725,5903.89058387548
0.644,-0.4103936039399175,5888.676663061025
0.648,-0.5011954038643123,5920.51944191465
0.652,-0.5358267833975803,5897.319330117414
0.656,-0.5211152629723277,5908.504867363478
0.66,-0.4742107473242166,5905.3397779852885
0.664,-0.4180427315395629,5895.512822880039
0.668,-0.3758331335659149,5902.67997176958
0.672,-0.3660898837288278,5909.596659823959
0.676,-0.3990926697093487,5895.079683791289
0.68,-0.47522859399838124,5898.969675856367
0.684,-0.585054355101957,5902.027582844016
0.6880000000000001,-0.7108342901813125,5904.945323138489
0.6920000000000001,-0.8293475867836606,5902.771051656965
0.6960000000000001,-0.9156953310567669,5896.656170046555
0.7000000000000001,-0.9477140854489685,5905.175966255845
0.704,-0.9105351853798322,5905.714274558372
0.708,-0.8006165057843939,5904.832122170045
0.712,-0.6282243807403475,5894.255072386164
0.716,-0.417335986961798,5900.56503187221
0.72,-0.20239681932783168,5910.485956411232
0.724,-0.02195380584728218,5897.634602859759
0.728,0.09006705033045193,5891.133512103747
0.732,0.11348270458521946,5901.91639853147
0.736,0.048356403921507425,5896.405508165682
0.74,-0.08391279974695572,5907.078073206051
0.744,-0.24589421248024482,5899.396442976155
0.748,-0.39435278017253667,5898.7871082282845
0.752,-0.4921141602405893,5900.867551850277
0.756,-0.5178645352688406,5894.387479404316
0.76,-0.4711271055393259,5903.203832684355
0.764,-0.3712924497830332,5907.567894328262
0.768,-0.25128818582684315,5900.013794058794
0.772,-0.14800778288026303,5899.763519898187
0.776,-0.09257524012410655,5898.848596659208
0.78,-0.10328503258754138,5909.986240262274
0.784,-0.1826429795934202,5903.049269396592
0.788,-0.31828798372299366,5897.490475241951
0.792,-0.48667949466471094,5899.725809813163
0.796,-0.6583830744222186,5900.053768472332
0.8,-0.8039305273861448,5905.798869360622
0.804,-0.8991606738102343,5892.456083198122
0.808,-0.9289523296937668,5896.830851709282
0.812,-0.888725352450392,5911.763397827306
0.8160000000000001,-0.783860711028115,5907.257009206201
0.8200000000000001,-0.6277606184975064,5910.123344409326
0.8240000000000001,-0.4392323811993042,5900.941428152591
0.8280000000000001,-0.23939360777435215,5910.363419007912
0.8320000000000001,-0.048151029305260655,5908.549774796044
0.836,0.1190408134865719,5896.943515921521
0.84,0.2527818731310425,5897.540973927535
0.844,0.34881908106454756,5912.287338233978
0.848,0.40525931808070664,5898.011660502325
0.852,0.4197984034097499,5900.032538339596
0.856,0.38889741951861717,5909.136854759564
0.86,0.3095952114522663,5900.738769844865
0.864,0.182895980084045,5899.622417757845
0.868,0.016561603278527858,5897.0286876301325
0.872,-0.1745475717492576,5898.11647122182
0.876,-0.370891636390442,5900.71259443594
0.88,-0.5520528551864322,5901.669193425749
0.884,-0.6999678416265134,5895.86954121603
0.888,-0.8004968498737898,5895.25415207362
0.892,-0.8435837872180401,5905.388194497069
0.896,-0.8229464850782036,5903.48349310561
0.9,-0.7361069487563119,5899.406047486793
0.904,-0.5851621331825434,5908.144718964731
0.908,-0.37825509263414064,5902.674713672032
0.912,-0.13115621550383502,5904.357537074951
0.916,0.13217715864254356,5907.536561836188
0.92,0.38131598206238954,5891.228558751226
0.924,0.583903605297134,5908.209695575919
0.928,0.7121982672040938,5895.659084349862
0.932,0.7495734556695718,5895.051004682939
0.936,0.6947104361908915,5901.832763708402
0.94,0.5620024726179689,5894.134400427597
0.944,0.3779940732291903,5899.132044559749
0.948,0.17497000698797424,5896.631654542146
0.952,-0.016342755859321184,5889.666457488399
0.956,-0.17287321867977354,5898.922833523671
0.96,-0.28269077718707225,5899.555288440946
0.964,-0.3455675096302351,5901.84828494936
0.968,-0.3711035057367654,5904.434468487281
0.972,-0.3750691662668713,5898.520447363375
0.976,-0.3746439178382002,5897.315030358412
0.98,-0.3835328603551258,5895.366995111533
0.984,-0.40825933186934765,5893.847236459552
0.988,-0.44678684647128636,5894.228369093364
0.992,-0.48989016623761805,5895.22592013763
0.996,-0.5246770026386173,5908.391033526913
1.0,-0.5389332957921594,5902.377649400316
1.004,-0.5249360830682138,5897.03329537679
1.008,-0.48190933713885503,5912.100267772536
1.012,-0.4168928682125705,5898.62736381575
1.016,-0.34407784071877223,5909.544990598019
1.02,-0.2826512900987938,5906.673981187285
1.024,-0.25320489018409725,5894.110957220377
1.028,-0.27304576563196326,5894.578236314187
1.032,-0.3512594666563792,5907.194823494559
1.036,-0.48488238479584966,5903.503584494911
1.04,-0.6576713591417427,5899.430387007666
1.044,-0.842401135515416,5900.122411534252
1.048,-1.0065078295242857,5902.72296175262
1.052,-1.1197260691063602,5897.656079819042
1.056,-1.1615723973068306,5897.984411244784
1.06,-1.1263993303743798,5905.042352569016
1.064,-1.0244526560493206,5905.335144600402
1.068,-0.8786989669524375,5897.794808239401
1.072,-0.7185650477043309,5898.547642367326
1.076,-0.5726139546882102,5897.250281194787
1.08,-0.462310905357354,5898.687043442902
1.084,-0.39837996722912367,5899.859015659101
1.088,-0.3801794642667665,5905.59215341941
1.092,-0.3976342722490178,5894.1427069728825
1.096,-0.4347895071691961,5905.882966205572
1.1,-0.47387356443629086,5897.746363641591
1.104,-0.4989743202590034,5901.8990680384
1.108,-0.4989867804952524,5890.431241845501
1.112,-0.46971132471602356,5896.184220289936
1.116,-0.4146191190729972,5903.693303360181
1.12,-0.34370299955236633,5901.918180067372
1.124,-0.27053443626517265,5907.854427605207
1.128,-0.20845021193525778,5901.198681855784
1.132,-0.16698441326495597,5897.286000993016
1.136,-0.1494230313405883,5898.357030702908
1.14,-0.15205381275388372,5903.596647348825
1.144,-0.16533196696718744,5898.577627608048
1.148,-0.1767794445503288,5897.380395205911
1.152,-0.17503048851773922,5907.519244210591
1.156,-0.15396512618993183,5902.088502262882
1.16,-0.11547062671243319,5899.451994140463
1.164,-0.06955614837776886,5895.580170896534
1.168,-0.03155206356491294,5897.374279436988
1.172,-0.01735373362030966,5895.987845451008
1.176,-0.03828889005994201,5903.793386245565
1.18,-0.09705929856364871,5889.509670034591
1.184,-0.18580598090311848,5907.170444019911
1.188,-0.28697181172681896,5898.493469554624
1.192,-0.3771265146303174,5897.48311896094
1.196,-0.43309471308573727,5892.025839019909
1.2,-0.438757966457476,5905.652572779497
1.204,-0.3902509335223116,5901.531660041529
1.208,-0.29747245945912004,5890.812796956542
1.212,-0.18113377002753156,5901.1944202069
1.216,-0.06645553912429154,5900.7238911189015
1.22,0.024042715951936345,5893.818101468715
1.224,0.07620317103907226,5909.05219123103
1.228,0.08690580947635564,5898.868354357187
1.232,0.06358768975391242,5905.996954596977
1.236,0.02133468933534345,5901.8912151636905
1.24,-0.021413001212172534,5901.315949198065
1.244,-0.04760276949870912,5904.132844302526
1.248,-0.04585602074041083,5894.755986835863
1.252,-0.01321794381943954,5900.917312957358
1.256,0.04455179889556926,5896.587538832081
1.26,0.11517476616136149,5906.687847968774
1.264,0.1835315067618117,5897.886187087518
1.268,0.23549252516695854,5894.837186378161
1.272,0.26089581820073626,5896.373552797444
1.276,0.2550557107780758,5895.906236787052
1.28,0.2185890567157363,5898.607218530545
1.284,0.1560378790095035,5904.687678022414
1.288,0.07445489396783019,5901.240498986921
1.292,-0.017011530316803754,5900.586576505616
1.296,-0.1066532843758825,5898.550630712735
1.3,-0.180187072104433,5897.772048064843
1.304,-0.22252123925575426,5898.637392948022
1.308,-0.22133570254206575,5900.506800769162
1.312,-0.17105068203467402,5901.358139882546
1.316,-0.07531104324422516,5896.411794034404
1.32,0.053095244807641134,5895.515976917974
1.324,0.19457210030841968,5906.830969791811
1.328,0.32608452903489743,5894.163777625604
1.332,0.4246407254720321,5890.327845847255
1.336,0.4709315534788389,5906.875903741528
1.34,0.4534362433924371,5907.870715215386
1.344,0.3722899043699917,5907.13660042172
1.348,0.24095084667196995,5910.07106445544
1.352,0.08377607382204191,5896.100106930368
1.356,-0.07058593925368621,5897.754171207021
1.36,-0.1977225865203843,5895.240015729193
1.364,-0.2843459649507652,5892.326924104192
1.368,-0.330576777668788,5900.472547748459
1.372,-0.34684364128048406,5885.487919123776
1.376,-0.34719896837424147,5900.778497102079
1.38,-0.3423693958062686,5906.875991655086
1.384,-0.3355547743951077,5902.8730796343625
1.388,-0.3222899204467345,5902.39087040393
1.392,-0.2937634492545286,5894.898928216295
1.396,-0.24185875376429714,5909.054860037872
1.4,-0.16401432101565108,5901.034404294057
1.404,-0.06633854111281363,5891.193820656529
1.408,0.036045193727530164,5898.498209263179
1.412,0.12169109452172844,5896.690186165423
1.416,0.16796493644305077,5894.689038369838
1.42,0.1572692719013836,5899.938784948368
1.424,0.08248425784421301,5904.557673732179
1.428,-0.050278972130924575,5894.381369740996
1.432,-0.22268342591605617,5893.177213156942
1.436,-0.4085472455593999,5897.2728437640735
1.44,-0.5800005941971754,5895.155406278399
1.444,-0.7134216142205506,5889.218628259666
1.448,-0.7935117683235127,5898.442169372894
1.452,-0.8147460910839485,5897.998091671276
1.456,-0.7805644440793934,5900.054510992261
1.46,-0.7014267153612493,5897.654095147052
1.464,-0.5926455082785208,5898.881453345753
1.468,-0.47209480060500814,5900.563734121909
1.472,-0.3575081788702103,5891.058317217313
1.476,-0.2635251524478001,5907.001710604237
1.48,-0.19927863696114717,5903.264552646452
1.484,-0.16736946156262142,5908.500300892532
1.488,-0.1644813934732959,5902.028614778507
1.492,-0.18320129587276876,5901.2494925601695
1.496,-0.2143219308721063,5895.976769693817
1.5,-0.2490057587051634,5900.738808630311
1.504,-0.2803288986022189,5901.794582898362
1.508,-0.30383289213121195,5897.511900196108
1.512,-0.3171386781175706,5889.504618463438
1.516,-0.31941248517773846,5887.537511385227
1.52,-0.3116761378209444,5892.370907341811
1.524,-0.29799708078834564,5898.698911619942
1.528,-0.2862496127022422,5897.793094348984
1.532,-0.2868958060525001,5901.5610896608005
1.536,-0.3094975827458741,5893.88801122094
1.54,-0.3583191307570421,5895.130723581849
1.544,-0.42913968541635245,5905.899087631309
1.548,-0.5090025957679384,5898.338778027556
1.552,-0.5794687436181784,5902.565283923458
1.556,-0.6224209447527796,5900.799822597417
1.56,-0.6261332408742581,5901.0663005472725
1.564,-0.5890055716041211,5905.914632679655
1.568,-0.5195266583697569,5906.979758081636
1.572,-0.4330551951422484,5896.096752044336
1.576,-0.34749404436947523,5905.361902239373
1.58,-0.2798593581839689,5906.437776282189
1.584,-0.2444544686223996,5904.276026049484
1.588,-0.25212888337328426,5894.645450051678
1.592,-0.30977086162554707,5896.167875468466
1.596,-0.41946023228685264,5900.912182560532
1.6,-0.5769274420207916,5896.852208901705
1.604,-0.768995345294463,5896.9352733373535
1.608,-0.9699423363517277,5908.0814819505895
1.612,-1.1376352651179775,5905.489207473913
1.616,-1.211708888121359,5903.009131124426
1.62,-1.117117874379402,5896.050883603088
1.624,-0.775814109245366,5905.218770821797
1.628,-0.12646437732207902,5906.917955168142
1.632,0.85223892694376,5900.522035348578
1.636,2.1229471618177023,5889.037423299284
1.64,3.584821362870869,5896.455496535003
1.644,5.087906650994992,5892.889120528067
1.648,6.4645100179274255,5901.032958213144
1.652,7.567475359315904,5901.926052993918
1.656,8.301964445803707,5892.68533881087
1.66,8.64073016348292,5909.405927401975
1.664,8.620266889984627,5902.592949352418
1.668,8.322220187286652,5896.099067939816
1.672,7.848273598784844,5894.464059746955
1.676,7.296806558844077,5897.4117190394745
1.68,6.746775324558954,5908.026074384944
1.684,6.250395511701314,5901.005335768651
1.688,5.833278053284678,5903.25626831982
1.692,5.499442731984639,5890.127417443399
1.696,5.238605079644721,5892.973845295737
1.7,5.0336260529081915,5893.085126866026
1.704,4.866657319602065,5892.614043632133
1.708,4.723121299395182,5896.36074443654
1.712,4.593288334620428,5909.044906191001
1.716,4.4719107832243505,5897.312026853427
1.72,4.356798981632798,5897.300757415527
1.724,4.2470384435418,5899.197754575596
1.728,4.141107753083419,5907.5551152499565
1.732,4.035169994652104,5896.399909065001
1.736,3.9222694243400076,5894.283451146662
1.74,3.7932135554776325,5904.347400608244
1.744,3.639105880714246,5910.008360554936
1.748,3.4545101679876544,5899.464858577511
1.752,3.239965598338846,5897.250472398608
1.756,3.0030456582921268,5894.13210918627
1.76,2.7577573931929047,5904.303136640849
1.764,2.5224448151061205,5908.842541712756
1.768,2.3165284824854555,5894.018942194303
1.772,2.156490357830179,5901.891909746211
1.776,2.0517120701930125,5902.128096931918
1.78,2.001300695049799,5905.848203647774
1.784,1.9934473349913289,5901.50154297047
1.788,2.0083165229599094,5903.666900623257
1.792,2.0239065783775234,5904.0215308037
1.796,2.022722023904017,5893.84613311646
1.8,1.9965064438033104,5906.173095369841
1.804,1.9470544872853668,5904.106480217635
