时间(s),电压(V),幅值(高频80K)
0.0,-0.9590636723153771,5891.381864951317
0.004,-0.8061793559925469,5899.783863973531
0.008,-0.647928850379178,5896.404569238145
0.012,-0.4806990649171182,5908.542096917649
0.016,-0.3047714680532287,5900.189671923236
0.02,-0.12679339325531835,5901.688656170712
0.024,0.03947337755587285,5889.453117867347
0.028,0.1755909558834726,5897.179673348732
0.032,0.26360471955120607,5894.78412648945
0.036,0.2918375752824767,5902.166994325337
0.04,0.2589230420469771,5891.519402884169
0.044,0.17459285488412707,5897.962895379922
0.048,0.05714162756519322,5904.948375558168
0.052,-0.07134756511849306,5904.082192910049
0.056,-0.19037586492798358,5906.960863580013
0.06,-0.2853599277342978,5899.856040451711
0.064,-0.34966669442062276,5914.180111431317
0.068,-0.38386133014890245,5903.2017632019
0.072,-0.3928336099405351,5909.500876744303
0.076,-0.38249160070289817,5901.100530342026
0.08,-0.35772943728774315,5899.887870239967
0.084,-0.3223005998429086,5912.729680433019
0.088,-0.2800192264011338,5896.033339238101
0.092,-0.2361112455390414,5886.021628310605
0.096,-0.19743912549448253,5893.611162343898
0.1,-0.17069764487158187,5901.215113491523
0.104,-0.15893030064679375,5898.273907019167
0.108,-0.15849167523158728,5898.601205619002
0.112,-0.15920888980284859,5894.236528480628
0.116,-0.14877141217090015,5903.299994181604
0.12,-0.11941828966763539,5905.628847970794
0.124,-0.07320736240798952,5894.932712055543
0.128,-0.02278488895966247,5897.640671897438
0.132,0.013048492772723191,5893.662350270431
0.136,0.017131198807759783,5891.356731440255
0.14,-0.01821340835525973,5896.05404662356
0.144,-0.08656654868704411,5900.685478042396
0.148,-0.16802018664605242,5900.877468194491
0.152,-0.23485684939918253,5905.09761104967
0.156,-0.26006384620685524,5901.749637574055
0.16,-0.22541995955575903,5890.956496897459
0.164,-0.126475813023294,5894.726302718302
0.168,0.02657051164154893,5905.819810880706
0.172,0.21150487805579374,5907.637836760231
0.176,0.39895430893734707,5896.418812054263
0.18,0.5582963144762487,5898.218235768431
0.184,0.6636431320749812,5904.640359167312
0.188,0.6987663410737718,5899.09804175129
0.192,0.6596909335669352,5901.576984191274
0.196,0.5543506841062051,5906.998030644202
0.2,0.4000766665128942,5908.30819416382
0.204,0.2204622789686083,5897.881819161435
0.208,0.04239075749634386,5893.8590129939785
0.212,-0.10723957975357802,5894.773620821688
0.216,-0.20556678456987193,5895.190051114685
0.22,-0.2378825384574544,5906.694259461265
0.224,-0.2004182599758117,5896.7982919844
0.228,-0.1010759155623872,5900.560447840495
0.232,0.04155113220377532,5896.682722633356
0.236,0.20026197782709357,5903.439153167727
0.24,0.34239882172396685,5901.875052408519
0.244,0.43453156088257905,5904.0722207157005
0.248,0.44875276368628386,5899.144664421615
0.252,0.3693838836588917,5898.492364421393
0.256,0.1978155066082064,5893.717506883053
0.26,-0.04653532454341794,5900.303481027368
0.264,-0.3296748410008145,5898.437044848984
0.268,-0.6097439715287697,5903.502203081564
0.272,-0.8448467726732062,5900.12263516978
0.276,-0.9998780854796752,5901.99214474389
0.28,-1.051198758957971,5902.179767720905
0.284,-0.9891895156640399,5906.355258554041
0.288,-0.8192344943455409,5899.096711106964
0.292,-0.5614138523904669,5901.431257483976
0.296,-0.24868829042495855,5903.0623353721485
0.3,0.0769041877120654,5901.682319907587
0.304,0.3703477934191054,5903.263176760682
0.308,0.5915506520707827,5909.366066433133
0.312,0.7133755186361921,5895.122779090684
0.316,0.7274829766561014,5905.070051261781
0.32,0.6461125692811969,5907.972101991665
0.324,0.49906865694661523,5902.65856365921
0.328,0.3264778612411941,5900.190073828918
0.332,0.1691431027231131,5896.215289144719
0.336,0.05922042231430076,5903.552312804358
0.34,0.013884737809237909,5898.380576154626
0.344,0.033415966124669724,5893.15454063702
0.348,0.1034367317524056,5890.20055255053
0.352,0.199888041192116,5905.733620277955
0.356,0.2950687424208466,5897.741924863057
0.36,0.36333470915028326,5901.060248681849
0.364,0.3855046519355949,5896.107090505161
0.368,0.3514915205167094,5909.37392629943
0.372,0.26109700616577214,5901.045649805924
0.376,0.12333937689300052,5903.41034524446
0.38,-0.044968342660978475,5906.962328284975
0.384,-0.22091580299762276,5895.522442972782
0.388,-0.37787319701522654,5898.28865972014
0.392,-0.4894498686403921,5894.17900281925
0.396,-0.5351622996917529,5899.168355955141
0.4,-0.5064324550602953,5894.0880102162855
0.404,-0.4106437956965692,5894.172063965181
0.408,-0.27142199303480813,5898.753161187745
0.412,-0.12464473162778458,5905.734126577006
0.416,-0.010988475882367272,5902.656513902741
0.42,0.03343063752579853,5896.13418651963
0.424,-0.013585806877924822,5894.111731906454
0.428,-0.15320214636789395,5894.391254171701
0.432,-0.3631027118770227,5898.583010488762
0.436,-0.6014291526422649,5898.204684472044
0.44,-0.8167841894542255,5900.023563941257
0.444,-0.9614957860171739,5906.02770444922
0.448,-1.0038823479493506,5907.449816422482
0.452,-0.9356617884925089,5902.808691831367
0.456,-0.772599508461996,5895.22202390713
0.46,-0.5490209238944933,5901.99339915049
0.464,-0.3087739556844744,5903.807103456883
0.468,-0.09568487948260351,5904.219658374077
0.472,0.054504811316101916,5886.261540818917
0.476,0.12010659992278633,5901.177696841204
0.48,0.09713167786283977,5896.790999348145
0.484,-0.00021318121011713396,5901.340528344027
0.488,-0.14336737133769267,5910.412268038658
0.492,-0.29772788483225987,5903.098330835624
0.496,-0.4332160683087472,5894.700816239449
0.5,-0.5329007166064639,5899.519366922233
0.504,-0.5957893489897567,5893.186032697623
0.508,-0.6327255027933474,5900.671369332898
0.512,-0.6577511595879969,5899.495051294318
0.516,-0.67914307402499,5897.216627493449
0.52,-0.6940162671836011,5910.059514895297
0.524,-0.688616841169595,5909.394689839042
0.528,-0.6440522293962145,5900.842204097632
0.532,-0.5450138232654493,5900.53564009052
0.536,-0.387946809175552,5894.746082036873
0.54,-0.185584892102251,5893.914617492012
0.544,0.033739350735391874,5898.592277372308
0.548,0.23196496296844685,5907.223249876569
0.552,0.37086434461465156,5900.5508171876745
0.556,0.4225541029694961,5894.7858529849145
0.56,0.37755221930995436,5893.728031686077
0.5640000000000001,0.24753479857222044,5904.899616414795
0.5680000000000001,0.061837213779728076,5898.281926040997
0.5720000000000001,-0.14080170772778566,5903.482810538519
0.5760000000000001,-0.32210731191416625,5905.01374559782
0.58,-0.452677624345306,5908.4154306018345
0.584,-0.5171664500419546,5899.158296311623
0.588,-0.5157586190748121,5899.609636066126
0.592,-0.4622105563136344,5899.301155656644
0.596,-0.37926565673375295,5897.291651962978
0.6,-0.2926831812979834,5910.6946818890265
0.604,-0.22527879937424417,5898.204564020753
0.608,-0.1922769457784274,5890.169889109137
0.612,-0.19892098431719996,5896.400513438309
0.616,-0.24060345480926335,5900.895174670877
0.62,-0.3050020044318245,5891.441171687589
0.624,-0.37528639522990637,5907.99704481737
0.628,-0.4335661076729576,5907.635544689509
0.632,-0.46412306995239105,5902.859612390951
0.636,-0.45622146503089533,5901.395947458011
0.64,-0.40622871233212504,5899.2167333267735
0.644,-0.31860498119443265,5894.860675455105
0.648,-0.2053615114154173,5894.104998788953
0.652,-0.08396034527407031,5903.627469859125
0.656,0.025934648878014013,5901.049740512684
0.66,0.1062628998237982,5885.361636643429
0.664,0.1443339105330177,5900.305781218898
0.668,0.13574140579865837,5910.437971595439
0.672,0.08521749639138118,5898.742972354268
0.676,0.004501821799840584,5904.091779690388
0.68,-0.09226903396364383,5897.073373072989
0.684,-0.1935765594773997,5905.789545317482
0.6880000000000001,-0.2935485849582358,5902.608164988426
0.6920000000000001,-0.39171627227787154,5898.587098136655
0.6960000000000001,-0.48989983000381443,5903.692806004439
0.7000000000000001,-0.5879980491217569,5904.662295535342
0.704,-0.6809271364846902,5889.641850745741
0.708,-0.7583432277800084,5902.3364894763245
0.712,-0.8074412497965987,5906.310441042419
0.716,-0.817708774568533,5900.181448630483
0.72,-0.7856249914664588,5890.497791413643
0.724,-0.7172651092352011,5895.741451866469
0.728,-0.6276377946184545,5895.95468753133
0.732,-0.5370489917805382,5899.843252331447
0.736,-0.46612221225431705,5902.425687951647
0.74,-0.4314214992967526,5894.243748231302
0.744,-0.4426987462956594,5897.357068742289
0.748,-0.5015576818533984,5897.752013794944
0.752,-0.6009645695512895,5896.022455921291
0.756,-0.7255783989836212,5897.96617741074
0.76,-0.8533797794289232,5894.038179061113
0.764,-0.9589426447372166,5897.907926153865
0.768,-1.0180571046557607,5904.227526660147
0.772,-1.0126531583611331,5895.065235073246
0.776,-0.9345524058945819,5897.846152966194
0.78,-0.7868814133264743,5900.829753427895
0.784,-0.582861018634945,5894.470331070584
0.788,-0.34256105233332057,5897.493343859343
0.792,-0.08871786117521914,5898.598114892391
0.796,0.1571338967380754,5908.229531995535
0.8,0.3770789969462741,5901.058076197935
0.804,0.5571481057323183,5908.739686943762
0.808,0.6859447402520006,5902.458664141213
0.812,0.7530815447829736,5897.874197464143
0.8160000000000001,0.7490941267077958,5898.569754668513
0.8200000000000001,0.6674222486523673,5894.446166234941
0.8240000000000001,0.5077678327103384,5901.894489383926
0.8280000000000001,0.279546047163143,5893.913254402613
0.8320000000000001,0.004012747415957311,5903.189124221701
0.836,-0.2863318274165045,5892.9658052559
0.84,-0.5518811560590746,5895.540827853985
0.844,-0.7530238108659602,5903.044803340467
0.848,-0.8582027447346191,5904.365973956866
0.852,-0.8505356362922935,5900.277366079346
0.856,-0.7313356995803217,5895.893337826943
0.86,-0.5199356409097142,5900.040027793245
0.864,-0.25004877581642415,5897.92622294828
0.868,0.036420014385357614,5896.188384664993
0.872,0.296673848778866,5893.028181498015
0.876,0.49394463005717426,5896.2637510403565
0.88,0.6029492960698404,5906.328062118376
0.884,0.6131843610889269,5903.320362213626
0.888,0.5295580425129073,5900.110479000029
0.892,0.37020634118601764,5898.838655091848
0.896,0.16208280740572106,5889.054042044557
0.9,-0.06438950391882776,5895.350379709988
0.904,-0.2803601748210166,5898.606350363059
0.908,-0.4626992697892747,5893.921986725475
0.912,-0.5970227613892909,5904.320908776846
0.916,-0.679062131938559,5900.553670858074
0.92,-0.7135721585529788,5899.836366906434
0.924,-0.7105796109127847,5900.663497576574
0.928,-0.6801639190455946,5902.55027679219
0.932,-0.6280709031171665,5910.077251744559
0.936,-0.5543545999259251,5899.869647334426
0.94,-0.45590083078808624,5900.869804593517
0.944,-0.3317563037710114,5900.494621475794
0.948,-0.1885575979930002,5891.5704439912215
0.952,-0.04299942292536171,5901.3175573675
0.956,0.08032378681779846,5888.648410994701
0.96,0.1549433147059032,5905.855991580063
0.964,0.15977373147548812,5902.435647347076
0.968,0.08482189312528306,5903.45301480762
0.972,-0.06607970081398826,5903.216963707627
0.976,-0.2754055747352055,5894.584438432412
0.98,-0.5141526661880849,5898.469801426054
0.984,-0.7455789816313502,5892.72990141201
0.988,-0.9304224198570473,5916.093081377176
0.992,-1.0336686491542446,5888.0494768330445
0.996,-1.0322879927804525,5891.374884182378
1.0,-0.9222021390345023,5894.21101705603
1.004,-0.7218045337309047,5907.715027931945
1.008,-0.469589328724494,5892.472875122918
1.012,-0.2154185515172252,5905.1433484350055
1.016,-0.007901366930355275,5899.628859056006
1.02,0.11774479035802689,5897.440267873315
1.024,0.14747882568728468,5893.855251141891
1.028,0.09012573816407314,5898.624046827184
1.032,-0.026748325612732157,5895.6290675745095
1.036,-0.16530598768207688,5909.26140265166
1.04,-0.28796315172475767,5904.767565628668
1.044,-0.366986820509353,5895.956265806222
1.048,-0.3902388430184369,5897.654291430176
1.052,-0.361498159384944,5894.802183613548
1.056,-0.2960045419565509,5890.759108700433
1.06,-0.213721286390993,5893.440392708344
1.064,-0.13333338883866427,5899.808861631668
1.068,-0.06902939153501468,5892.800533861861
1.072,-0.030313633189865595,5897.135694898536
1.076,-0.023511430623670105,5895.993655154384
1.08,-0.053062589749242876,5915.722823008433
1.084,-0.12125047236741188,5904.121527649865
1.088,-0.22626922532235694,5896.537803943753
1.092,-0.3598579942187117,5905.256150985158
1.096,-0.5062932307549814,5901.317067085101
1.1,-0.6438189740477667,5890.182573608236
1.104,-0.7482349907771548,5903.412365820956
1.108,-0.797518415632614,5896.447776577182
1.112,-0.7763054287100114,5895.753729957865
1.116,-0.6792790893801445,5900.226259310943
1.12,-0.51279106230538,5900.581692791559
1.124,-0.29451409562584624,5898.470350607056
1.128,-0.05133657701066397,5899.799204063252
1.132,0.18427686898542553,5901.377565134613
1.136,0.37934527011415337,5906.455088248479
1.14,0.5063864065472644,5901.418197335564
1.144,0.549161957435378,5896.579631339516
1.148,0.5064543222610186,5902.638907262868
1.152,0.3925271690402875,5900.531153524358
1.156,0.23404849587132717,5894.234210463726
1.16,0.064529484325329,5890.523158240894
1.164,-0.08205626298393343,5896.385880820957
1.168,-0.17704900069121146,5894.155337501484
1.172,-0.20143764248789325,5897.562446236686
1.176,-0.14845644385564868,5893.646129153106
1.18,-0.024548369007834008,5899.037433229874
1.184,0.1510929228914537,5894.04295166931
1.188,0.348432482264782,5898.488910067485
1.192,0.5303145211692475,5899.760955498776
1.196,0.6583463748772496,5900.409295906319
1.2,0.700547095395988,5902.637138406084
1.204,0.6390518182728262,5887.660920182307
1.208,0.47536933745484117,5897.290208360656
1.212,0.23116591445175622,5896.306790126659
1.216,-0.05614421307742109,5902.94112516509
1.22,-0.34216549150797737,5892.211506050026
1.224,-0.5861753053633304,5900.414494236573
1.228,-0.760123018369499,5903.504082405644
1.232,-0.8529230888262891,5903.768676293327
1.236,-0.8691044729589348,5894.863844220977
1.24,-0.8233793096373401,5900.089365712521
1.244,-0.7341645093245031,5912.009898904652
1.248,-0.6189280191088508,5904.536385000746
1.252,-0.4926313789551551,5897.514266340651
1.256,-0.3683508292297707,5899.814760133138
1.26,-0.25790981765914367,5900.427741450083
1.264,-0.17111464105834964,5900.487223723284
1.268,-0.11405412489894012,5904.333730053164
1.272,-0.08790084285578333,5894.423345913454
1.276,-0.08906580559082612,5895.785912499742
1.28,-0.11053540315315707,5894.044747176416
1.284,-0.14383695209632547,5902.301162830018
1.288,-0.18120169832748279,5904.068684246633
1.292,-0.21754288980830477,5896.899618473553
1.296,-0.25175642447011454,5906.003664604167
1.3,-0.28680990461937944,5898.171115201104
1.304,-0.3282764705491817,5901.4012714795
1.308,-0.38148680783976563,5895.057607051198
1.312,-0.4481810234255934,5891.715550675624
1.316,-0.52403767695585,5905.093117670023
1.32,-0.5983917745899173,5902.49519097519
1.324,-0.6567052255256202,5898.994870178171
1.328,-0.6851708773196626,5905.8475485877525
1.332,-0.6758811804408422,5896.981308900951
1.336,-0.6307792854029821,5900.170211952797
1.34,-0.5630379107814464,5899.5060343197465
1.344,-0.4952396845730478,5908.296286535034
1.348,-0.4545178017337934,5901.955727705089
1.352,-0.4654782082859543,5900.071997397055
1.356,-0.5421659165026639,5895.154665432296
1.36,-0.680593420302661,5904.651477234475
1.364,-0.8534866653241238,5897.733067785261
1.368,-1.0089106994690606,5901.650860065241
1.372,-1.0742397383167501,5899.70994867558
1.376,-0.9663549643502812,5899.098929120932
1.38,-0.607630783724117,5905.110371369516
1.384,0.05484339977960459,5907.650948963846
1.388,1.0314033783731251,5901.99390950236
1.392,2.2787043213857365,5903.724555904861
1.396,3.699887831719288,5902.828988242735
1.4,5.158076663350055,5900.532472176291
1.404,6.501199522657158,5900.053426283233
1.408,7.591585486440514,5902.946858558197
1.412,8.331521635487723,5896.98314535953
1.416,8.67797945558772,5892.79367805919
1.42,8.644430761393977,5901.84459501657
1.424,8.291860371603791,5906.362652584558
1.428,7.713184961139406,5893.79644615947
1.432,7.015576058029342,5897.5795420852855
1.436,6.304181292887157,5909.166550321071
1.44,5.669065319836899,5900.878851384863
1.444,5.175857949234468,5898.892527518764
1.448,4.860163831212669,5893.581820958453
1.452,4.725823941077774,5908.048423042129
1.456,4.747039022376219,5899.681944476281
1.46,4.8741803145573215,5898.01851211811
1.464,5.042970902667648,5900.755017599695
1.468,5.186340236843881,5899.938977064802
1.472,5.247295934915815,5899.433810092891
1.476,5.1899523939071734,5901.188850784047
1.48,5.005464212928258,5904.405599421733
1.484,4.710950362372207,5899.586043450483
1.488,4.342212067778235,5896.400017693214
1.492,3.943398593648203,5900.283985924165
1.496,3.557148369344725,5902.54350974687
1.5,3.217331309031121,5894.524014891832
1.504,2.9449024573059486,5907.106607419849
1.508,2.746601052269698,5904.271449658897
1.512,2.6161870136270577,5908.241487004223
1.516,2.5379333442039105,5907.669438809239
1.52,2.491594764743888,5905.536235743925
1.524,2.457261369383152,5901.490860312997
1.528,2.41848491201248,5903.837984518761
1.532,2.36334583281842,5908.238014806967
1.536,2.284559746319187,5894.911179411916
1.54,2.179858637821681,5906.27194476448
1.544,2.052835893479448,5897.073645240994
1.548,1.9134378533154228,5899.245098731381
1.552,1.7770135931670878,5901.0757796295175
1.556,1.661223173470628,5899.208659934487
1.56,1.581000580908297,5897.7423914174415
1.564,1.5429153187287923,5891.1904423476935
1.568,1.5410742860705333,5893.916744511637
1.572,1.5566320768462354,5902.527615687498
1.576,1.561957051781211,5897.96300847107
1.58,1.528736563593736,5887.446895707335
1.584,1.437357830340458,5898.824617419953
1.588,1.2839042217194192,5902.407656453026
1.592,1.0819663437185383,5900.546309717792
1.596,0.8586983135303736,5892.995015574504
1.6,0.6467212284841998,5905.210618601664
1.604,0.4747235174182864,5906.654657741914
1.608,0.3598936759291847,5896.329529153965
1.612,0.3045991185279022,5898.3032816421055
1.616,0.2979943073108661,5893.919498394608
1.62,0.3212502522948943,5894.541766716099
1.624,0.35396214603408926,5888.417734427871
1.628,0.37945727601904966,5899.226712537689
1.632,0.38783607980669116,5891.372127426125
1.636,0.3769236091625012,5878.131844382878
1.64,0.35201971290426776,5875.501419419168
1.644,0.3249003100564469,5885.775229021113
1.648,0.31152127029695176,5880.942746483107
1.652,0.3276329276582198,5868.250043885961
1.656,0.38270653658097903,5884.333859597168
1.66,0.47444902631405805,5886.555617535327
1.664,0.5870458114100462,5874.32695533843
1.668,0.6948922329889679,5880.507594808859
1.672,0.7705748412960233,5873.619858225133
1.676,0.7934719470288742,5871.568424637435
1.68,0.755321093738468,5868.792377879667
1.684,0.661166623395138,5879.222772305814
1.688,0.5264564720068254,5864.582307094279
1.692,0.3721801476584126,5867.314171703471
1.696,0.21976082478160125,5860.9166798819215
1.7,0.086824541190595,5880.419568550535
1.704,-0.015436565257392567,5869.813469052107
1.708,-0.08292744580423211,5865.132374692256
1.712,-0.11755513312914943,5866.993304882632
1.716,-0.12533766359110862,5859.147138398485
1.72,-0.11489906740523662,5856.0926673461845
1.724,-0.09679075219219661,5863.826141904247
1.728,-0.08298321203754834,5849.05711559002
1.732,-0.08544355487037467,5863.846569039084
1.736,-0.11327638770897976,5858.205917026612
1.74,-0.16905645543304595,5860.973469887589
1.744,-0.24607772790500398,5853.370725620833
1.748,-0.3285067971111299,5862.212934240418
1.752,-0.39529123077802325,5851.680813269158
1.756,-0.4266073816455223,5848.60726737819
1.76,-0.4101348721581338,5847.714782141502
1.764,-0.344617318551647,5850.692214186317
1.768,-0.2396758886168828,5846.68767094941
1.772,-0.11253743952305632,5847.63194281637
1.776,0.01669632745653149,5859.512431465494
1.78,0.1296579378072081,5852.5449742317405
1.784,0.21323667734516777,5853.497300049591
1.788,0.26149066063014603,5850.301555347578
1.792,0.275549158191428,5854.638603387315
1.796,0.2615208842673513,5845.023536496781
1.8,0.22740092109275883,5841.971684115519
1.804,0.18070375197018787,5840.958257785743
1.808,0.1280202588370745,5842.621493882727
1.812,0.07608911207476819,5855.6750954367735
1.816,0.03269690842309378,5839.4181255749245
