时间(s),电压(V),幅值(高频80K)
0.0,-0.43620662517790293,5906.651149716474
0.004,-0.23704714040326288,5898.890256782993
0.008,-0.05118288234332571,5906.2851114762425
0.012,0.11086733292810262,5904.102511305476
0.016,0.24026836624520317,5896.9334669251575
0.02,0.32928397813124993,5900.149499557679
0.024,0.37145082808570096,5901.035587795612
0.028,0.36333685487139644,5894.54209211631
0.032,0.3071036628623832,5902.424016840265
0.036,0.2120954112635894,5895.998924706241
0.04,0.09415904988588443,5904.427930695704
0.044,-0.02730599859859974,5903.073140839336
0.048,-0.13357546546916219,5896.015194377143
0.052,-0.2107380187635337,5891.20849136351
0.056,-0.2523820645464795,5906.035093630336
0.06,-0.2598973236195903,5907.444431526624
0.064,-0.240502011815413,5897.816753962503
0.068,-0.20431045200799836,5900.273205709779
0.072,-0.16206564599309622,5901.264099690232
0.076,-0.12416502110118538,5903.506880817127
0.08,-0.10026825197771062,5896.830030468074
0.084,-0.09842914507655151,5908.362802588662
0.088,-0.12356714842862496,5899.765751383799
0.092,-0.1761678025500157,5903.801589247177
0.096,-0.2522480211053654,5895.590010930599
0.1,-0.34472700561125214,5909.993086838535
0.104,-0.44532558732908367,5906.054505549851
0.108,-0.5459221559743206,5894.998973530078
0.112,-0.6390024840925823,5898.355799907921
0.116,-0.7176862933565874,5899.12568347889
0.12,-0.7759773656622799,5902.820467471749
0.124,-0.8093529792355013,5888.6616481623
0.128,-0.8153128901431229,5904.108430936115
0.132,-0.7935616277208561,5906.0852098311
0.136,-0.7458712895340108,5910.338353723625
0.14,-0.6758880767513336,5902.320455834743
0.144,-0.5890713751681993,5899.440191747824
0.148,-0.49279387220168236,5899.6443258092895
0.152,-0.3965451626578561,5891.079827872248
0.156,-0.31204358941482147,5893.89114086773
0.16,-0.25274599443703993,5903.919718814648
0.164,-0.23206104011941614,5894.808915759844
0.168,-0.2600227368330765,5899.20031225871
0.172,-0.3392330421314138,5893.492513924604
0.176,-0.46176708646944303,5905.071392047779
0.18,-0.6086698246305945,5900.234662088485
0.184,-0.7526819646661375,5906.145474759517
0.188,-0.8636334974024857,5905.493277811437
0.192,-0.9151323738918496,5900.798443660223
0.196,-0.8908338475686353,5902.260632700373
0.2,-0.7886139315246931,5902.93072958824
0.204,-0.6214894661181964,5898.74340148115
0.208,-0.41514131515788544,5889.7343476454525
0.212,-0.20292213782589336,5896.650342135761
0.216,-0.019672511789850942,5908.14801894621
0.22,0.10448933014913805,5903.715439167752
0.224,0.1495377396242354,5904.377565899185
0.228,0.10930258765432115,5905.311309235979
0.232,-0.007126559483240722,5904.158563686856
0.236,-0.176811426171374,5899.609088441953
0.24,-0.3670525208502977,5905.493839301028
0.244,-0.5415265080657031,5894.247714376028
0.248,-0.6675911306830934,5899.897765734998
0.252,-0.7234775561869721,5905.209730485025
0.256,-0.7035165143480706,5894.424069190436
0.26,-0.6195048288121209,5898.836622410426
0.264,-0.49735857933778255,5899.796325121496
0.268,-0.3698954958880393,5905.136645606058
0.272,-0.26798651875093177,5893.991714873356
0.276,-0.2127510560012187,5899.694695599987
0.28,-0.2108994515021999,5898.487720180064
0.284,-0.25421558527660687,5896.607864713769
0.288,-0.32304533643587585,5901.356735543178
0.292,-0.3927023733401773,5905.188573764023
0.296,-0.440935993649948,5899.926779787076
0.3,-0.45418821916559593,5898.169868672231
0.304,-0.43060943792071243,5909.80346926536
0.308,-0.3788961341363365,5908.860590604632
0.312,-0.3136402357258244,5898.030639084817
0.316,-0.24917530529457615,5892.980944166182
0.32,-0.19419192084238177,5895.221086931852
0.324,-0.14881923379310208,5900.022430187859
0.328,-0.1050236194508189,5899.719358016503
0.332,-0.05028055244330952,5897.206786489151
0.336,0.026634685521689384,5901.661196320029
0.34,0.12997922848485793,5892.236769304208
0.344,0.25393985373764166,5906.455685034372
0.348,0.38336991369028217,5902.747050753591
0.352,0.49781841068999055,5903.634372220214
0.356,0.5770750602092012,5896.662504207005
0.36,0.606367893225131,5897.344792227834
0.364,0.5799702525384148,5900.507453260331
0.368,0.5026375620985023,5904.790666652379
0.372,0.3887153539727907,5900.97393191111
0.376,0.2589883592715121,5902.566445715633
0.38,0.13564311155661313,5908.6015235215455
0.384,0.03638954901316082,5894.231334381768
0.388,-0.03039717520979007,5899.240890425717
0.392,-0.06748617654540924,5897.37743388615
0.396,-0.08648235170662356,5902.716636631205
0.4,-0.10207525740056102,5898.856949736904
0.404,-0.12523949002485096,5900.204090923015
0.408,-0.1585100092011968,5904.542430183374
0.412,-0.19548762111864035,5895.610672541376
0.416,-0.22449142108364797,5896.055006479539
0.42,-0.2343312970534322,5901.351155344079
0.424,-0.2196792388441659,5901.786997574207
0.428,-0.18417007425100523,5905.644202150301
0.432,-0.14024581629517002,5908.801903168911
0.436,-0.10557657279891032,5897.161956475842
0.44,-0.09695853726682326,5901.060066672188
0.444,-0.12386338356370301,5905.333746399729
0.448,-0.1844000724418282,5901.84021725639
0.452,-0.2655366178098436,5882.331562179392
0.456,-0.3474570741213527,5895.596877849852
0.46,-0.4101941638617408,5905.17579561141
0.464,-0.44002800100926037,5886.2677981917
0.468,-0.43356686040969034,5905.115970228058
0.472,-0.39849003356358265,5895.278554983303
0.476,-0.3510901778568914,5908.049199642916
0.48,-0.3115476802248319,5894.463485976015
0.484,-0.29821430729454984,5896.995035449939
0.488,-0.32230380860688573,5905.987632866174
0.492,-0.3843541706067549,5888.948242689945
0.496,-0.47344180367272426,5893.304274313797
0.5,-0.5694043501217102,5902.910182401211
0.504,-0.6476160931426217,5894.692708205644
0.508,-0.6853020010395058,5903.397797069836
0.512,-0.6678168872858813,5898.81979470201
0.516,-0.5929331840976085,5898.377319323106
0.52,-0.47151532602834445,5903.78281578984
0.524,-0.32415389225664115,5898.873846658172
0.528,-0.17489142253177867,5904.108971001615
0.532,-0.04435760585155813,5903.942255805562
0.536,0.05520593823184489,5904.606148370343
0.54,0.12157391870515963,5903.036530268911
0.544,0.1608723828013163,5901.304339366872
0.548,0.1836869697263291,5899.967275833044
0.552,0.2002935596042075,5892.62555316507
0.556,0.21635857085699217,5895.857800094006
0.56,0.23040831675002277,5907.086051426596
0.5640000000000001,0.23408216960467235,5898.614162215209
0.5680000000000001,0.2154214726298699,5898.287297040773
0.5720000000000001,0.16426340185928834,5897.60397393012
0.5760000000000001,0.07774281338822336,5899.025734441769
0.58,-0.03635198400208805,5890.502915203192
0.584,-0.15987092039947343,5896.004299627925
0.588,-0.26838534352277715,5900.326979801292
0.592,-0.33783017803926524,5903.254747096172
0.596,-0.3515586469174783,5892.274827875234
0.6,-0.3054861194080924,5901.390925639676
0.604,-0.20954629257180865,5897.088073016485
0.608,-0.08480897763938364,5900.2818321846335
0.612,0.04281609000512885,5897.727423717978
0.616,0.14982978101961256,5900.0076971468825
0.62,0.2204550571269646,5896.394889916931
0.624,0.24842599484748035,5907.111455340259
0.628,0.23579814613912717,5895.259391438467
0.632,0.19049165378079716,5900.858485833726
0.636,0.1238087100562554,5899.945262235273
0.64,0.04806444251772291,5905.570363758441
0.644,-0.02595244477193739,5898.271459266663
0.648,-0.09149965893958746,5905.577354198784
0.652,-0.14756720220154884,5900.566473395722
0.656,-0.19880245525923187,5907.548721762334
0.66,-0.2533141987666582,5893.685448037099
0.664,-0.3190628776509206,5895.606019119738
0.668,-0.4004790094011578,5896.822443695924
0.672,-0.49687790907063983,5905.065736863888
0.676,-0.6030576373310826,5901.400865041838
0.68,-0.7112060623135843,5897.946983525995
0.684,-0.8129193931042477,5898.506154835994
0.6880000000000001,-0.9006506131440306,5903.622999469329
0.6920000000000001,-0.9684366087993758,5898.918499724391
0.6960000000000001,-1.011918882998695,5896.928773045436
0.7000000000000001,-1.027772587459727,5899.721795073375
0.704,-1.0128788617312658,5898.967457056654
0.708,-0.9637209228938244,5902.530902996388
0.712,-0.8764747683219457,5896.63414097832
0.716,-0.7481854022335078,5898.515040479056
0.72,-0.5791195333800686,5902.025697632456
0.724,-0.37570048815327894,5894.555311592681
0.728,-0.15270432357047295,5902.385213737949
0.732,0.06678733198934735,5900.641856100317
0.736,0.2546167011013545,5895.538668390257
0.74,0.3837585723273252,5904.348779316849
0.744,0.4359139128656265,5890.157805544753
0.748,0.4078118053260686,5903.22274272187
0.752,0.3134804796369118,5899.923016142786
0.756,0.18105614479872553,5896.618384024865
0.76,0.044885264293508226,5904.321574682609
0.764,-0.0644083970986907,5901.644514722359
0.768,-0.1284999264114002,5900.093418914997
0.772,-0.1457805216833224,5910.609643067224
0.776,-0.13031893516719184,5912.09537239726
0.78,-0.10594197669109562,5900.182545562662
0.784,-0.09758484608703002,5896.907556565951
0.788,-0.12282017217206848,5901.369529839352
0.792,-0.18629863837067612,5890.618445052504
0.796,-0.2788223735354127,5900.601948000519
0.8,-0.3810934089923466,5901.0362484227535
0.804,-0.47037522436497475,5901.866563433069
0.808,-0.5273388325651708,5901.403706495345
0.812,-0.5408473229610926,5898.628427066123
0.8160000000000001,-0.5098944109213328,5903.856406239475
0.8200000000000001,-0.4431975933299716,5900.513709065631
0.8240000000000001,-0.3572650023809808,5891.592865480896
0.8280000000000001,-0.27328813194198354,5901.344301812848
0.8320000000000001,-0.21290308379126685,5898.89601112623
0.836,-0.19337581595687206,5894.081668482393
0.84,-0.22351501595114784,5895.071985339579
0.844,-0.3015207332771012,5899.791074383707
0.848,-0.4151181951313217,5896.928528770361
0.852,-0.5436922037289537,5904.493365253751
0.856,-0.6619986268436173,5895.517238372135
0.86,-0.7448738365850792,5895.054168039628
0.864,-0.772090793199953,5900.184425802765
0.868,-0.7324758847263205,5902.930295464619
0.872,-0.6265831394764555,5903.248413430311
0.876,-0.4673446996387076,5901.074240428047
0.88,-0.2782988719821829,5894.088797071125
0.884,-0.0895222356464034,5901.068402442846
0.888,0.06791511193513486,5900.224886452616
0.892,0.16774649064264477,5898.543722462625
0.896,0.19338038739672356,5907.886509916269
0.9,0.14099982600484195,5896.36959785372
0.904,0.020436747969621794,5897.188437968099
0.908,-0.14631572937958112,5893.22931164249
0.912,-0.3288573452352104,5895.798503491903
0.916,-0.4939706698693551,5905.329470400767
0.92,-0.6120539174873072,5902.974175148904
0.924,-0.6628466044493666,5908.149320286106
0.928,-0.6388258308844617,5897.70054958563
0.932,-0.5453560137687641,5899.758678226896
0.936,-0.39790429614808487,5896.462495964939
0.94,-0.21763332322528808,5891.945542542935
0.944,-0.026820008279585427,5899.039587865967
0.948,0.15502196195506007,5898.789927109124
0.952,0.31395231840018856,5902.3404309845455
0.956,0.442979027828871,5907.917868870201
0.96,0.5414704513952902,5901.970354287099
0.964,0.6124340848491494,5894.325271441439
0.968,0.6584496368362155,5901.7318325883
0.972,0.6779832008712072,5905.862214823045
0.976,0.6640537324771337,5893.666128250499
0.98,0.6064433179932452,5895.56129562732
0.984,0.49690408878976455,5905.436417431687
0.988,0.33493788130541313,5897.752499371184
0.992,0.1311398087349895,5895.036029752383
0.996,-0.09358027240061288,5897.998078642131
1.0,-0.31240701806632715,5901.823098054303
1.004,-0.49870722884106783,5903.145654923852
1.008,-0.6317078808525254,5900.181446014928
1.012,-0.7004019977220004,5896.380838460842
1.016,-0.7051432060998464,5899.657333158381
1.02,-0.6568801829799178,5905.45520370331
1.024,-0.5741984341312736,5902.398545919188
1.028,-0.47864582243973497,5904.613823488062
1.032,-0.3894286067028471,5902.9080405963
1.036,-0.3190879080250231,5895.452637649697
1.04,-0.27158972382973556,5893.707406092552
1.044,-0.24336408309854268,5901.589559975509
1.048,-0.22671382742833537,5909.2857220608375
1.052,-0.2141029780779115,5898.461807678281
1.056,-0.20147907124861983,5897.214807817999
1.06,-0.1893347604885435,5908.28713919407
1.064,-0.18149350009216886,5903.309813493896
1.068,-0.18274242163747056,5896.097754693344
1.072,-0.1966631187420562,5904.26748778046
1.076,-0.22439437560791375,5909.645349457182
1.08,-0.2643361763435787,5898.927855757866
1.084,-0.31257159019353864,5898.822567591679
1.088,-0.3638782524368559,5903.255321185713
1.092,-0.4130551987481607,5891.908436479183
1.096,-0.4559397804547181,5900.930921232448
1.1,-0.4896302202693854,5899.43415097266
1.104,-0.5121790129479108,5887.5109796861525
1.108,-0.522463888676019,5893.581632021042
1.112,-0.5204998612936937,5907.858064092471
1.116,-0.5077943057830581,5893.167373300791
1.12,-0.487240636289675,5901.0217307696
1.124,-0.46233768200300873,5898.901805773692
1.128,-0.43582483590877313,5896.212195788255
1.132,-0.4082219952439598,5896.790239908742
1.136,-0.37721707430532286,5896.736815860874
1.14,-0.33877957092511807,5902.964181515456
1.144,-0.28995891139795793,5902.12538078591
1.148,-0.23209770261329893,5909.457495473987
1.152,-0.17260922783250485,5899.922497289358
1.156,-0.12402376750346432,5897.0083062053145
1.16,-0.1004025279837805,5903.563070341166
1.164,-0.11264981004817183,5901.808847974424
1.168,-0.16485886344790873,5897.772324426875
1.172,-0.25316610916778776,5902.223647258527
1.176,-0.36712135758755066,5900.38982410839
1.18,-0.4924601613899657,5897.754321835565
1.184,-0.6140856629985865,5909.412737856023
1.188,-0.7185481990692387,5902.493045906352
1.192,-0.7955728327841054,5902.692897992864
1.196,-0.8382932411679851,5898.42429099156
1.2,-0.8423403541463204,5901.230195221287
1.204,-0.8047357174344316,5902.185107520242
1.208,-0.7238396481875954,5907.961565791341
1.212,-0.6007731041170399,5896.393266537294
1.216,-0.441327791958426,5898.912350485845
1.22,-0.2567957521538816,5912.996621218429
1.224,-0.06291646374788103,5898.845004804615
1.228,0.1226671718146335,5904.336353594264
1.232,0.2834029768034214,5902.914275779809
1.236,0.40622586094231566,5898.056775267322
1.24,0.4827638375347054,5895.350591707041
1.244,0.50950339789273,5911.230904454641
1.248,0.4875488156938473,5899.002679893481
1.252,0.42236386550406374,5907.983861903247
1.256,0.32335614039400945,5902.318431155078
1.26,0.20318204800974546,5896.305238177034
1.264,0.07707120898730074,5901.299788988931
1.268,-0.037648954780332027,5904.051444785355
1.272,-0.12248008486084828,5893.239762942026
1.276,-0.16025140096066612,5899.017292694502
1.28,-0.1394494103074317,5895.547093816484
1.284,-0.05898004574230286,5903.592926718568
1.288,0.06892388881550562,5896.443155435085
1.292,0.21927037417669354,5893.6177657082335
1.296,0.35850494928575904,5898.345451122335
1.3,0.45133074451266536,5910.125439817005
1.304,0.46863360395327625,5897.491823979428
1.308,0.39500405275309697,5903.463101359831
1.312,0.23474613307112482,5894.389918557136
1.316,0.01568371123808104,5907.884631221236
1.32,-0.20998113777943295,5899.64424256869
1.324,-0.36895124430936493,5899.123189742249
1.328,-0.3755295926739882,5892.257280053313
1.332,-0.14608166648528942,5892.395206274212
1.336,0.382245988716066,5898.9059241033065
1.34,1.2323479160719875,5892.292924733682
1.344,2.3731593894679115,5900.251224610786
1.348,3.7167266124506533,5908.30102824158
1.352,5.129914649882113,5889.83581387919
1.356,6.459397959862757,5905.646779842626
1.36,7.563008906826226,5905.646445914484
1.364,8.33769464704766,5900.552997221243
1.368,8.73617361405323,5899.496459192739
1.372,8.76937894506014,5908.557068869225
1.376,8.496759448232824,5901.524537748629
1.38,8.009302717994995,5906.6586952441685
1.384,7.4103005525541406,5896.179361213111
1.388,6.797423929381984,5903.221787618498
1.392,6.248267129747857,5903.293624247059
1.396,5.810893175341328,5900.756843933371
1.4,5.500477036471431,5898.299225700845
1.404,5.302265526047856,5895.829377844849
1.408,5.179896896030166,5902.983545624151
1.412,5.087066023976712,5909.611929088089
1.416,4.979836904888897,5898.909013702156
1.42,4.826804132160247,5899.167742613843
1.424,4.6149288443666885,5901.300969816125
1.428,4.350140992185078,5895.9042286290105
1.432,4.053338314038979,5906.110573983899
1.436,3.7535543304216223,5910.832795356782
1.44,3.4803306207458093,5906.617085894017
1.444,3.2569335789661036,5902.1875398807815
1.448,3.095505926785654,5904.895197371653
1.452,2.9947689600996883,5906.237235867236
1.456,2.9405471248469266,5897.150408598712
1.46,2.909102604623316,5900.672159028673
1.464,2.8728254632707593,5900.422313400826
1.468,2.8071535340860274,5891.694039866593
1.472,2.6969503095435763,5904.604461116397
1.476,2.5403704081121004,5894.057118842089
1.48,2.348843127462315,5896.073621286605
1.484,2.143179005535295,5904.100884049852
1.488,1.947284197391089,5906.324733321025
1.492,1.7816151957979423,5911.091767504422
1.496,1.6581365333493978,5895.067193797415
1.5,1.577924312276353,5895.373415689855
1.504,1.532100953295991,5903.56577856036
1.508,1.505927265413253,5898.929968863352
1.512,1.4844579192237708,5896.086506298924
1.516,1.4572673384266854,5894.351485074499
1.52,1.4203541950676586,5898.145656181862
1.524,1.3750470909555126,5903.450360985788
1.528,1.3252935923935407,5901.438548701526
1.532,1.275133531958875,5903.452377359649
1.536,1.2274197225237,5897.4788282757545
1.54,1.1837655652905115,5899.362313626415
1.544,1.1450836052651425,5895.980341915175
1.548,1.1121303803525426,5903.61836213249
1.552,1.0858334776855714,5895.344829259935
1.556,1.067338799466804,5900.546854660603
1.56,1.0575694667468973,5897.630121899201
1.564,1.0561311724074467,5900.912940744892
1.568,1.0599854556050778,5896.365374285299
1.572,1.0628706519012443,5896.170698224064
1.576,1.0561920714086275,5897.859823657361
1.58,1.0312287620658172,5897.9234968611
1.584,0.9818238915895869,5895.633050863657
1.588,0.9065162718116309,5886.319070742842
1.592,0.8092113498691315,5891.516251258521
1.596,0.6980888666587293,5881.027614130914
1.6,0.5833831249471618,5891.223647745662
1.604,0.4752114458206758,5895.6205390024425
1.608,0.3822774032794036,5887.226069324905
1.612,0.31143637529918716,5888.475289684139
1.616,0.26746781062266706,5880.218539434423
1.62,0.2523351473611056,5889.811352315512
1.624,0.26378328552173025,5889.098060557796
1.628,0.29398592396540013,5887.52856058766
1.632,0.3294461040220767,5881.714080031038
1.636,0.3530023943258005,5882.918803127264
1.64,0.34778457295741444,5884.353985843821
1.644,0.30195349641634395,5876.790685841276
1.648,0.2126033100822847,5885.328583004715
1.652,0.08745056800739087,5882.594874499284
1.656,-0.05629652576986382,5881.880497870651
1.66,-0.19561109152797676,5885.596964205371
1.664,-0.30701674775958365,5882.868210879471
1.668,-0.37259580097932204,5875.70031280233
1.672,-0.38530541114575534,5882.937540157476
1.676,-0.35178935338210104,5872.642555166383
1.68,-0.29091211050493815,5874.6706195319375
1.684,-0.22759837784646755,5874.815712616754
1.688,-0.1838031140034299,5872.0970680836
1.692,-0.17011920835260724,5877.976745103193
1.696,-0.18156160572794458,5880.421483686748
1.7,-0.1994090023993616,5880.04049053815
1.704,-0.1984398377176056,5872.883986548392
1.708,-0.15665005519411998,5871.927250442707
1.712,-0.06358512636026498,5871.528483571837
1.716,0.07583828269460632,5875.537605180966
1.72,0.24304597364707792,5873.384231465889
1.724,0.41169414426721546,5874.832024083918
1.728,0.5549704259632996,5870.144964221226
1.732,0.651672386281199,5873.782274921904
1.736,0.689598822820932,5874.714132716724
1.74,0.6661628800042493,5874.567970134779
1.744,0.5871032784682736,5866.674197360335
1.748,0.4643966698552787,5875.489229284764
1.752,0.3139973251102668,5871.946890838485
1.756,0.15343493612508818,5867.702700157911
1.76,-0.0007772215328019425,5856.8659698886295
1.764,-0.13560052524461108,5866.915496961072
1.768,-0.24321551534443936,5857.06524211965
1.772,-0.3215745212155178,5863.873348248581
1.776,-0.3735661775385541,5863.624900927884
1.78,-0.4049817602969382,5857.733678615096
1.784,-0.42203753068032,5860.400829604484
1.788,-0.4296867045562477,5868.603462115028
1.792,-0.431758569442342,5861.00013856592
1.796,-0.4328599976079363,5861.242421215256
1.8,-0.44054810509222914,5871.13614891426
1.804,-0.4656158717976423,5871.088295005199
1.808,-0.5191450807611805,5862.066742212046
1.812,-0.6069247505904461,5872.336768519993
