时间(s),电压(V),幅值(高频80K)
0.0,-0.8743005451401271,5910.301049269318
0.004,-0.6908034200420584,5898.935304829146
0.008,-0.514382024045476,5903.950609711257
0.012,-0.35043000359513227,5902.651816958217
0.016,-0.20430792533117492,5903.683695993968
0.02,-0.08205391439784837,5899.6537807403965
0.024,0.009899920671743449,5895.839703665759
0.028,0.06642536821099002,5904.850622887469
0.032,0.08589333460375341,5900.64976512492
0.036,0.07127887779330924,5909.566191029378
0.04,0.029396388579468278,5898.356842479129
0.044,-0.031011288257103087,5900.053163990559
0.048,-0.10092750856031679,5899.765100036217
0.052,-0.17170460512942506,5903.4062223124965
0.056,-0.2349400208905603,5896.685809511338
0.06,-0.2821964257772723,5899.420691410146
0.064,-0.3050941479487871,5896.34282457466
0.068,-0.29631345208668397,5904.043444708813
0.072,-0.25182300858070994,5896.48630458706
0.076,-0.17367349628653553,5902.706815734504
0.08,-0.07161740209378903,5896.300662329983
0.084,0.03799890079856934,5893.88253676663
0.088,0.1360132385315901,5892.439123840991
0.092,0.20528348976407426,5903.133229248282
0.096,0.23477619419561518,5895.346365761252
0.1,0.22192170737283673,5902.583877438138
0.104,0.1729314955994727,5901.780358784717
0.108,0.10098171834966363,5897.784152427045
0.112,0.022452188645003753,5906.922132580737
0.116,-0.047878710903545146,5902.123748592358
0.12,-0.10106656694274704,5900.773660072801
0.124,-0.1360355137730672,5903.67881917778
0.128,-0.15865585598709664,5901.875610847321
0.132,-0.17831659819209414,5901.718478982663
0.136,-0.2033924500043113,5902.912225760976
0.14,-0.23742030149087628,5896.037695362572
0.144,-0.27758958939081474,5898.20798636442
0.148,-0.3162837109368591,5890.9196160525225
0.152,-0.3450807662340986,5898.658208586161
0.156,-0.35937540792236594,5903.269488586778
0.16,-0.3613525474603949,5897.415238363694
0.164,-0.3597927434209233,5904.205866720083
0.168,-0.36667120667726816,5901.98843811104
0.172,-0.391877942457592,5895.766892389191
0.176,-0.43811334389847195,5902.614557763028
0.18,-0.49797360745497854,5895.265880573295
0.184,-0.5544605718173892,5903.724500406198
0.188,-0.5849333017042782,5897.503708033648
0.192,-0.567434528319895,5901.634269998337
0.196,-0.48768701886325416,5894.85110172081
0.2,-0.34475255014571304,5895.072951858566
0.204,-0.15343061495960528,5908.232272904401
0.208,0.057715214222180386,5912.416751140395
0.212,0.25238056514323004,5898.217035163711
0.216,0.39494011626447867,5904.634287897917
0.22,0.45896540369038713,5899.758920781598
0.224,0.43357982465242395,5898.591276492789
0.228,0.3259227793767187,5905.818842854914
0.232,0.15899823146773792,5905.656929529985
0.236,-0.034431080509874805,5902.445856653231
0.24,-0.2199661925211345,5901.670204845591
0.244,-0.36927294024185087,5899.941442645725
0.248,-0.46540693991502613,5907.70881386452
0.252,-0.5048684231390355,5904.602037605564
0.256,-0.4965444845960494,5893.610625937961
0.26,-0.458334502823543,5899.081286169919
0.264,-0.4123931633331565,5902.9103990625645
0.268,-0.37984204009310757,5903.859486401283
0.272,-0.3758113499252042,5896.318942527489
0.276,-0.4057497449696724,5899.633070809429
0.28,-0.46390605181638706,5890.593950680833
0.284,-0.534665510548948,5911.850256681852
0.288,-0.596829051750965,5894.741954297681
0.292,-0.6298382220314146,5904.678148948552
0.296,-0.6199128894937903,5904.53580526443
0.3,-0.5639655387687887,5898.107403856112
0.304,-0.4701382881299806,5892.551224944126
0.308,-0.3551743380247682,5903.394358906091
0.312,-0.23985206296758044,5896.580017691008
0.316,-0.14404157711763588,5897.731195403766
0.32,-0.08262026982249981,5901.318480525647
0.324,-0.06291294981293265,5900.168834849859
0.328,-0.08394757935762798,5898.436632559208
0.332,-0.1375682847421746,5894.802344470475
0.336,-0.21097897906941188,5898.367404483946
0.34,-0.2897646892940411,5900.937430953806
0.344,-0.3604413690328354,5900.626141865121
0.348,-0.4122160195764613,5898.558907537
0.352,-0.43824053215583597,5901.086215938631
0.356,-0.4366163187441424,5905.401846608939
0.36,-0.4109364013531695,5891.052008164849
0.364,-0.36989359024019597,5906.730938730577
0.368,-0.325697339814279,5900.354967481762
0.372,-0.2914212938776359,5903.289182077124
0.376,-0.277730449309795,5894.747876528782
0.38,-0.2897906878207133,5901.04950017142
0.384,-0.32541798593872423,5893.824147523268
0.388,-0.37533952561244616,5902.025689958689
0.392,-0.4258037490455747,5895.664482328424
0.396,-0.4629664479040349,5896.739884825214
0.4,-0.4776901744317532,5894.496389426281
0.404,-0.468906265555526,5904.788432007159
0.408,-0.4439378236395113,5898.416838855991
0.412,-0.41531459075509974,5895.728904761235
0.416,-0.3952429013212285,5901.742477827869
0.42,-0.39019313573981923,5902.48299344845
0.424,-0.39812854911355916,5895.252281754336
0.428,-0.4095493435431737,5892.337384878829
0.432,-0.41161267438224525,5903.513370058394
0.436,-0.393223448336741,5895.544422697031
0.44,-0.34880794243529767,5907.421720733727
0.444,-0.2794820624260598,5903.067495363487
0.448,-0.19185343330628732,5901.017078155564
0.452,-0.09572652234846502,5901.591193071438
0.456,-0.0019105287679685168,5907.44458921338
0.46,0.07947088406275073,5900.314218711749
0.464,0.1403622841934712,5892.645851474583
0.468,0.17589612247102088,5892.584503345203
0.472,0.18479343061244166,5893.558212469512
0.476,0.16856854880402888,5905.415831839183
0.48,0.12980581563814336,5892.204418187069
0.484,0.07065391534604741,5902.1996691821
0.488,-0.007214682298451153,5903.826029371391
0.492,-0.10088104902791603,5899.983203998793
0.496,-0.2037760063743894,5896.849743095066
0.5,-0.304448394760815,5903.459982881576
0.504,-0.38787173700645977,5897.407243462398
0.508,-0.4392077225513728,5903.345783612127
0.512,-0.44850799194713287,5895.719652522359
0.516,-0.41427706750934257,5892.766997318367
0.52,-0.3444022893628059,5902.176894933553
0.524,-0.2542460298566554,5897.13466073881
0.528,-0.1628100020415049,5901.735789727714
0.532,-0.08822005119586056,5891.115325008702
0.536,-0.04357471960255759,5908.807238066601
0.54,-0.0340093812681033,5892.103640926944
0.544,-0.05568670290836414,5903.843776514145
0.548,-0.0970228961293437,5895.891111817898
0.552,-0.141823521698432,5901.518506013267
0.556,-0.17346428325419594,5897.570844888887
0.56,-0.17903420098775513,5897.58880638385
0.5640000000000001,-0.15249797756225175,5905.102000309031
0.5680000000000001,-0.09631611292285668,5899.843758923392
0.5720000000000001,-0.021330013683443724,5903.071955977413
0.5760000000000001,0.05509568865391054,5905.626492420097
0.58,0.11258231635913103,5900.182746246787
0.584,0.13256683441641248,5900.20768742038
0.588,0.10360134961045385,5907.135902639928
0.592,0.025613886577053147,5894.219382246358
0.596,-0.08860821363594006,5897.991438642928
0.6,-0.21570532028537512,5897.640512803643
0.604,-0.32736630619502977,5896.094962803638
0.608,-0.39769145533564754,5899.705104323824
0.612,-0.41031561730995614,5902.597906521731
0.616,-0.3633937787472363,5899.798189671026
0.62,-0.2708487061758845,5905.996175305886
0.624,-0.1590240669011655,5902.645542168478
0.628,-0.059310545521769335,5909.958314722246
0.632,0.001032551816116016,5892.901323865321
0.636,0.006739353539459557,5906.587805094026
0.64,-0.041586334647784204,5894.213865104738
0.644,-0.1287314895112028,5895.637958148006
0.648,-0.23057767360964945,5897.81739949207
0.652,-0.32206617505322876,5891.130519925957
0.656,-0.3845751285920686,5895.037707639372
0.66,-0.4102692778365684,5902.782988248323
0.664,-0.4023630414687428,5909.332671688755
0.668,-0.37193635366600103,5894.80122373785
0.672,-0.33308821474971856,5905.066579470451
0.676,-0.2983537881387826,5908.8424532274685
0.68,-0.27564463210329715,5897.183251989351
0.684,-0.2670768929739459,5893.915992526646
0.6880000000000001,-0.269447183910135,5900.335732779791
0.6920000000000001,-0.27590510880271496,5900.406524628891
0.6960000000000001,-0.27832678889267765,5901.451463205859
0.7000000000000001,-0.2698515159652896,5908.46162046192
0.704,-0.24704880028897885,5903.814111333847
0.708,-0.21131112059077736,5894.534273215385
0.712,-0.16926431447678925,5905.971501625324
0.716,-0.1320966195666347,5904.326280384237
0.72,-0.11367559944782651,5894.97593041572
0.724,-0.127362948319617,5898.580922551386
0.728,-0.1818781618470845,5899.011117887154
0.732,-0.27739381815599945,5910.414393494048
0.736,-0.4036362782575922,5904.996333859463
0.74,-0.5413414948336517,5897.132650609455
0.744,-0.6669814678404774,5904.303867125301
0.748,-0.7591470427163242,5888.840546411484
0.752,-0.8042761009510543,5890.472917683945
0.756,-0.7998077476793318,5899.768791405572
0.76,-0.7540012102609375,5893.09275024339
0.764,-0.6829335442008605,5902.175189395184
0.768,-0.6059039864346913,5899.675505031742
0.772,-0.540505669263199,5900.279342647913
0.776,-0.4984644003499974,5903.243650655639
0.78,-0.483251022555231,5900.840154924305
0.784,-0.4901643013005331,5898.083489917272
0.788,-0.5088660895082382,5906.268618164255
0.792,-0.5274886672442511,5902.227765963409
0.796,-0.5368527863047005,5895.521808010656
0.8,-0.5333320473702008,5900.104216030685
0.804,-0.5194621948489022,5894.602159085354
0.808,-0.5022100309347648,5888.845435226026
0.812,-0.4895818413559039,5894.427962255216
0.8160000000000001,-0.48684479818609544,5904.47718887725
0.8200000000000001,-0.4938897050723771,5897.893836694513
0.8240000000000001,-0.5048756170902531,5895.720430251098
0.8280000000000001,-0.5102817045793707,5897.36263942646
0.8320000000000001,-0.5004735649990149,5892.229556029979
0.836,-0.46947151834067274,5889.233996998576
0.84,-0.41769364418953747,5901.885507237227
0.844,-0.35269998131972136,5895.5148566110665
0.848,-0.2874667151801875,5899.9186641055285
0.852,-0.23659261687935973,5907.971975162714
0.856,-0.21173551535711108,5901.3761658750445
0.86,-0.21800029206227603,5903.52443111599
0.864,-0.25272820908082094,5904.64120825744
0.868,-0.3071859133979454,5900.211759978382
0.872,-0.37029476643624526,5912.782321541164
0.876,-0.4324369565026167,5900.405330458025
0.88,-0.48733292666366446,5898.7398657850335
0.884,-0.531279545528542,5892.889356716649
0.888,-0.5608764634505319,5905.185869355951
0.892,-0.5713626388093674,5902.2364682597545
0.896,-0.55711645305716,5894.42224509744
0.9,-0.5142707513091874,5901.903304647201
0.904,-0.4439255593121592,5900.782580922893
0.908,-0.35403041057632906,5898.503985812941
0.912,-0.2587845317370053,5896.076388187186
0.916,-0.17564966055777317,5895.121796256559
0.92,-0.12095141154836607,5898.763798520526
0.924,-0.10540977215941529,5901.302322378049
0.928,-0.13102123791456513,5897.546451236979
0.932,-0.19041469349728507,5895.175934194519
0.936,-0.2689767901249729,5895.373415396571
0.94,-0.3490503984046744,5890.878677188257
0.944,-0.41482035227679603,5899.242032882286
0.948,-0.45626472796603096,5898.584800309443
0.952,-0.47086227678334,5911.356460239511
0.956,-0.4626585488227859,5900.023714103294
0.96,-0.4394269035398126,5896.729966352579
0.964,-0.4093332454297709,5891.845544142144
0.968,-0.3783534214828785,5899.782882027378
0.972,-0.3489962235711073,5904.847402936929
0.976,-0.32029467546149953,5900.968262259778
0.98,-0.2888274848350026,5900.189071279224
0.984,-0.2504682571339097,5902.088042348454
0.988,-0.2023942566655807,5903.886115993743
0.992,-0.14473940370996682,5903.945603505057
0.996,-0.08134617322040003,5894.482013259547
1.0,-0.019344631400217714,5900.66179475324
1.004,0.03236498884464686,5899.572628759694
1.008,0.06530474873710403,5898.35569857229
1.012,0.07364012183033607,5895.477306784176
1.016,0.0558330423549522,5895.185444324107
1.02,0.01534047412326458,5901.411431020438
1.024,-0.039912585058213844,5893.260436518183
1.028,-0.09936914579484725,5895.001977518622
1.032,-0.15248823076666568,5891.538550833535
1.036,-0.1911214065605766,5901.340198638675
1.04,-0.21070374238204762,5900.123896317985
1.044,-0.21020577402870508,5889.266557715223
1.048,-0.19149116968256255,5903.669462206699
1.052,-0.1587542296566738,5906.2121559036905
1.056,-0.11824526692756425,5912.898639187963
1.06,-0.07789272744695347,5897.60030875042
1.064,-0.04611918204725263,5894.20002530089
1.068,-0.029533321891719654,5900.520340573489
1.072,-0.030153565981687513,5900.227960409061
1.076,-0.04362745664615676,5902.5129786430725
1.08,-0.059804110991181936,5896.242869441661
1.084,-0.065923666229741,5895.226228940355
1.088,-0.05132108705393376,5906.999308372644
1.092,-0.011823054217798631,5900.031153836062
1.096,0.04775606908286851,5899.82166301515
1.1,0.11388488730250199,5900.171870432941
1.104,0.16744577139795,5900.280481105813
1.108,0.18903690139281773,5905.537204336967
1.112,0.16494849758828733,5898.105604282598
1.116,0.09181157747412562,5894.2818271923525
1.12,-0.02178172192759443,5900.517556234312
1.124,-0.15718072459284987,5902.056327338103
1.128,-0.29015293052964525,5898.768486110346
1.132,-0.3962457555297644,5901.924817646568
1.136,-0.45560609417906084,5898.699934032564
1.14,-0.45658957094331915,5902.837454560526
1.144,-0.3980335613681008,5901.085052182212
1.148,-0.29006541364589106,5902.127422379118
1.152,-0.1530463913933832,5902.364281230768
1.156,-0.014279205972374172,5905.842986445837
1.16,0.09732481392784718,5908.76574103139
1.164,0.1575888970085423,5894.378676906261
1.168,0.1527477804570931,5889.999061144768
1.172,0.08270435429994163,5894.159260708319
1.176,-0.0392100112455007,5903.392595192279
1.18,-0.18988356214584007,5904.068008401321
1.184,-0.34234629361816304,5900.32452970878
1.188,-0.4722563121576042,5903.745190136633
1.192,-0.5631368562707856,5897.997349167675
1.196,-0.6089607954248542,5899.052768347506
1.2,-0.6136544851392849,5904.266274403156
1.204,-0.5882739624474899,5906.844387843577
1.208,-0.5472977570135111,5903.8880828972415
1.212,-0.5053210585894848,5902.839273182708
1.216,-0.47477322730510657,5908.044860001364
1.22,-0.46470108317844294,5892.902091854992
1.224,-0.4803757919915149,5899.109139782388
1.228,-0.5233567020597972,5891.73158128088
1.232,-0.5915768138315214,5900.969266279548
1.236,-0.6791040875497579,5904.519186237725
1.24,-0.7756649287001752,5901.579834376893
1.244,-0.8666646826618559,5902.699253582765
1.248,-0.934686957963335,5897.984296592923
1.252,-0.9628139242993512,5891.865868664942
1.256,-0.938959586649333,5902.4268822824015
1.26,-0.8596580170016613,5905.563377017271
1.264,-0.7318875943783077,5899.056405902154
1.268,-0.572279174555723,5908.004171259065
1.272,-0.4039214960008059,5896.876815149535
1.276,-0.25161163641015033,5907.435270328234
1.28,-0.13665461985424332,5899.713291523597
1.284,-0.07221592238058729,5892.7740478214855
1.288,-0.06010324727447789,5895.462980189951
1.292,-0.08993350076952501,5909.766984992918
1.296,-0.14151853232227377,5894.525245597983
1.3,-0.19040174533735432,5904.241151321419
1.304,-0.21500890436830428,5897.798992435496
1.308,-0.20286737181131229,5906.993868719494
1.312,-0.15366957319649582,5899.722014241759
1.316,-0.07841497416381984,5890.856621276792
1.32,0.0046334525223345625,5899.295987671962
1.324,0.0757051164525169,5900.395003308385
1.328,0.11935043603719922,5903.495043161854
1.332,0.1286781039082118,5903.053045310066
1.336,0.10667839793045644,5897.115150066697
1.34,0.06436221052715128,5900.036305203281
1.344,0.016741356009312956,5895.98030855523
1.348,-0.021727921728273855,5897.6928943303965
1.352,-0.04100648835835758,5896.2483872161065
1.356,-0.038099026645278825,5893.811891725935
1.36,-0.018129622422005314,5895.758957762533
1.364,0.006633645865485799,5901.604134400542
1.368,0.020183252510707232,5899.069006514832
1.372,0.008149484719155439,5906.187161729687
1.376,-0.0364330723180605,5904.332867064189
1.38,-0.10916678569562863,5898.82604305044
1.384,-0.19400666566966562,5889.893749381839
1.388,-0.2673880032689449,5903.83792929291
1.392,-0.3059718450667482,5901.739690233492
1.396,-0.29573930090079453,5902.164511528767
1.4,-0.23925617020421078,5897.535730805119
1.404,-0.15799024356610097,5888.105111548472
1.408,-0.08771680682191307,5888.194414286046
1.412,-0.0670807972583546,5908.363622598793
1.416,-0.12179669439399965,5898.096816223306
1.42,-0.24906165320404505,5900.524285289714
1.424,-0.40772128991724793,5900.595570681624
1.428,-0.5189071990971671,5895.366209720275
1.432,-0.47922357280629824,5900.7430493849
1.436,-0.18476848217552205,5908.78995453054
1.44,0.4395829873787348,5902.706108444711
1.444,1.4138496206963467,5896.039631703231
1.448,2.688107607349307,5899.893488177286
1.452,4.145292951223433,5892.299468066215
1.456,5.622926796788119,5902.123427541501
1.46,6.94857497404568,5897.474601667063
1.464,7.9781701806682515,5897.284815659736
1.468,8.624970510051623,5901.577047562241
1.472,8.871272866369992,5897.420327981932
1.476,8.762219817512818,5904.510518233362
1.48,8.386809164735142,5888.946851523291
1.484,7.85346468718748,5894.247449186118
1.488,7.266857887884407,5905.638686021415
1.492,6.7105317523983725,5893.118407094896
1.496,6.237402039265321,5905.70360755419
1.5,5.8681431713617105,5904.251257661894
1.504,5.596086602699846,5894.395773247022
1.508,5.3963789577633685,5901.788336181546
1.512,5.236650107706131,5913.0807593412255
1.516,5.086552503066854,5903.46599356486
1.52,4.9242910947304575,5898.897477766429
1.524,4.7393308452477605,5898.408554101428
1.528,4.531575020753795,5902.005551725689
1.532,4.308237531609344,5904.460782045188
1.536,4.079995598014814,5900.48329742433
1.54,3.8576994890746064,5900.466933784031
1.544,3.650349409682439,5897.090255068023
1.548,3.4644902311454033,5897.311512413494
1.552,3.3045752631524112,5900.329146351838
1.556,3.1734500956685436,5888.410674066262
1.56,3.072286452119071,5896.868621519953
1.564,2.99990772149711,5893.886874082796
1.568,2.9519506026302826,5900.766549179521
1.572,2.92041855637202,5894.927518398624
1.576,2.89404856434934,5903.009581131012
1.58,2.8596799797794734,5895.940074357747
1.584,2.8044228919926195,5905.280848026389
1.588,2.7180311733093636,5897.640484573274
1.592,2.59490906160002,5904.133483472793
1.596,2.435544399552153,5903.339310279984
1.6,2.24723913346007,5894.183793895176
1.604,2.043636643582882,5898.208783895
1.608,1.8424049107193077,5901.14709167003
1.612,1.6611362515970867,5902.962510559326
1.616,1.5127511696735967,5896.444774600952
1.62,1.4024206591337511,5902.959631343684
1.624,1.3274973602891227,5905.079026314371
1.628,1.280403977195908,5905.215483316815
1.632,1.2528582765963534,5902.447142816155
1.636,1.239191372617773,5902.38834552478
1.64,1.2371972961365492,5898.295424766714
1.644,1.2464761192722131,5902.105755642234
1.648,1.2655913252639501,5907.974463745383
1.652,1.2897710599765777,5905.1331006416585
1.656,1.3103819934708707,5902.177743140964
1.66,1.3165254281395184,5898.162633429396
1.664,1.2982065390442319,5895.224426456887
1.668,1.2498300657739885,5909.912599084983
1.672,1.1726251237014358,5889.774436275685
1.676,1.075109642350727,5895.595394050865
1.68,0.9714634190495838,5889.823063810606
1.684,0.878252586018399,5898.106704575467
1.688,0.810294007227801,5902.99097485062
1.692,0.7766474489051592,5898.5268417578
1.696,0.7777427165931684,5895.201729548367
1.7,0.8044941079246757,5886.304464541909
1.704,0.8399604752526456,5886.288068912527
1.708,0.8635318786556997,5890.449437878347
1.712,0.8566816852096696,5887.114844254426
1.716,0.808475735350037,5885.714454755752
1.72,0.7189897263747103,5890.759484508402
1.724,0.5996465995527702,5885.681212342455
1.728,0.47060146967542643,5877.048415547427
1.732,0.3560289179245264,5884.248813782538
1.736,0.2783608849010235,5889.6922228589865
1.74,0.25246914562265815,5884.876765825029
1.744,0.28091820524972505,5887.067636334673
1.748,0.3517974368099255,5882.000737505952
1.752,0.4406074607675941,5885.778715151629
1.756,0.516487367036996,5885.423103985896
1.76,0.5511062946578531,5879.894898746912
1.764,0.5271947057431987,5895.77391439979
1.768,0.4438477178876746,5891.643677616978
1.772,0.3170044091473653,5880.480009739903
1.776,0.1750427821965162,5878.214707083062
1.78,0.050789735586430025,5891.094599011871
1.784,-0.027749444060237487,5887.9712466893225
1.788,-0.04526721189241971,5881.511933196896
1.792,-0.0034013797541047365,5882.663642110132
1.796,0.07982313327050178,5873.42320160705
1.8,0.17517948793780072,5878.749155092986
1.804,0.25045520272156047,5883.412715592767
