时间(s),电压(V),幅值(高频80K)
0.0,0.6263647211725326,5900.365998647111
0.004,0.47493215503016567,5897.372752647549
0.008,0.32792666948617233,5897.475462530425
0.012,0.19293838279869577,5898.295807719264
0.016,0.07903774570958472,5896.7880947113
0.02,-0.004433420614403639,5905.387573416004
0.024,-0.049929930141860625,5897.522860753762
0.028,-0.05400058403709716,5897.730648795536
0.032,-0.019298305743693126,5899.50297110979
0.036,0.044368263251653925,5887.493748927974
0.04,0.12080083394513101,5902.584379492123
0.044,0.1903778885139261,5898.6247056798575
0.048,0.2345140450765508,5908.9774723026585
0.052,0.2401164643069847,5900.392355492336
0.056,0.2026869157157573,5902.54061482781
0.06,0.1274200451166649,5898.287434021067
0.064,0.028196534697000928,5898.859580546894
0.068,-0.07536942839663949,5896.260398879012
0.072,-0.16231978474176373,5892.061592310605
0.076,-0.21504686902701797,5896.099631037243
0.08,-0.22270886461415135,5906.248821608297
0.084,-0.1821952400862323,5902.741297245522
0.088,-0.09675449888468697,5898.07266154263
0.092,0.026357611986037376,5899.334256130231
0.096,0.1776283666653541,5898.666613729241
0.1,0.34578589693890527,5895.226057746368
0.104,0.5176059052370877,5897.283148869989
0.108,0.6779802116063277,5903.273470747348
0.112,0.8105761464761376,5893.251131817048
0.116,0.8987718835289004,5893.983070053518
0.12,0.926808369026252,5898.793569240677
0.124,0.881737398663902,5902.441816462989
0.128,0.7565037883767196,5901.40918746306
0.132,0.5533072397054459,5895.901184785055
0.136,0.2855782895021992,5900.057995598399
0.14,-0.022619888814889435,5901.50092918068
0.144,-0.33978199692885297,5890.295140748696
0.148,-0.6319994473284961,5900.560226598144
0.152,-0.8689250102760282,5901.212425969543
0.156,-1.0295074436475118,5906.879564222803
0.16,-1.105949761405242,5896.622147675736
0.164,-1.1045654129228162,5910.250164714757
0.168,-1.043338733355584,5897.514239565651
0.172,-0.9471789606944069,5892.258626894749
0.176,-0.8422776358103322,5905.664361239417
0.18,-0.7508704119832662,5900.098882815806
0.184,-0.6875522473490202,5891.488477291666
0.188,-0.6579369476038569,5903.032019387834
0.192,-0.6596559324170385,5894.047751411185
0.196,-0.6848898162149162,5894.1831198472855
0.2,-0.7233888040614321,5902.692454169152
0.204,-0.7652325414015544,5893.365043172367
0.208,-0.8029765875121762,5898.530146269231
0.212,-0.8329835740058504,5893.852789485488
0.216,-0.8555759084216242,5900.860105566536
0.22,-0.8735443790151032,5893.880782797432
0.224,-0.88910951865347,5899.912237372484
0.228,-0.90067050917072,5904.503251435913
0.232,-0.901543577723009,5902.923306015974
0.236,-0.8821843698481567,5890.751095411037
0.24,-0.8352007645735876,5899.869360503237
0.244,-0.7604020038334878,5910.013721336534
0.248,-0.6668418462542902,5898.161268095525
0.252,-0.5704263191519149,5899.752880356021
0.256,-0.48795288997099695,5898.572473081412
0.26,-0.43022320987590346,5902.059550591543
0.264,-0.3974316190007663,5896.610041486125
0.268,-0.3789719371478325,5890.401286898931
0.272,-0.35755028292954727,5888.224911823739
0.276,-0.3154771281057089,5906.940957242436
0.28,-0.24038892942973883,5905.45404032668
0.284,-0.1284516420604445,5896.991927552399
0.288,0.015323870420157447,5895.550099405095
0.292,0.1786836922329727,5892.468832634138
0.296,0.34446536576432174,5904.332493197097
0.3,0.49319439078369626,5895.1335222063735
0.304,0.6060537614706298,5896.832232850139
0.308,0.66820714103665,5895.639705364996
0.312,0.6719154249674218,5903.061644084732
0.316,0.6184995076330861,5898.385433150532
0.32,0.5183367595237426,5907.397128076271
0.324,0.38870651769787035,5898.7409640937085
0.328,0.2500183308521216,5905.624387507089
0.332,0.12144040246574961,5904.7817479172
0.336,0.017209735836166605,5903.33293266633
0.34,-0.055150066421419175,5897.443981873815
0.344,-0.09426995112982876,5905.444201394491
0.348,-0.10299711245195889,5900.289115372598
0.352,-0.0868426741164288,5899.717154180135
0.356,-0.05381726411143506,5893.659040479667
0.36,-0.015006111645076982,5902.400062391801
0.364,0.015644814295609617,5905.456020620654
0.368,0.023258316434610397,5903.41993561335
0.372,-0.004677052055071755,5891.110440680194
0.376,-0.0748157696742737,5908.432869164426
0.38,-0.18552484742305814,5894.177637097459
0.384,-0.3264742702043827,5905.580235554184
0.388,-0.48073457928528956,5907.993308349251
0.392,-0.6290160191255949,5888.401995743948
0.396,-0.7545317699497399,5891.5099794513535
0.4,-0.8463479371271684,5897.735324327558
0.404,-0.8998002950305785,5902.823044713285
0.408,-0.9143086885214874,5908.38687837963
0.412,-0.890548469130677,5893.348024778513
0.416,-0.8294034054927775,5894.303526796101
0.42,-0.7339152557579754,5894.625994549379
0.424,-0.6130132364790906,5898.965969927876
0.428,-0.4839241259424341,5902.377414210684
0.432,-0.37059649450108606,5895.085422779906
0.436,-0.29792642977340766,5900.841791412944
0.44,-0.28403366228004656,5902.45338587537
0.444,-0.33385106511925416,5899.618758906982
0.448,-0.4367386141531983,5897.451569965905
0.452,-0.5690782859135457,5906.667858906283
0.456,-0.7005869719982906,5898.2416349049145
0.46,-0.801673703969289,5904.582380640436
0.464,-0.8493485738841009,5903.822454305839
0.468,-0.8304661701217335,5902.029890902082
0.472,-0.7423942748059315,5908.025735486827
0.476,-0.5918913885580928,5897.691104308166
0.48,-0.3930818159183212,5902.718303547279
0.484,-0.16531262979536093,5900.977415855249
0.488,0.06854857490909513,5903.931424698934
0.492,0.28339455399508645,5894.604410406282
0.496,0.4534631287818251,5896.363909261688
0.5,0.555076916982984,5898.829543412004
0.504,0.5707141521624183,5892.192943661929
0.508,0.49359836242411326,5901.627540327816
0.512,0.331201977257156,5894.828237391958
0.516,0.10581706417299311,5902.25481456627
0.52,-0.14891350655781255,5892.191400208351
0.524,-0.39487276093507095,5905.481561692133
0.528,-0.5974022301806362,5901.559352821119
0.532,-0.7315951347070575,5902.962951996361
0.536,-0.7855150007678421,5899.702467698359
0.54,-0.7605458832201295,5907.08021786151
0.544,-0.6697495529459072,5903.610171245585
0.548,-0.5346677820433064,5905.367202597074
0.552,-0.3805197685558088,5909.142766049275
0.556,-0.23026266660283518,5894.654242861079
0.56,-0.09926775025363722,5896.366145606828
0.5640000000000001,0.007133940853615167,5901.0309236435405
0.5680000000000001,0.09228009035291349,5899.817300106361
0.5720000000000001,0.16410076536425786,5901.458669423045
0.5760000000000001,0.2304639274430798,5903.965279659829
0.58,0.2955392282775096,5895.713216289534
0.584,0.3577731609195807,5890.5966283404505
0.588,0.4095633242249609,5905.0480253140295
0.592,0.438690694131245,5902.758947838313
0.596,0.43151335883111624,5905.610836297076
0.6,0.3775501885679106,5898.140275014648
0.604,0.27442153365628974,5892.334924833423
0.608,0.1314401567685807,5894.680386473675
0.612,-0.030035883248211687,5899.883054677285
0.616,-0.18055795160231997,5905.518080930502
0.62,-0.2901590217814419,5896.663802833726
0.624,-0.3370802165071742,5902.884260783791
0.628,-0.314513880123775,5907.156639726808
0.632,-0.23290979717015017,5899.941739102247
0.636,-0.11689959387553799,5905.237920949193
0.64,0.002314834888180493,5896.413966150763
0.644,0.09664163278681785,5891.421158276611
0.648,0.14954300715087013,5900.074220037485
0.652,0.16035613207171076,5896.27644544398
0.656,0.14319364212183702,5904.306910524372
0.66,0.12119529719341328,5897.344295120977
0.664,0.1184547731893045,5890.5265519336735
0.668,0.1523209177459528,5906.237987175978
0.672,0.22808581097642044,5902.467501692093
0.676,0.33698934386064694,5899.7956154594185
0.68,0.4576407556155314,5904.220892960405
0.684,0.5605336827207045,5905.8939367930025
0.6880000000000001,0.6149704572110261,5892.680580746306
0.6920000000000001,0.5971160613170282,5901.329587830324
0.6960000000000001,0.4971970711363865,5912.984455744138
0.7000000000000001,0.323476953182857,5892.737048026207
0.704,0.10111059367326725,5903.646511353857
0.708,-0.13439214786036738,5908.420675015856
0.712,-0.3471140245264952,5902.880380423473
0.716,-0.5105297879091509,5895.682604249493
0.72,-0.6136067814815168,5897.226281069276
0.724,-0.6611142002097741,5895.624680730745
0.728,-0.6683115478343644,5899.4241594132045
0.732,-0.6525148665523702,5895.076075995996
0.736,-0.6254188231793212,5907.981562695729
0.74,-0.5896052323383707,5908.057788494592
0.744,-0.5405040244996203,5903.098855452557
0.748,-0.47229244120502184,5901.853463593423
0.752,-0.3842256153634967,5896.777473288232
0.756,-0.2838442859450607,5898.445786610172
0.76,-0.1855775286122683,5894.651072781133
0.764,-0.106027755742359,5899.595134418219
0.768,-0.05869936116910694,5901.641099368068
0.772,-0.050463354191512134,5913.204035012548
0.776,-0.08057156397536099,5906.66912302025
0.78,-0.14171833549323354,5901.367725043695
0.784,-0.22208993884935924,5894.298921450078
0.788,-0.30758247571040676,5896.505792450273
0.792,-0.38396536113241303,5901.573173879117
0.796,-0.4390892030578448,5902.015358404388
0.8,-0.4650563707820526,5897.899310688633
0.804,-0.45989539486321085,5893.629192382881
0.808,-0.42812694470746704,5904.2565291253695
0.812,-0.37987703999413275,5908.053798457027
0.8160000000000001,-0.3286930659489229,5899.889413612769
0.8200000000000001,-0.28848766160896866,5897.010989127508
0.8240000000000001,-0.26997863520583537,5899.071298005734
0.8280000000000001,-0.27712295058822967,5898.267024774497
0.8320000000000001,-0.30462143121148577,5900.240230344386
0.836,-0.3379771580043773,5898.4256793280365
0.84,-0.35704873284666866,5899.297617941012
0.844,-0.3426296528188425,5905.635078588406
0.848,-0.28410188131419756,5901.306376123002
0.852,-0.18531058463464595,5904.056554934807
0.856,-0.06584603336814562,5903.244206449803
0.86,0.043709174331232226,5909.670713604803
0.864,0.11139488472631083,5901.31701118656
0.868,0.11465037360352362,5898.398963163234
0.872,0.047861009146948574,5899.1850491029845
0.876,-0.07612822525226734,5899.735705464787
0.88,-0.23064849699376516,5887.634943479553
0.884,-0.383876138604369,5905.107891934354
0.888,-0.5083242333999516,5892.270671832565
0.892,-0.5878741405630994,5902.636930546573
0.896,-0.620028643668338,5901.998287527624
0.9,-0.6131567058733685,5903.071865199085
0.904,-0.5808069807922809,5902.904609292513
0.908,-0.5360976323662937,5891.331958034327
0.912,-0.48826534813283573,5896.978908826597
0.916,-0.4418191418822296,5903.577942785975
0.92,-0.397648211299955,5889.948840377509
0.924,-0.35506421892179285,5902.835278238124
0.928,-0.3137341867358664,5901.324226303545
0.932,-0.27470311725217117,5899.336166755403
0.936,-0.2402453814382416,5893.891803103181
0.94,-0.2127730324690364,5902.082177768203
0.944,-0.19324107196012008,5896.888716687275
0.948,-0.17972916268604266,5898.511949389945
0.952,-0.1671603434439736,5905.457878443641
0.956,-0.14878071544209182,5893.612742824273
0.96,-0.11890067608641725,5903.775878186137
0.964,-0.075428850140176,5904.003330247979
0.968,-0.020820844592513345,5898.877936946383
0.972,0.03892019323882088,5895.426981020777
0.976,0.09639895951365593,5895.614645304257
0.98,0.1447275469002691,5893.039788784771
0.984,0.1779961720615067,5896.456453809821
0.988,0.19020282321410828,5894.277476185162
0.992,0.17389950148935693,5907.273977235521
0.996,0.12050620477356032,5897.064400911556
1.0,0.023446397366214945,5907.322526715564
1.004,-0.11679320545414977,5900.350986831903
1.008,-0.2885561447898668,5893.897452117438
1.012,-0.4691240539524526,5895.878360964688
1.016,-0.6303936375221513,5901.061443752419
1.02,-0.748117985907405,5903.25330540555
1.024,-0.810120982268464,5900.536518436441
1.028,-0.8191657384541257,5889.319214471885
1.032,-0.7892300072063189,5899.788165463973
1.036,-0.737528807864994,5900.739811220133
1.04,-0.6763927078821352,5906.416280063812
1.044,-0.6084688773911917,5897.604804080202
1.048,-0.5266505391541916,5900.209409892825
1.052,-0.4180606183027288,5900.304916070204
1.056,-0.27019882270943557,5898.504657201329
1.06,-0.07711501912998629,5895.661333812347
1.064,0.15621446032309672,5904.394591280079
1.068,0.41261056665621304,5906.628116622435
1.072,0.6649329583365707,5897.211313495869
1.076,0.8809511935834178,5903.172788946498
1.08,1.029111587940375,5910.315669861978
1.084,1.0838641323505747,5894.923597924149
1.088,1.030117911050699,5910.579329133681
1.092,0.8665871690187517,5892.47081353507
1.096,0.6073673215603311,5900.698658289341
1.1,0.2809372154606378,5891.383993116922
1.104,-0.07375217830046508,5898.148718135324
1.108,-0.41358131556187167,5909.280319871654
1.112,-0.6985006883909674,5906.3065797667305
1.116,-0.8977830277128505,5904.0935586930445
1.12,-0.993817262413437,5895.7982845977
1.124,-0.983066973974716,5902.787452108749
1.128,-0.8747971935696928,5896.7624121693125
1.132,-0.688510598998045,5906.003099320105
1.136,-0.45077585268279985,5900.166081046314
1.14,-0.19173200616395608,5889.392569828984
1.144,0.05860619856619286,5897.312712316759
1.148,0.274019601681525,5903.887682973238
1.152,0.43532820159719543,5900.044958267165
1.156,0.5326420967433464,5912.72431035217
1.16,0.5659969359793745,5896.674049603035
1.164,0.5440194214848773,5904.003010609532
1.168,0.48098300421747125,5897.023754298341
1.172,0.39336861845911053,5898.945563302593
1.176,0.29717218204358575,5911.911863796533
1.18,0.2064914138241879,5900.987327784638
1.184,0.13290078091956245,5898.556348681433
1.188,0.08464791062648089,5899.317636913575
1.192,0.06520838875322804,5899.531480049434
1.196,0.07177421040708401,5900.018155541628
1.2,0.09496608240782392,5904.457434459003
1.204,0.1208770110319086,5911.830942905864
1.208,0.13543025667980169,5903.114320277976
1.212,0.12951763769405542,5900.360283064378
1.216,0.10248616296366961,5904.3698140423385
1.22,0.062096919816847014,5895.599887685196
1.224,0.02094204826985197,5889.0624191216175
1.228,-0.00879312136521364,5895.433997991926
1.232,-0.019760190129952743,5904.41129650076
1.236,-0.01154095502855436,5895.396620635826
1.24,0.009680764736005936,5908.095194073388
1.244,0.033075009807243955,5896.548506485898
1.248,0.045975073695399965,5900.875283083247
1.252,0.03718313810182228,5892.32453726887
1.256,0.0004642824821447878,5897.085282459588
1.26,-0.06256371779958865,5903.261120744621
1.264,-0.14138100214305896,5892.3750111050185
1.268,-0.21839098422210193,5899.012435652026
1.272,-0.273666697127337,5895.277117921357
1.276,-0.2912349101153177,5891.763189929562
1.28,-0.26446388980026053,5902.543946702063
1.284,-0.19832359493491644,5895.589552772176
1.288,-0.10776189993958994,5893.145388590961
1.292,-0.013156259305677948,5901.574102759591
1.296,0.06530007802570373,5894.560458798126
1.3,0.11250242377022691,5897.083345480542
1.304,0.12146569548160531,5902.648890308156
1.308,0.09411720856436652,5894.889580451533
1.312,0.040267350589662285,5905.425175426894
1.316,-0.024507919708486724,5908.14619020637
1.32,-0.08172243192083628,5896.287902487555
1.324,-0.11368738784525215,5901.3145278035445
1.328,-0.10790732437834209,5908.682920232352
1.332,-0.061109840930293646,5905.719500768911
1.336,0.01870831802618038,5900.013186787724
1.34,0.11340576067650023,5900.28714107212
1.344,0.19891038723603,5896.520783534279
1.348,0.25108308782250827,5899.422391433523
1.352,0.25119989755419825,5913.010876777097
1.356,0.18957249575753995,5890.237048722053
1.36,0.06701244419884742,5898.568102634285
1.364,-0.10534550781945079,5896.759756904354
1.368,-0.30748218005317685,5889.868073559761
1.372,-0.5134621355844289,5903.146459018066
1.376,-0.6963052441887236,5896.785671436126
1.38,-0.8341791591865411,5896.684638488943
1.384,-0.9159829643069376,5900.319282385124
1.388,-0.9439027987543572,5890.887612230852
1.392,-0.9315914787550269,5899.43583085973
1.396,-0.8987319097178067,5898.438323139577
1.4,-0.8644011996863578,5898.322491859684
1.404,-0.8417511475348598,5906.144418702626
1.408,-0.835347307122161,5902.600792009285
1.412,-0.841145555739918,5902.159984684283
1.416,-0.8483329613791046,5896.861043115307
1.42,-0.8423084537010708,5904.637295916355
1.424,-0.8085220989320753,5902.823721677758
1.428,-0.7369608578684086,5898.104454645615
1.432,-0.6263777718215932,5903.356796039452
1.436,-0.4864701079729569,5901.490506657588
1.44,-0.3362160723630402,5898.948947995771
1.444,-0.19808359352366273,5893.625520731106
1.448,-0.09023021750869874,5899.090440052967
1.452,-0.02052150337195567,5905.679013859169
1.456,0.01431848620238882,5893.290353253787
1.46,0.023944983233314246,5911.711225860776
1.464,0.016904594432661558,5900.372056899782
1.468,-0.005137492716098823,5893.562890693221
1.472,-0.04817473035896165,5899.011640425811
1.476,-0.12123950908159992,5895.271032982218
1.48,-0.22886733596268719,5894.740131080108
1.484,-0.3646812931953941,5899.268705420888
1.488,-0.5096910427069871,5900.838981431881
1.492,-0.6365833746722419,5904.456722014248
1.496,-0.718272514713247,5898.119538169759
1.5,-0.7370326194571183,5895.766866089181
1.504,-0.6905895910172399,5894.4242791621
1.508,-0.5930817773213057,5903.016298092139
1.512,-0.4707612119477512,5899.522088966291
1.516,-0.354080331277025,5901.688816203829
1.52,-0.26899645136775974,5907.805196500521
1.524,-0.23040447124065538,5900.95995452046
1.528,-0.23942949214454728,5899.968046524278
1.532,-0.28461374904382314,5895.134011428009
1.536,-0.3458636647924613,5906.208974434316
1.54,-0.39974289644282807,5900.273137063798
1.544,-0.42494716589970016,5903.711280481938
1.548,-0.4071486219367161,5897.414062709415
1.552,-0.3425641115241411,5897.03711115854
1.556,-0.23943428418995005,5902.524428378947
1.56,-0.11644329023989869,5900.298850030403
1.564,0.0022346915455596864,5902.147875286313
1.568,0.09393209257686952,5899.706436115151
1.572,0.1438163002638468,5902.792660305799
1.576,0.14812521274671367,5897.078742616643
1.58,0.11353539335265267,5904.109191500136
1.584,0.05344230209757924,5905.256646246256
1.588,-0.01727314726049488,5904.75462803773
1.592,-0.0871327692769285,5904.851455613761
1.596,-0.15092679077092575,5901.626767654354
1.6,-0.2097367031557634,5902.856516619457
1.604,-0.26856908794169365,5894.012625480371
1.608,-0.3329410697254991,5894.458276149239
1.612,-0.40574075138406424,5900.618903966525
1.616,-0.48519427432736484,5893.023765902402
1.62,-0.564483933828863,5901.052814910807
1.624,-0.6333220555546214,5895.920099498497
1.628,-0.6810537650493271,5893.604643479931
1.632,-0.6999957423294382,5898.929700912585
1.636,-0.6876668653259898,5893.237565017913
1.64,-0.64732890456626,5900.528350037365
1.644,-0.5868849776465029,5898.273382711392
1.648,-0.51635348441637,5902.138529002263
1.652,-0.4444006885512281,5900.909532329118
1.656,-0.3749957220649495,5899.2212873161225
1.66,-0.30566144301173404,5898.719881124111
1.664,-0.2284824511332472,5911.239753986714
1.668,-0.13389205241564633,5891.314644377664
1.672,-0.015855904430026144,5905.511786392231
1.676,0.12371651897164176,5895.331341442186
1.68,0.2732500744470738,5895.106247772521
1.684,0.41329924041580235,5900.187669498882
1.688,0.5212784516107535,5903.296201766157
1.692,0.5775291955483907,5897.62076876241
1.696,0.5709512677781164,5894.611136126081
1.7,0.5027790745581964,5902.99967290661
1.704,0.3874441648458283,5903.919112734953
1.708,0.24990881519774585,5906.95595086179
1.712,0.11973153278268953,5905.15177872226
1.716,0.02332081635520661,5899.948598482941
1.72,-0.023207462469757724,5900.395880873704
1.724,-0.01801525553313424,5902.454744846564
1.728,0.027140650922861567,5901.107544864273
1.732,0.09177243358213423,5896.397462119742
1.736,0.15339180903084554,5888.934309995551
1.74,0.19342407127612224,5900.490637402709
1.744,0.2007477306609422,5904.6885191529145
1.748,0.17270501066175992,5897.221339391248
1.752,0.1141740138277453,5898.861127435697
1.756,0.035465487370448294,5900.539242771342
1.76,-0.05022249326015646,5896.827872587186
1.764,-0.12917608829212604,5903.658812514236
1.768,-0.18895035065666327,5910.529784872486
1.772,-0.21948473076886493,5897.319816942125
1.776,-0.2139251697323784,5891.688787050536
1.78,-0.16979554773437167,5898.701956306333
1.784,-0.09083044340896979,5898.46397596784
1.788,0.011007322135113608,5892.452521147645
1.792,0.11442876109032654,5897.54870175635
1.796,0.18987684963616447,5892.555957473665
1.8,0.20367100234460925,5894.499754127413
