时间(s),电压(V),幅值(高频80K)
0.0,0.2352568402290392,5900.432839624358
0.004,0.048214737882661445,5899.689948257111
0.008,-0.12482036558109129,5896.681601940203
0.012,-0.26719508012829474,5900.0589897838645
0.016,-0.36375503330831316,5898.7340200261615
0.02,-0.4038806741992563,5904.71878080032
0.024,-0.38479277503604725,5897.454751246338
0.028,-0.3136020589607892,5906.702230769566
0.032,-0.207178473115549,5895.550260506654
0.036,-0.0897892949197091,5898.207649713613
0.04,0.011110916283190086,5909.036369243921
0.044,0.0703147096589156,5895.33568450208
0.048,0.0703440122675293,5898.58135650716
0.052,0.005396606090908796,5900.81104889398
0.056,-0.11729684110373442,5898.071850602363
0.06,-0.27866070930295866,5909.288904230984
0.064,-0.45093059265370306,5900.913780933995
0.068,-0.6024736265325169,5907.255399470033
0.072,-0.7041470591188664,5890.98150037097
0.076,-0.7363860497501782,5914.372388486744
0.08,-0.6949993998390245,5903.450702391623
0.084,-0.5931189172297144,5897.836555198594
0.088,-0.45785129222044185,5906.934075391778
0.092,-0.3225257512579732,5903.87193846548
0.096,-0.21739767387494086,5907.626590410555
0.1,-0.1619800957725038,5899.385423964396
0.104,-0.16111449809822803,5900.089946358374
0.108,-0.2054913555482442,5893.075783161645
0.112,-0.27599300969844875,5902.441707591876
0.116,-0.35001507834415135,5911.606219917433
0.12,-0.40738853822996285,5893.181692150289
0.124,-0.434217508733788,5895.101823500085
0.128,-0.4244228081833961,5899.234207422999
0.132,-0.37987619754708635,5900.104154361009
0.136,-0.3099969152296316,5902.857152009862
0.14,-0.2308128135283899,5898.153897891506
0.144,-0.1626425045360814,5900.925730395243
0.148,-0.12567729275050418,5914.956740920092
0.152,-0.13407062267942363,5899.648490672858
0.156,-0.19061573402162071,5892.301622531895
0.16,-0.2842995122742402,5901.879238878128
0.164,-0.3918799990246404,5904.763181559316
0.168,-0.4832333165699994,5891.07928757725
0.172,-0.5292257496194643,5897.7530076981375
0.176,-0.5101179328646912,5897.124146712937
0.18,-0.421947305927532,5893.280068484302
0.184,-0.2785173192412246,5896.181582880719
0.188,-0.10799618913027599,5881.013438696379
0.192,0.05478007834546083,5909.168194348425
0.196,0.17757784500015175,5900.039841990594
0.2,0.23859459520001824,5903.861647957211
0.204,0.23077094165463719,5901.785411481978
0.208,0.16194734397924074,5905.060354895261
0.212,0.051512419681128734,5902.398194338203
0.216,-0.07504709501672549,5905.091819368142
0.22,-0.1921607391003343,5897.606278957188
0.224,-0.2794450536457169,5896.267217451778
0.228,-0.32509870970125754,5908.192197657307
0.232,-0.3265682732471708,5904.388257839109
0.236,-0.2885000456563538,5899.688786982463
0.24,-0.21928508044143405,5900.7099542150045
0.244,-0.12824901199207656,5895.022767461408
0.248,-0.02498657287084149,5901.0248338987285
0.252,0.07927050996894378,5897.193637692099
0.256,0.17002137569754827,5901.626821661952
0.26,0.2299085142741561,5896.712213689137
0.264,0.24229087619638123,5900.680513001136
0.268,0.19680379064517498,5895.509252769245
0.272,0.09407990220924482,5896.345905041987
0.276,-0.052902241782314875,5900.365253052995
0.28,-0.22160211168670513,5899.709214943278
0.284,-0.3858346711410458,5910.506825193416
0.288,-0.5228362371152692,5903.497048724719
0.292,-0.6191048233062988,5895.399621151294
0.296,-0.672890670196443,5898.745516470426
0.3,-0.6924529515240234,5895.3376544522525
0.304,-0.6910598682094115,5906.019841295675
0.308,-0.6810489092926183,5902.574731656326
0.312,-0.6693289374565433,5902.874004757929
0.316,-0.6557450926470703,5903.8968828161405
0.32,-0.6344696576145468,5892.6162173025605
0.324,-0.5975597549087897,5904.942386447806
0.328,-0.5392390460957864,5905.710177387815
0.332,-0.45936240309257353,5898.09219563971
0.336,-0.3648715300786293,5903.930957670773
0.34,-0.26873728180844336,5906.494860996522
0.344,-0.1867584829159399,5900.7612204229445
0.348,-0.13332649966669394,5901.925276883768
0.352,-0.11745135555047209,5891.414718562909
0.356,-0.13998514185840225,5906.29776186219
0.36,-0.1925898786407401,5894.348635097195
0.364,-0.25885555274329763,5891.417111103249
0.368,-0.3177300754165279,5901.372494380713
0.372,-0.34874276342841093,5896.11974632255
0.376,-0.3376759695154625,5898.899653490768
0.38,-0.280977025828871,5908.412889816344
0.384,-0.18756562987997616,5896.766649600214
0.388,-0.07752376265551368,5896.346990951691
0.392,0.021975757365217806,5895.99914052411
0.396,0.08257671412772342,5903.11811169441
0.4,0.08139554547801771,5897.535271278423
0.404,0.007274048503326986,5897.162907281533
0.408,-0.13487955072062552,5895.499134868504
0.412,-0.32344155165922034,5898.404964442129
0.416,-0.5241718196777905,5903.791529458187
0.42,-0.6983324856260061,5897.200027444
0.424,-0.8123675864360955,5904.248802170608
0.428,-0.8460905235826779,5897.5606120371
0.432,-0.7970371322502835,5897.727260742124
0.436,-0.6801132081399719,5894.7113759378535
0.44,-0.5231269129923699,5895.982707203984
0.444,-0.35969617358781725,5897.5011178154855
0.448,-0.22135774763655322,5896.863579330817
0.452,-0.13079056147314444,5894.109868525691
0.456,-0.09788815850644836,5909.582121635398
0.46,-0.11963848266640524,5905.92076692178
0.464,-0.18343452481746528,5902.50468140889
0.468,-0.2721923821387026,5895.944678171734
0.472,-0.36921813532367176,5903.320555573681
0.476,-0.4613396744042123,5901.000422853723
0.48,-0.5398969746787611,5893.151548224894
0.484,-0.6000629685286811,5902.824220048959
0.488,-0.6393947318207599,5899.616784935491
0.492,-0.6565674239909204,5902.21183839737
0.496,-0.6509223698769275,5896.068643242587
0.5,-0.6228489010255985,5903.618807575512
0.504,-0.5745263041836403,5910.463443681019
0.508,-0.5105421832106359,5902.808933684296
0.512,-0.43816374547030834,5902.482063905534
0.516,-0.36704804204128577,5893.356068861645
0.52,-0.3079896118514172,5905.819949157159
0.524,-0.27057851265287847,5898.678127201356
0.528,-0.26050273217006387,5895.436548589383
0.532,-0.2777904866296265,5898.921075505937
0.536,-0.31682333228295134,5896.934793316648
0.54,-0.36793185888681035,5900.159946099668
0.544,-0.4198004509546062,5900.034378156852
0.548,-0.4620161563291231,5901.336459068741
0.552,-0.487385211785879,5903.9850189790695
0.556,-0.49368579465309786,5896.194224337979
0.56,-0.48441190912207194,5904.911159873575
0.5640000000000001,-0.4680666249342109,5904.288351610881
0.5680000000000001,-0.4558270075685079,5897.258724506418
0.5720000000000001,-0.45793837882386934,5903.347658877848
0.5760000000000001,-0.479848017665001,5906.375312810676
0.58,-0.5194973217981013,5892.759946116818
0.584,-0.5670304061119306,5905.930674006494
0.588,-0.6073794584188527,5890.515945992291
0.592,-0.6249734467101604,5894.273618385032
0.596,-0.6087720639499171,5906.802565964888
0.6,-0.5556534134156413,5902.235751459755
0.604,-0.47098550487213664,5901.076049565594
0.608,-0.366405027177229,5892.616180281517
0.612,-0.25589166766018073,5902.984084356977
0.616,-0.1519175854790077,5899.479033601775
0.62,-0.06338594683520067,5895.812299316571
0.624,0.004022333791579414,5903.428212938746
0.628,0.046073473005494026,5897.323878726161
0.632,0.05869360805055985,5892.9567528089065
0.636,0.038560747089024884,5903.735926530605
0.64,-0.014618569873562895,5897.528568674768
0.644,-0.09568675648863498,5897.314889596394
0.648,-0.19318257995767643,5904.54962662557
0.652,-0.2909440934407929,5901.262051440462
0.656,-0.37186755822938256,5904.296070603663
0.66,-0.42248833427605176,5902.980000364718
0.664,-0.4366158756129497,5904.203289142263
0.668,-0.41671660619775,5899.966067786544
0.672,-0.37276045198950836,5893.385129731391
0.676,-0.31911757451409034,5898.0577452601965
0.68,-0.2705226420612441,5898.474321806042
0.684,-0.23827304454180867,5901.359920994016
0.6880000000000001,-0.22772409761282572,5895.823523862687
0.6920000000000001,-0.2376641639349046,5906.10113091835
0.6960000000000001,-0.2614428019972984,5898.759984015756
0.7000000000000001,-0.2892063907506839,5898.327535022164
0.704,-0.31052392841426496,5898.02294143781
0.708,-0.316920482603595,5911.183182182115
0.712,-0.3040214570380107,5905.551777937108
0.716,-0.27289467971743453,5908.351740242307
0.72,-0.2299171355508204,5900.370054087237
0.724,-0.1846773241192491,5907.031705231794
0.728,-0.14638944314472643,5905.848774647793
0.732,-0.12039717919067015,5903.409024355268
0.736,-0.10646120566161354,5907.612037895364
0.74,-0.09939703189393717,5895.120617955859
0.744,-0.09125766491900679,5900.9522785646495
0.748,-0.07381487000272915,5907.538928305609
0.752,-0.04067857731104893,5898.463649267771
0.756,0.010951917846626557,5892.387603466331
0.76,0.07893328578183376,5900.287380179656
0.764,0.1556671530431032,5896.7802823298025
0.768,0.2290273825273522,5903.1418088742585
0.772,0.2849475157946779,5898.49064293498
0.776,0.3111272127821877,5897.941744532071
0.78,0.3005882387061117,5902.204812613647
0.784,0.2537748313713318,5906.884100260263
0.788,0.17867251495138675,5893.806751163796
0.792,0.08925136683031645,5898.552782656848
0.796,0.0027886002611309042,5890.563236028851
0.8,-0.06348328290332385,5897.718346788489
0.804,-0.0959277798039716,5898.910027956432
0.808,-0.08755443810067746,5901.36860383259
0.812,-0.039762996311126717,5894.656046699783
0.8160000000000001,0.03775900225913371,5901.805614757056
0.8200000000000001,0.12901163221576645,5901.922597176536
0.8240000000000001,0.21510366599390607,5894.2006602684905
0.8280000000000001,0.2784201563836337,5900.9220669228
0.8320000000000001,0.3066474098488793,5896.087877350914
0.836,0.2956094174713524,5894.17759559628
0.84,0.24989886268213074,5915.670208026416
0.844,0.1807732243179103,5899.198285557319
0.848,0.10185049451234827,5905.127575488594
0.852,0.02435469049224625,5897.99650656914
0.856,-0.04591036348088538,5897.479211146692
0.86,-0.1086282177328501,5894.020957255425
0.864,-0.16658323223815208,5895.657082227457
0.868,-0.22253833278253207,5899.62461270435
0.872,-0.27704929968945946,5903.938282753719
0.876,-0.3279777274295918,5895.079969002184
0.88,-0.37148527079281984,5907.946685080258
0.884,-0.40362422441380214,5903.004136919815
0.888,-0.42142656088708125,5906.904057802069
0.892,-0.42287069643762837,5899.317637914678
0.896,-0.40613774757721227,5899.903409404247
0.9,-0.3693380624796138,5897.0778137417055
0.904,-0.3116071310059317,5904.477458215915
0.908,-0.23527059554766946,5899.846634317456
0.912,-0.14766204577724093,5891.940017790498
0.916,-0.06109144016662866,5903.0903016762695
0.92,0.009502413176469365,5901.131229379462
0.924,0.05030294788401924,5908.683284540837
0.928,0.05218232291132293,5897.624062243602
0.932,0.012959108876403301,5898.62456355106
0.936,-0.061839082695815395,5893.810650358112
0.94,-0.15950002486204523,5900.239190269307
0.944,-0.2620105413617343,5901.130792206111
0.948,-0.3495755818414797,5910.163344537494
0.952,-0.4055955735489621,5895.912403359904
0.956,-0.42194650946857504,5898.517484837371
0.96,-0.40251908998400404,5892.502208277551
0.964,-0.36294999150614593,5900.64918002435
0.968,-0.32580185428354597,5899.124703739797
0.972,-0.3126371216724656,5895.542827506192
0.976,-0.3361090399545625,5902.703634598061
0.98,-0.39529369717407736,5903.609130413646
0.984,-0.47607774653744217,5891.504390912948
0.988,-0.5562472261201411,5896.377558691895
0.992,-0.6129044175223584,5908.520019022206
0.996,-0.6289961493940751,5892.338491284274
1.0,-0.5966543571715849,5902.374542528947
1.004,-0.5170890431872139,5898.982996014651
1.008,-0.39845791242507494,5895.095188772834
1.012,-0.2534959083366212,5902.884571168303
1.016,-0.09792293418160058,5911.771871241758
1.02,0.05040835623589924,5899.068490790529
1.024,0.1723124455083547,5898.9997883611
1.028,0.24871182897340183,5897.074544254774
1.032,0.2630146064016736,5897.4606936230575
1.036,0.20436637272253239,5897.443741004788
1.04,0.07158377520227442,5898.038583488295
1.044,-0.12252742449843883,5899.38859551892
1.048,-0.3471687813305869,5897.600060369579
1.052,-0.5513222649297793,5901.33830266906
1.056,-0.6654147689004556,5895.85171999345
1.06,-0.6087736627405159,5895.055496914974
1.064,-0.3034051682711319,5907.028359228431
1.068,0.30748236962097636,5893.403814360845
1.072,1.2400979063309565,5898.232540537236
1.076,2.4557107495177415,5894.667996019827
1.08,3.8578372754370758,5895.204188080099
1.084,5.305270541645027,5905.779763023125
1.088,6.639667269017381,5900.689618627096
1.092,7.719704262360238,5901.126075105718
1.096,8.450331223236747,5899.739704158289
1.1,8.798010108487373,5906.643348640737
1.104,8.789254302226068,5906.272708311288
1.108,8.49602004796806,5903.824493258822
1.112,8.014630971284264,5897.257020891307
1.116,7.444675676806216,5900.195501020643
1.12,6.872124651630543,5909.858075267624
1.124,6.358471004212716,5897.9188056291005
1.128,5.936088934810035,5901.312372426994
1.132,5.609307791307741,5906.888884148303
1.136,5.36030266601272,5892.664585449555
1.14,5.158340111808129,5904.89606730878
1.144,4.97032765846375,5899.561075546627
1.148,4.770323882506887,5893.110499462487
1.152,4.545841716934013,5896.228061071183
1.156,4.299534125789286,5899.60913035526
1.16,4.046142725321077,5895.703300511372
1.164,3.806040032345111,5899.68044335749
1.168,3.5977702858658627,5895.86429146308
1.172,3.432229542257972,5887.844220368196
1.176,3.3102861304286466,5904.867101830148
1.18,3.2239895409416195,5898.73051506505
1.184,3.1599287341164173,5903.057901897594
1.188,3.102784840132371,5900.735694818043
1.192,3.037934712386407,5904.216185796798
1.196,2.9532273041445714,5896.51200910642
1.2,2.8405524337055166,5903.76842642122
1.204,2.697276777546629,5901.943094165584
1.208,2.5269050369988766,5906.918447751651
1.212,2.3383248901763065,5892.201966487471
1.216,2.143710898391418,5895.646856515866
1.22,1.9559296167531668,5896.129222467865
1.224,1.7865325968311627,5896.334378257501
1.228,1.644983096063347,5894.265815852799
1.232,1.5388069380421023,5900.609267826769
1.236,1.4735191044994027,5899.5869348339775
1.24,1.45133476195733,5907.035643892548
1.244,1.4689375168840546,5898.117108186847
1.248,1.5158509589351796,5902.252877039022
1.252,1.5750048740435458,5894.267927748352
1.256,1.625860654300778,5904.73054573462
1.26,1.649098380829945,5904.574401417033
1.264,1.6313267889586023,5897.949447637987
1.268,1.5684542445907566,5899.9544683771255
1.272,1.4668136652669428,5909.171615250629
1.276,1.3417942407275063,5889.978334994212
1.28,1.2144505580813416,5895.679615460784
1.284,1.1069528041898227,5903.158179452186
1.288,1.0378030054337142,5892.165033250749
1.292,1.017804115552852,5894.635443486803
1.296,1.0478015717055085,5891.670873761726
1.3,1.1188353289547461,5896.655875632141
1.304,1.2145139653405976,5893.947585747481
1.308,1.3146985159163629,5891.796864111659
1.312,1.399466392574802,5891.93586722013
1.316,1.4526670165794764,5899.849893057767
1.32,1.4646450342060933,5890.930830166001
1.324,1.4337226617922951,5884.477152961385
1.328,1.3660950679451984,5892.16998496583
1.332,1.274084387555597,5885.034472593075
1.336,1.173052956937633,5889.834664862492
1.34,1.0775455233744933,5897.12637657809
1.344,0.9974761610801574,5887.675991810631
1.348,0.9353974419701375,5883.38705460141
1.352,0.8858790028813591,5883.028914153564
1.356,0.837569089481079,5884.85703442416
1.36,0.7775968439155264,5878.088037180604
1.364,0.6969189898438456,5884.1372261568085
1.368,0.5946355345788885,5883.603161772487
1.372,0.4795990755013322,5889.96006781459
1.376,0.36865089572020965,5884.340819448572
1.38,0.2820200924969965,5879.327116812372
1.384,0.2373548397468897,5878.347488453276
1.388,0.24426966378805426,5871.434294450005
1.392,0.3011281939417334,5872.578245907277
1.396,0.39506652827760613,5869.063534073951
1.4,0.505151428396141,5880.162894882149
1.404,0.6074955897721168,5870.395445096506
1.408,0.6806707252555411,5874.158798708228
1.412,0.7100039030420894,5868.477837331715
1.416,0.6899338361203058,5880.196919899508
1.42,0.6241611074098241,5872.207911545626
1.424,0.5237937920461591,5873.160378486099
1.428,0.4041477982369587,5856.996270338762
1.432,0.28120433217691326,5881.198583430073
1.436,0.16867555030509818,5865.009456148251
1.44,0.0761908866056266,5865.932288530745
1.444,0.008734003626238178,5861.621564119765
1.448,-0.032681326534711154,5861.309293463904
1.452,-0.04940937866702219,5869.992570551549
1.456,-0.04348497713582272,5863.073061852582
1.46,-0.016730835034231558,5874.795392525155
1.464,0.029190751087305955,5864.886927584803
1.468,0.09228962477717052,5875.869348519776
1.472,0.16971233034904376,5868.512035170694
1.476,0.25711536680091945,5864.11099874896
1.48,0.3479123655188209,5865.632844138598
1.484,0.4327906571579269,5869.42976072633
1.488,0.5001501063243884,5873.24695144497
1.492,0.5378227143880956,5858.736909278697
1.496,0.5357813788787458,5862.121176631129
1.5,0.4890237651060557,5858.151601318108
1.504,0.39963619370001824,5862.91077682118
1.508,0.277134984948502,5869.14783486841
1.512,0.13663973736944984,5856.805131156444
1.516,-0.004684071528308936,5861.574481252539
1.52,-0.1316491057721348,5867.918146516907
1.524,-0.2341397510611933,5851.170699196775
1.528,-0.3084215511285422,5860.766796834751
1.532,-0.35646269919115003,5857.940346854482
1.536,-0.3835327748496405,5860.924496894373
1.54,-0.3948484835844602,5863.196870005174
1.544,-0.3925877649432957,5863.5464362183175
1.548,-0.37466867215413563,5861.964006415001
1.552,-0.3359345022424779,5866.022201424416
1.556,-0.2712091217822754,5865.57930985372
1.56,-0.17886746695967132,5854.709563658244
1.564,-0.06351430742755292,5856.059552358094
1.568,0.0631319961628449,5860.915683746406
1.572,0.1834725148119867,5852.054548969107
1.576,0.27729858926773304,5853.933754912159
1.58,0.3266567755974791,5854.129144993636
1.584,0.32124823307008293,5862.452735570691
1.588,0.2625367550641991,5848.207615768386
1.592,0.1645103660773859,5865.373020999644
1.596,0.050020755182549594,5861.291547514085
1.6,-0.056392962620053035,5851.477394399401
1.604,-0.1364398980276739,5860.201601957434
1.608,-0.18349035068690997,5852.754321120036
1.612,-0.20333193605738825,5849.688947022806
1.616,-0.21024597903007777,5848.021072414895
1.62,-0.2202598017071842,5847.3226103596735
1.624,-0.24425200143011994,5857.17788712668
1.628,-0.2832851084702989,5854.649597380949
1.632,-0.32760342866706366,5857.530282675349
1.636,-0.35967727588798665,5852.852195527803
1.64,-0.3605843424568181,5854.171282310116
1.644,-0.31782004747794795,5856.46673788317
1.648,-0.23171017553761958,5856.45885002588
1.652,-0.1176831098644479,5845.14915694962
1.656,-0.003016850534582328,5846.437154357872
1.66,0.0812196995137857,5850.735099079827
1.664,0.11038636525683417,5848.268229554604
1.668,0.07506561828070908,5853.199247800922
1.672,-0.014700624637274952,5857.660406560701
1.676,-0.13120245305863878,5845.502460133971
1.68,-0.23629638929320781,5857.091522110498
1.684,-0.2919183403813499,5842.427049078812
1.688,-0.27091914766789993,5850.642241279807
1.692,-0.1651497997126802,5850.388474938332
1.696,0.011659581668691578,5846.690056092439
1.7,0.22715594251417903,5849.942014362508
1.704,0.43863033657452083,5847.232836839582
1.708,0.6035867001148297,5847.38054485921
1.712,0.6895314538728418,5854.79743312689
1.716,0.68060619486239,5854.47237897515
1.72,0.5798189272247102,5843.167830721495
1.724,0.40680906049098997,5849.649610025271
1.728,0.19224519614353694,5848.047678769023
1.732,-0.029191048372831728,5837.962314755447
1.736,-0.2252367021041845,5849.369671108073
1.74,-0.370683651470586,5857.66364328678
1.744,-0.450036444831968,5853.504818136456
1.748,-0.4586597051336681,5845.592365476548
1.752,-0.40289347552210725,5843.132928321366
1.756,-0.299063469078194,5850.146800339115
1.76,-0.17070954413491254,5848.010338917016
1.764,-0.04354012321919813,5838.92657525151
1.768,0.06106542997259291,5840.598296986469
1.772,0.13167511132573378,5851.821821175302
1.776,0.16902964566097917,5845.489629863349
1.78,0.18390017525505784,5846.596515288679
1.784,0.19167568715997368,5848.408839551186
1.788,0.20603498054346858,5850.307505709948
1.792,0.23411557081356466,5848.0551651019705
1.796,0.2747046157338281,5851.704434112775
1.8,0.31958789322017184,5847.822289736947
1.804,0.3569703038719713,5858.928748298439
1.808,0.37545115408910434,5854.823639472069
1.812,0.3674048996117606,5846.934871058959
