时间(s),电压(V),幅值(高频80K)
0.0,-0.20456999135332102,5893.235423554085
0.004,-0.21597087706032383,5899.053245036234
0.008,-0.23119349640144415,5913.728022696935
0.012,-0.2522995172618392,5902.572205524307
0.016,-0.2768354251403142,5893.249206063941
0.02,-0.2976942948030303,5899.52530545109
0.024,-0.30453549049665835,5904.907674615613
0.028,-0.2869771881986394,5891.822419155172
0.032,-0.23910164864806568,5896.937888625038
0.036,-0.1635466392238337,5902.168723403287
0.04,-0.07275707199725481,5898.701361874878
0.044,0.014056135327094182,5902.172463666172
0.048,0.07739178748351616,5899.997643083902
0.052,0.10452219627759984,5911.774393408149
0.056,0.09404548131265575,5897.531532484728
0.06,0.056186002880639976,5906.949012061368
0.064,0.008904847366923001,5897.075450430061
0.068,-0.028698609708164832,5896.309290121188
0.072,-0.04335080740467165,5902.093426652989
0.076,-0.03244132746578968,5898.355624527029
0.08,-0.004979679258706236,5899.673964720535
0.084,0.021671726187485554,5902.190702483031
0.088,0.02805858496501147,5910.938200446456
0.092,-0.0005019129932561961,5898.736282011529
0.096,-0.06902916796076636,5909.102397632007
0.1,-0.17154908969573265,5900.966134973493
0.104,-0.2933244031494434,5905.229413209413
0.108,-0.41539536330625043,5897.601450755641
0.112,-0.5197745005044225,5900.332532931912
0.116,-0.5937757682772283,5895.3120313868585
0.12,-0.6322667791301416,5897.896017082822
0.124,-0.6373353126147923,5904.72329752074
0.128,-0.6160894403895488,5901.074092597836
0.132,-0.5782015011740812,5904.9712252525605
0.136,-0.5342948069992418,5896.90859594133
0.14,-0.49476507051734486,5902.602991097427
0.144,-0.46788192723159994,5894.6865420015765
0.148,-0.45699194360662154,5898.095608038936
0.152,-0.4582789394922585,5905.146830437569
0.156,-0.4610260774321378,5898.245455978925
0.16,-0.45108102149705964,5901.366613866328
0.164,-0.41628745013466417,5901.86210667764
0.168,-0.3514943486524276,5907.03145899261
0.172,-0.2610149762310783,5900.494816852475
0.176,-0.15763090570683752,5891.289070622215
0.18,-0.05863574479438424,5897.546778777892
0.184,0.01953296017554227,5908.138047831136
0.188,0.06611256337521974,5903.550131441356
0.192,0.07869596960624567,5897.802614863345
0.196,0.06312759506880214,5897.500850250407
0.2,0.030975082542902283,5903.089671079217
0.204,-0.004375395359295991,5902.079860681287
0.208,-0.03168956819537635,5899.935916393084
0.212,-0.044755683168752725,5892.658511154792
0.216,-0.0434674605898054,5898.465767676891
0.22,-0.033069212559965575,5888.632656048453
0.224,-0.0220777057113114,5902.5675186435565
0.228,-0.019688594770832728,5902.991875223163
0.232,-0.03341669273191896,5899.18993179102
0.236,-0.06738845509437776,5896.852073251066
0.24,-0.12134594310442712,5889.160473036589
0.244,-0.19033135561686337,5897.042157589465
0.248,-0.26525169410051586,5902.423371244637
0.252,-0.3346725215540731,5897.558030039892
0.256,-0.38776460098129073,5903.247800884031
0.26,-0.4175167603380261,5901.088189730593
0.264,-0.4229866343240817,5901.300169262699
0.268,-0.4098419330519173,5898.234220965724
0.272,-0.3891167957705109,5900.4417968425005
0.276,-0.37441364625269474,5892.572903440498
0.28,-0.37796613812850577,5899.894111275519
0.284,-0.4064215190700805,5906.641432767609
0.288,-0.4576939290241383,5902.445334377936
0.292,-0.5202486740707712,5897.186584141515
0.296,-0.5754948548805345,5902.155217974076
0.3,-0.6028824347292908,5890.807035119229
0.304,-0.5862841122515486,5902.414453941734
0.308,-0.5196721036446719,5902.787593945199
0.312,-0.41017724003339984,5895.608452887204
0.316,-0.27729389080159755,5899.063331877906
0.32,-0.14808900826332913,5900.97821728766
0.324,-0.04961443377306705,5896.827834971487
0.328,-0.0009761107330383875,5911.560569838874
0.332,-0.008041819399140372,5894.522465032202
0.336,-0.06294637704902087,5906.18650819511
0.34,-0.14844560527652956,5900.352465014765
0.344,-0.24487814458686044,5903.794087221163
0.348,-0.33649774855359615,5912.122498762084
0.352,-0.41479959321130455,5906.45208254558
0.356,-0.47831014290138196,5900.476200333885
0.36,-0.5298169420136255,5901.64675904489
0.364,-0.5726321942341044,5899.462154847905
0.368,-0.6074448819617038,5887.263968835995
0.372,-0.6309016018041596,5892.904290375292
0.376,-0.6363646437941342,5888.400879141431
0.38,-0.6164845112070644,5902.053673510458
0.384,-0.566541158110627,5896.330207829848
0.388,-0.48715486984269296,5902.655745906326
0.392,-0.3851130501969595,5898.5959568054095
0.396,-0.27181095747557465,5908.828298706973
0.4,-0.15993555805402845,5907.635636226281
0.404,-0.05990306345785235,5893.476823024717
0.408,0.0223515165363246,5900.61553359624
0.412,0.08538694190488222,5905.303417526107
0.416,0.13045769360608286,5892.653890891294
0.42,0.1593018992176414,5894.99817156804
0.424,0.1728853108537247,5895.672835459825
0.428,0.17140918557933846,5898.17077361407
0.432,0.15488714839103568,5905.49124406364
0.436,0.12356577288381654,5891.653523267807
0.44,0.07811077629937384,5893.8630783692215
0.444,0.019921828080889343,5897.776063196496
0.448,-0.04824252638293588,5895.036138472487
0.452,-0.12167127700413707,5896.237276256379
0.456,-0.19376599449734422,5899.41582133778
0.46,-0.25708778686536055,5902.649088452581
0.464,-0.30502056411462053,5898.657501429348
0.468,-0.3332135618563523,5898.678617519261
0.472,-0.34011901255323157,5910.221424746704
0.476,-0.32655897130509665,5896.897709746639
0.48,-0.29488753107504034,5903.986572400528
0.484,-0.24858697230824967,5901.604920827023
0.488,-0.19278107966717092,5903.564638604973
0.492,-0.13521123172821264,5896.972445655333
0.496,-0.08641875254592404,5892.585119875139
0.5,-0.05810478458755648,5901.553543121082
0.504,-0.05984541999075685,5899.086240356358
0.508,-0.09549090270492595,5896.766693184673
0.512,-0.16087116151409175,5898.770091847711
0.516,-0.24390709372344685,5892.566926424798
0.52,-0.3272589418667534,5907.039265124216
0.524,-0.3926243627328034,5901.884710789826
0.528,-0.4252371694196613,5901.657081033904
0.532,-0.41728217652606336,5901.415396189382
0.536,-0.3695268651991599,5901.389939597852
0.54,-0.29101246430131794,5905.836635462926
0.544,-0.19701903308840196,5899.761584019643
0.548,-0.1058303457470871,5897.191056482799
0.552,-0.035093957758170036,5909.381376992023
0.556,0.0013551851380566786,5888.433447625993
0.56,-0.004405252002651793,5894.2325036084085
0.5640000000000001,-0.0535043241028969,5892.532433653176
0.5680000000000001,-0.14036954320860598,5896.935867160448
0.5720000000000001,-0.25346987548491706,5901.943117148576
0.5760000000000001,-0.3766369092159625,5895.030624745303
0.58,-0.4911545122215716,5898.103967716559
0.584,-0.5787130376572865,5902.49074955068
0.588,-0.624892565675149,5900.296290453146
0.592,-0.6223770774908753,5910.31286909302
0.596,-0.5727962325214554,5894.888667403425
0.6,-0.4861749000740031,5902.741021560926
0.604,-0.3777609553153323,5897.435280973142
0.608,-0.2632662110482201,5897.8933248786325
0.612,-0.15444650660713938,5902.18127470326
0.616,-0.05687314077054272,5904.592779791774
0.62,0.029222043209914814,5899.260657365744
0.624,0.10558516331068976,5903.74789986839
0.628,0.17190874671205053,5893.868050213367
0.632,0.2234136153167498,5897.310875070789
0.636,0.25151745268900383,5900.380083369056
0.64,0.24733138351113163,5892.657347504471
0.644,0.20614274126521057,5895.093468841607
0.648,0.13066806755202529,5895.742992238638
0.652,0.031745044820895796,5899.183622725513
0.656,-0.07362847265018028,5897.191368852802
0.66,-0.166178512946591,5906.796269640393
0.664,-0.2290431431174278,5908.124599618598
0.668,-0.2519250945470793,5905.123271537587
0.672,-0.23339604451467075,5894.654262066283
0.676,-0.18061679457596422,5902.6056645227145
0.68,-0.10684638672649893,5902.075065702117
0.684,-0.02813378543433754,5889.2211137878
0.6880000000000001,0.039330811558699046,5898.142803061853
0.6920000000000001,0.08075998870618609,5903.374209469787
0.6960000000000001,0.08399486285370032,5904.199476362044
0.7000000000000001,0.04144008425664514,5899.21645272713
0.704,-0.04726100956361464,5899.574469812978
0.708,-0.17307872132115157,5899.544226619187
0.712,-0.31764816210186825,5897.557561087803
0.716,-0.4563344756972401,5903.059716527098
0.72,-0.5636905802547116,5895.641312199598
0.724,-0.6196503893152071,5905.107875062715
0.728,-0.6146016232996842,5912.5220484740985
0.732,-0.5518808604355911,5905.2243126456615
0.736,-0.4468895582272857,5897.545149708362
0.74,-0.32290537276944187,5893.524271166367
0.744,-0.20469794501661345,5905.2434831076025
0.748,-0.11182952418702778,5901.0946200623575
0.752,-0.053640370994665364,5888.815811786722
0.756,-0.02743808586875182,5902.741340127941
0.76,-0.020488731582549137,5896.913763890735
0.764,-0.015140382682647358,5905.847071464857
0.768,0.004750658386959554,5901.503274296993
0.772,0.048289807194373834,5910.616857810605
0.776,0.11455598240515158,5906.023552252097
0.78,0.19284535026243077,5901.534858231078
0.784,0.2659018065934093,5901.262232860009
0.788,0.31500018492281573,5901.55971513715
0.792,0.32509867488074695,5895.252712169847
0.796,0.2884011734659235,5892.914062600121
0.8,0.2056541278004777,5902.792990261171
0.804,0.0856110103544175,5901.689374480094
0.808,-0.056462778092293,5902.403638775072
0.812,-0.20073192707914972,5899.669756795299
0.8160000000000001,-0.3253135388787313,5898.449315590495
0.8200000000000001,-0.4097215444686407,5901.20733749994
0.8240000000000001,-0.4390548001102087,5900.195305102302
0.8280000000000001,-0.4079606494980903,5891.586415067697
0.8320000000000001,-0.3230194081723004,5900.886242247691
0.836,-0.20242908262088707,5895.631991410512
0.84,-0.07254879004465713,5902.866381470181
0.844,0.038194150987681086,5889.018408282165
0.848,0.10646691579641891,5895.356047400992
0.852,0.11990710948237994,5908.414815621154
0.856,0.07949649096394258,5909.462159644145
0.86,-0.0023588524629746736,5897.760706027991
0.864,-0.10679513949673657,5908.517539691951
0.868,-0.2140012422816396,5902.72044323746
0.872,-0.3071343745285571,5894.127126997568
0.876,-0.3739911477000887,5899.613649973953
0.88,-0.40715284424388154,5898.583910205359
0.884,-0.4037165547327771,5902.169394119561
0.888,-0.3652123267946451,5897.361889552468
0.892,-0.29761507961438644,5896.012748263771
0.896,-0.21108727920896023,5900.952705388013
0.9,-0.11912981164139669,5895.750475754054
0.904,-0.03680325238396595,5911.56395762786
0.908,0.022190408418647573,5905.407862696089
0.912,0.049056950105507306,5903.326753411157
0.916,0.04264563373658627,5906.946684218989
0.92,0.009810629858399113,5903.238907759096
0.924,-0.03709200741271061,5901.79672298053
0.928,-0.0846055341369577,5900.038239796958
0.932,-0.12269386449220067,5906.666948999764
0.936,-0.14773353128271463,5897.491173977728
0.94,-0.16306702120479885,5907.078519992328
0.944,-0.17717988660425135,5897.473780885394
0.948,-0.20040827687645366,5905.705440041716
0.952,-0.24140671688452217,5899.023639270443
0.956,-0.30433962612946847,5895.214630088909
0.96,-0.38731800572413616,5897.302025214402
0.964,-0.48236542424320566,5896.627806774469
0.968,-0.5770414322465022,5901.483533671377
0.972,-0.6574356638875578,5894.760613882845
0.976,-0.7116211057679285,5905.742751308797
0.98,-0.7323187776433462,5902.990454131302
0.984,-0.7179092830715572,5905.4119968869945
0.988,-0.6718721093267025,5908.519215872296
0.992,-0.601481823980741,5898.698448541061
0.996,-0.5165046224980971,5899.96164818879
1.0,-0.4279770378068719,5902.189992305355
1.004,-0.3467305428960155,5899.860616868428
1.008,-0.28149663862137936,5891.388977860238
1.012,-0.23688494491079148,5891.213699188321
1.016,-0.211946983898302,5902.872214607586
1.02,-0.2001769052165069,5901.067937560312
1.024,-0.19132642482429302,5898.638539158515
1.028,-0.17440286009528566,5902.743293062389
1.032,-0.1404944345789839,5899.925237581085
1.036,-0.08436453297996754,5902.781463172534
1.04,-0.004793779195845344,5910.414028606077
1.044,0.09559547692663986,5909.875007309615
1.048,0.21045870316294066,5891.791522446391
1.052,0.32993110459301284,5892.1562837551855
1.056,0.4414607517811547,5900.144482721517
1.06,0.5315472000782168,5899.061685264141
1.064,0.588074493045009,5900.134552578529
1.068,0.6025857162313961,5901.684688990129
1.072,0.5718717140352195,5899.846732034597
1.076,0.4984335812175313,5900.5229836372655
1.08,0.38967633000550417,5897.148458194212
1.084,0.25616312876381736,5904.293186512984
1.088,0.10965490810469865,5898.2942338151
1.092,-0.03839841978909689,5896.976136891705
1.096,-0.17768280970580055,5906.377342072101
1.1,-0.29933954728273454,5896.870495153719
1.104,-0.3961771539064949,5897.116425904786
1.108,-0.46320409063489215,5903.127524682838
1.112,-0.4986341209631492,5899.643802097782
1.116,-0.5049444070341348,5905.60626083519
1.12,-0.48913834483132507,5898.661122063388
1.124,-0.461568318346773,5900.078703255184
1.128,-0.4334331735875892,5906.195964082898
1.132,-0.41378213345707093,5896.575968443576
1.136,-0.4070588349953094,5899.057626487845
1.14,-0.4119575670210796,5906.316638290743
1.144,-0.42194035674479463,5895.037408289767
1.148,-0.42730521268546556,5890.351975044085
1.152,-0.41817317500107015,5897.543084967622
1.156,-0.38735938533052094,5897.410718646607
1.16,-0.33222523841876844,5897.972920340956
1.164,-0.25528963417389133,5892.534182311781
1.168,-0.16391462555731906,5888.742366276295
1.172,-0.0692197263083066,5901.427155313786
1.176,0.0160043818298561,5901.719959285705
1.18,0.08033455615650265,5903.424096707009
1.184,0.11676936328816832,5896.644449603825
1.188,0.12434298335714415,5894.613974277867
1.192,0.10735958931105571,5893.924897122245
1.196,0.07255072331348073,5902.972302977273
1.2,0.025581766927693327,5894.10072651856
1.204,-0.03136894341990636,5899.406652461953
1.208,-0.09989909256807332,5902.187931015859
1.212,-0.18359078989059924,5899.092282302095
1.216,-0.2850540985751992,5897.43796452256
1.22,-0.4030426293285611,5906.812547738024
1.224,-0.5307543666208144,5907.661961750667
1.228,-0.656012249316167,5905.07050362461
1.232,-0.7633764938871421,5901.6310891366375
1.236,-0.8374931678437134,5903.4234344893885
1.24,-0.8664520560124852,5898.424819252505
1.244,-0.8440055734683924,5906.428744345614
1.248,-0.7701998695782387,5900.386531785856
1.252,-0.6507420051201551,5894.575151805381
1.256,-0.4957300343837858,5902.080348639885
1.26,-0.3182491444484584,5899.813702979311
1.264,-0.13315283758993926,5897.5599016366605
1.268,0.043798206864466206,5904.984113127747
1.272,0.19653309146373038,5906.339902677265
1.276,0.30947766942483546,5905.63798904196
1.28,0.36923494950676694,5894.442085767767
1.284,0.36745883454624273,5900.982005385699
1.288,0.30434347853378146,5894.133949851416
1.292,0.1911602263150435,5905.220600354446
1.296,0.049965266514980754,5900.592085679655
1.3,-0.09047713481093647,5908.462148839425
1.304,-0.20165346271298273,5903.172683158337
1.308,-0.2626041462743892,5897.773188636565
1.312,-0.2647716731275431,5902.110205461568
1.316,-0.21287330119418568,5890.84349935978
1.32,-0.12217835197635975,5891.2905168042935
1.324,-0.013867335497000742,5887.730514526191
1.328,0.08974393864593962,5893.977423993546
1.332,0.16902617283122198,5904.474736718084
1.336,0.20951407839823077,5909.588939809519
1.34,0.2030315436927289,5910.030221661847
1.344,0.14775066520092903,5901.474037934834
1.348,0.04772819403008203,5901.773979660307
1.352,-0.08765056565670067,5893.93267653456
1.356,-0.24438182012397272,5901.840412026712
1.36,-0.4051108084787067,5900.361082154392
1.364,-0.551246545523144,5908.976598032207
1.368,-0.6658247817888218,5899.683291865522
1.372,-0.7365449262230632,5900.823268710397
1.376,-0.7580100929299122,5904.531641684257
1.38,-0.7322418856556294,5900.582335679067
1.384,-0.667174967214867,5900.489098044943
1.388,-0.5736587057903826,5902.990154109822
1.392,-0.4620338257728395,5904.175642491907
1.396,-0.3395204559670979,5894.662187104766
1.4,-0.20944750768549233,5906.885006527458
1.404,-0.07267317969602387,5892.281598289084
1.408,0.06942707555591612,5899.3791068742885
1.412,0.2117807362978374,5899.9374588791125
1.416,0.34379983020025884,5896.741984588726
1.42,0.4500556146488962,5895.668462963031
1.424,0.5135996278883779,5903.511449341278
1.428,0.520785404117344,5899.369208363382
1.432,0.46555990056112523,5895.421561744163
1.436,0.35145345912531795,5906.008140951111
1.44,0.19074458745888997,5902.520913200174
1.444,0.001574121374653769,5896.02975423358
1.448,-0.19560381156162795,5906.701051303228
1.452,-0.38099356434560105,5896.686885630473
1.456,-0.5372819050845503,5901.588024415958
1.46,-0.6505924504474255,5900.400810055858
1.464,-0.7113134827408318,5895.373096470987
1.468,-0.7152063999569394,5902.91448759922
1.472,-0.6644368018125183,5905.671014064156
1.476,-0.5678378176272797,5904.563090230487
1.48,-0.4400629773252283,5901.686717874598
1.484,-0.29969262216274634,5902.578754588617
1.488,-0.16642169996729944,5904.030777820347
1.492,-0.057625373009902614,5898.1897527255205
1.496,0.014828229663461501,5898.4161534663335
1.5,0.04636145981122144,5907.918738882701
1.504,0.03955215589593406,5899.1027282762725
1.508,0.002540567869493442,5905.780269171266
1.512,-0.05326760105476659,5907.166434051995
1.516,-0.11579323149160489,5906.984299837819
1.52,-0.17492221405340927,5902.554337398303
1.524,-0.22463954267147554,5911.514848085715
1.528,-0.263858566708355,5898.502554215401
1.532,-0.2954285010745981,5902.084961841712
1.536,-0.32357277651454713,5888.813914774536
1.54,-0.3508477317375297,5901.491157492202
1.544,-0.37611370300903724,5901.789864226035
1.548,-0.3946358393031584,5907.100193014109
1.552,-0.40037434727518656,5898.491375015947
1.556,-0.38937266484389566,5895.421217381804
1.56,-0.3625656811569103,5905.938095743473
1.564,-0.32656998877146337,5906.271495120854
1.568,-0.29192771943647067,5903.242706697426
1.572,-0.26940556917819874,5894.736412328109
1.576,-0.2656902834423421,5904.668893238348
1.58,-0.2798968024855134,5900.3522831982245
1.584,-0.30208313524425634,5908.418475549344
1.588,-0.3147288525328286,5893.356663734959
1.592,-0.2974655637834032,5905.2380187597655
1.596,-0.23398920767301132,5898.722681757721
1.6,-0.1187815819921655,5899.57910354752
1.604,0.03899224931841542,5892.3719523478885
1.608,0.21609034986770922,5903.898358661017
1.612,0.38036986315898036,5897.001299112557
1.616,0.4990344386026188,5899.981202902006
1.62,0.5474804198723838,5896.936068947351
1.624,0.5161015879827183,5902.678539471018
1.628,0.41299488566600917,5910.931578876167
1.632,0.2616790586794361,5902.657775898702
1.636,0.09443550504285406,5903.987114141977
1.64,-0.05669125192306678,5902.5493796499495
1.644,-0.16829922640129874,5895.5724734797095
1.648,-0.23062246842037645,5900.054155236982
1.652,-0.2476903677381512,5907.417755390175
1.656,-0.23335968641462232,5891.3858244055455
1.66,-0.20546986897782488,5898.314795807942
1.664,-0.1804889737781938,5905.385598666954
1.668,-0.1700775688259564,5902.065838706116
1.672,-0.1797916010758326,5898.759569330624
1.676,-0.20922018033744066,5898.965252230693
1.68,-0.25267584655539227,5894.499765505024
1.684,-0.30020669622251334,5896.249502897319
1.688,-0.339388403073667,5906.920081011447
1.692,-0.35815657278906965,5900.099181948197
1.696,-0.3480486096410229,5902.753449011265
1.7,-0.30671539013700533,5900.8354442806
1.704,-0.23895127047156597,5898.787454994454
1.708,-0.15620316031941922,5902.601547809623
1.712,-0.07483567959433528,5902.716992503507
1.716,-0.013330136925814026,5902.228973836619
1.72,0.011444401443161464,5902.981090742418
1.724,-0.01158792803816471,5903.389586090741
1.728,-0.08409644431410726,5903.718618456478
1.732,-0.19658276645202605,5902.18769780595
1.736,-0.3294001282685586,5901.301827918209
1.74,-0.45661483322534524,5908.2883609695855
1.744,-0.5518210564063655,5897.866717942526
1.748,-0.5943803319447232,5901.656718128063
1.752,-0.5744555614749396,5898.797049325067
1.756,-0.49562797287225313,5898.563725946649
1.76,-0.3744635295555501,5899.316300923032
1.764,-0.23685731880003794,5896.099587674396
1.768,-0.11161945856987962,5895.698044446846
1.772,-0.022825940053145522,5892.182010638982
1.776,0.016646527040735118,5904.448471356275
1.78,0.008131337417376573,5897.519198759936
1.784,-0.03425751571045868,5894.500131875256
1.788,-0.08880638215777313,5890.054627923777
