时间(s),电压(V),幅值(高频80K)
0.0,-0.35653368163374827,5890.988765426503
0.004,-0.4159687202837594,5909.253888125976
0.008,-0.45874367174941044,5902.471967795264
0.012,-0.47031218462886165,5889.348076547366
0.016,-0.44162772924038113,5893.432847739824
0.02,-0.3712586950214906,5900.380040731694
0.024,-0.265922195005726,5894.74380601499
0.028,-0.13912553190525043,5897.286500001918
0.032,-0.008489338914425068,5900.679859230549
0.036,0.10741724101407508,5908.121122902029
0.04,0.19222418667894214,5901.236385865796
0.044,0.23465282419570477,5898.176956592654
0.048,0.23070143558034542,5906.900280976154
0.052,0.184285429721078,5897.987993740426
0.056,0.1056962649440547,5899.127715443071
0.06,0.008295941685927425,5898.769051375023
0.064,-0.09505031508304852,5899.123824578962
0.068,-0.19425515593276588,5902.072109392718
0.072,-0.2824855836988371,5905.359127656881
0.076,-0.35539754830868175,5903.744397260837
0.08,-0.40999580219924475,5894.9063829386505
0.084,-0.4437119597787219,5907.552197593481
0.088,-0.45405852997058127,5896.530263752408
0.092,-0.43908167434569445,5898.314667163568
0.096,-0.39848624397207505,5903.196652912498
0.1,-0.33487020435639553,5902.63285083937
0.104,-0.2544609982558717,5891.029426602943
0.108,-0.1671113400081559,5902.769942186679
0.112,-0.08555130934429757,5899.274806385395
0.116,-0.02376866472626834,5895.927818849283
0.12,0.005637538343900362,5906.136231108468
0.124,-0.005206270327627671,5899.093572156323
0.128,-0.05645090362915866,5908.781073021024
0.132,-0.13914164298785894,5893.150848873364
0.136,-0.23627932525641143,5894.398444599003
0.14,-0.32630125611148386,5897.916801058644
0.144,-0.3881626160628996,5905.038931855364
0.148,-0.4067438768352128,5907.537746063218
0.152,-0.3771432072001306,5901.102032704051
0.156,-0.30645519065385296,5895.579820927614
0.16,-0.21211824414721023,5890.480438602576
0.164,-0.11703977764135313,5904.8546694318375
0.168,-0.04308619699079371,5899.846251240428
0.172,-0.005289791552619554,5905.587028213479
0.176,-0.008715956150735756,5898.889643881463
0.18,-0.048624628904574196,5901.094090170369
0.184,-0.11319844962170322,5893.258815522993
0.188,-0.1874322973809994,5902.471075636368
0.192,-0.25694878956402917,5902.920689160217
0.196,-0.31107843927292184,5892.55179752816
0.2,-0.3448538598906415,5895.134448535745
0.204,-0.3594718687517942,5896.8042174699085
0.208,-0.36090058170313527,5907.426783332617
0.212,-0.35709128674184126,5897.32858776999
0.216,-0.3550818990434087,5904.342219225768
0.22,-0.3592067976265365,5898.566329321327
0.224,-0.3707037102938452,5901.328182343455
0.228,-0.3881758220576686,5903.534153380903
0.232,-0.40822652276675336,5900.648644673223
0.236,-0.425908825769383,5888.913957862002
0.24,-0.4350365829214476,5910.209355253219
0.244,-0.4287625387497345,5897.641929589944
0.248,-0.4009404832371262,5898.671849049357
0.252,-0.34834646276571285,5895.301662474556
0.256,-0.2729476453363216,5901.584261021069
0.26,-0.18277498706909512,5893.792535764661
0.264,-0.09031492368095685,5901.882227583015
0.268,-0.008722625083658259,5898.216869548934
0.272,0.05236580711028353,5892.887851622202
0.276,0.08930458507131891,5904.599263938803
0.28,0.10419812288304708,5909.41130813741
0.284,0.10265014407456362,5898.103558491614
0.288,0.09116807259328173,5906.592707663062
0.292,0.07551017330395315,5903.2849256369545
0.296,0.06014682886342048,5898.791322099262
0.3,0.04828784826842268,5903.899611698384
0.304,0.041980715548355876,5902.943391187219
0.308,0.04210661922114176,5901.95875670972
0.312,0.04829808407038233,5897.194007280354
0.316,0.058903413012275904,5894.130278709441
0.32,0.07112983619085964,5908.577083732218
0.324,0.08139905998066135,5904.682620234315
0.328,0.08589436899497464,5894.091212906088
0.332,0.08128007340832742,5905.016241827932
0.336,0.06549819031235449,5900.080955591066
0.34,0.03841833581499715,5899.22709674359
0.344,0.002021817843992948,5903.499091571467
0.348,-0.04017792894057865,5902.142833299195
0.352,-0.08445189508302928,5905.48692853255
0.356,-0.1283223906278083,5897.025281028598
0.36,-0.17133804649889,5894.661404383084
0.364,-0.21470399348279007,5894.1010559669885
0.368,-0.259999622055565,5903.116801214933
0.372,-0.30766366556651775,5897.608420575067
0.376,-0.3559540010639971,5904.803629337917
0.38,-0.40076947703508903,5900.970302651859
0.384,-0.4362326254395905,5897.06765337343
0.388,-0.4556238490590648,5895.741909818676
0.392,-0.45239914838461714,5903.711264730181
0.396,-0.42135806104529194,5891.659483782032
0.4,-0.36004113273616123,5900.361294055466
0.404,-0.2701267718872822,5900.986595677612
0.408,-0.1583729192879451,5899.792626388442
0.412,-0.03659379776048732,5895.987605017793
0.416,0.07979303207672059,5904.426507662677
0.42,0.17471396780181134,5906.68486598083
0.424,0.23516748083207695,5897.908718373827
0.428,0.2544886086527158,5904.569140811219
0.432,0.2340543067778171,5902.548330621998
0.436,0.1828709917638398,5892.626951779876
0.44,0.11507001552380608,5902.668263679112
0.444,0.04597482604873459,5894.377544674495
0.448,-0.012023453783479805,5900.027977702645
0.452,-0.052438143711114375,5894.907232107016
0.456,-0.07570540477642952,5897.427236143411
0.46,-0.08830950948036415,5899.655540001887
0.464,-0.10066955774455344,5892.955582690421
0.468,-0.12440698200334642,5895.788134154729
0.472,-0.16920925675705276,5914.003997990681
0.476,-0.2394491701165875,5893.816879158328
0.48,-0.33132468435654955,5894.869546194935
0.484,-0.43193428878654266,5891.623043152211
0.488,-0.5214672722649746,5895.493583616052
0.492,-0.5783677439015037,5899.684469540418
0.496,-0.5857567858815972,5894.299372368005
0.5,-0.5366769070283148,5905.613720462319
0.504,-0.4362462260213942,5889.267146907956
0.508,-0.3001168644707493,5887.026013935655
0.512,-0.15000005049292592,5903.191218800049
0.516,-0.007908427599515645,5899.134378328907
0.52,0.10899469444114483,5898.579313274752
0.524,0.19132105763878382,5892.045565529562
0.528,0.23726775607757308,5891.531464668172
0.532,0.24968011961401917,5903.338057794477
0.536,0.23214034269686612,5900.606623904995
0.54,0.1864061860853184,5892.679823670956
0.544,0.11257371330793657,5896.080600658706
0.548,0.011513007716289294,5903.281483085805
0.552,-0.11220098317637052,5898.23576665056
0.556,-0.2486827174184523,5891.784963933599
0.56,-0.3833550832579117,5895.209698650966
0.5640000000000001,-0.49966590844045067,5898.463960776559
0.5680000000000001,-0.5831624803293635,5901.969158568832
0.5720000000000001,-0.6258131540677968,5896.486077001732
0.5760000000000001,-0.6290392363532015,5901.005702950148
0.58,-0.6038040757603997,5902.299878287223
0.584,-0.5670122210225425,5899.728098520594
0.588,-0.5353167907016185,5898.889638292298
0.592,-0.5190522311657477,5898.564767691601
0.596,-0.5191944506926076,5902.025392294955
0.6,-0.5287582161106993,5910.226369988765
0.604,-0.537684611729519,5900.642530376392
0.608,-0.5384501818080217,5896.207431766581
0.612,-0.5295013269325906,5913.493573415613
0.616,-0.5151295051004312,5903.958845684854
0.62,-0.5023307631043861,5893.850439158569
0.624,-0.4964007014683499,5896.751185177738
0.628,-0.49723906905567994,5900.243264099786
0.632,-0.4978119739441675,5905.545320810135
0.636,-0.48532742305493526,5898.830956735995
0.64,-0.4448539209244562,5904.795700133046
0.644,-0.3645000217337807,5898.694112592308
0.648,-0.24071855840711642,5902.557878875475
0.652,-0.08184057711481399,5894.950874728668
0.656,0.09194817312135614,5899.340097235124
0.66,0.25284505588026723,5913.499335467914
0.664,0.37270283449184544,5890.164429929701
0.668,0.4307453425568382,5900.854329440981
0.672,0.41905033415007564,5907.546761105496
0.676,0.34423857041887185,5899.446146446329
0.68,0.22534099389863116,5905.583703683091
0.684,0.08895486250827463,5894.476974865369
0.6880000000000001,-0.03689874953301951,5890.17725427507
0.6920000000000001,-0.12900158975108691,5894.330010916076
0.6960000000000001,-0.17398769053495933,5902.327106048894
0.7000000000000001,-0.17075335097569302,5902.63919879534
0.704,-0.1293195214069786,5898.146593078436
0.708,-0.06668403007221643,5899.079873880103
0.712,-0.0014648806003881986,5902.899064594238
0.716,0.050704433788616624,5907.468451179962
0.72,0.07991845475658098,5906.373814121495
0.724,0.08290133482743917,5901.114581603711
0.728,0.06272234730942448,5901.477522378351
0.732,0.027833194405369376,5905.655905411697
0.736,-0.009606053678924927,5897.855037379836
0.74,-0.03641970732254173,5905.140213729151
0.744,-0.04209283003037392,5898.525549400316
0.748,-0.02261414427216486,5900.635674728038
0.752,0.016989447432352804,5905.807850826931
0.756,0.06289905430025183,5900.084953961124
0.76,0.09616401167391171,5897.959797224352
0.764,0.09895055723839315,5896.777234191974
0.768,0.06114661772257487,5907.018885498432
0.772,-0.015334413902940824,5903.2860477658905
0.776,-0.11630001582423005,5904.732849792499
0.78,-0.2192051056903731,5903.843975878134
0.784,-0.2998871520500579,5894.277688993318
0.788,-0.3397551440563476,5901.199011666288
0.792,-0.3309037686932987,5890.545137443052
0.796,-0.27752845971408235,5902.559420219655
0.8,-0.1936178079677796,5899.308335723589
0.804,-0.09821856624570384,5893.467688420017
0.808,-0.010073515515242206,5905.252558824663
0.812,0.05666026225716071,5898.561841772252
0.8160000000000001,0.09443627112739225,5902.066871860208
0.8200000000000001,0.10196558675903306,5910.927069436941
0.8240000000000001,0.08255054040162531,5899.6768399905895
0.8280000000000001,0.04259242556960469,5898.101439636629
0.8320000000000001,-0.008971892305087137,5899.191839149726
0.836,-0.06077908283361066,5903.661494384229
0.84,-0.09982966432444074,5899.942096297534
0.844,-0.11372604923169495,5897.1443973952655
0.848,-0.09414908738679548,5902.751766994386
0.852,-0.04046859290417806,5900.2005116251785
0.856,0.038077162488351815,5907.859561843844
0.86,0.12304912587828011,5908.5695989073865
0.864,0.19079367140819564,5898.771832336687
0.868,0.21876045178039488,5902.296957121513
0.872,0.19207400774263847,5893.64128659101
0.876,0.10815852938671555,5894.053912674652
0.88,-0.022092358163915225,5897.90432556809
0.884,-0.17697337025492288,5900.913290500128
0.888,-0.3295815523247764,5897.0633640150045
0.892,-0.4546264709093032,5906.707034556931
0.896,-0.5344504925505663,5903.148188204949
0.9,-0.5626201608305658,5898.5738019136
0.904,-0.5442007640546708,5898.182414650896
0.908,-0.49286567621363686,5906.068654919448
0.912,-0.4260224523779839,5907.751395394803
0.916,-0.3597094302371365,5902.792418098683
0.92,-0.3048719605622628,5896.0709883177815
0.924,-0.26590707227062493,5902.4189210131935
0.928,-0.24147520176380757,5894.893130936128
0.932,-0.2268829294620305,5902.214687537109
0.936,-0.21697996022119376,5900.54616630281
0.94,-0.208457415927035,5894.39723001295
0.944,-0.2006857970530361,5902.631113461201
0.948,-0.19486416508256707,5897.894283442659
0.952,-0.19211715206904634,5896.211892728276
0.956,-0.19174569996902646,5894.948916916031
0.96,-0.19067747982320146,5901.811941169794
0.964,-0.18443240236649736,5894.268560748108
0.968,-0.16914731974819738,5893.86432794316
0.972,-0.14378014923157448,5897.999273578101
0.976,-0.11160723841462386,5904.40357086091
0.98,-0.08035784163000709,5900.307648500018
0.984,-0.06060722339561634,5891.813827864405
0.988,-0.062486483170033684,5892.3938012566805
0.992,-0.09156532284369788,5885.837354670658
0.996,-0.14560119850804887,5899.008490810714
1.0,-0.21390782967917724,5890.5056800695165
1.004,-0.2799638101107685,5901.740955101794
1.008,-0.3262079167256012,5896.642756569333
1.012,-0.33898689704176505,5896.7488811726025
1.016,-0.31196640528964736,5902.768110782252
1.02,-0.2474446832118527,5905.97931378037
1.024,-0.1558673891874257,5900.301020355288
1.028,-0.053925809421782184,5902.569827102066
1.032,0.038661940696733156,5904.465086808538
1.036,0.10349474132046697,5894.541682622472
1.04,0.1281099085880479,5901.9713904121545
1.044,0.1094052048520683,5903.888377490278
1.048,0.05448951662559423,5902.178816866554
1.052,-0.02145864615291702,5897.108262888231
1.056,-0.09951559387736582,5897.05758406972
1.06,-0.1619719803110244,5895.01493987017
1.064,-0.19649379574839806,5910.8198095957305
1.068,-0.19867624897344244,5905.777453134499
1.072,-0.1726822121591537,5895.033794964528
1.076,-0.12987857772035286,5903.800622035964
1.08,-0.08569627080706056,5896.700783635463
1.084,-0.055453327999437634,5907.333771165219
1.088,-0.05022451616590149,5900.94635083941
1.092,-0.073802468821237,5898.321149363961
1.096,-0.12153731510943178,5903.994630836352
1.1,-0.18147463899802402,5897.480696844008
1.104,-0.2376627393384323,5900.146169768728
1.108,-0.27478672333753884,5899.587046320951
1.112,-0.2826902760108855,5894.046300659423
1.116,-0.2592786762124437,5905.415772740212
1.12,-0.21088058485603584,5902.343262157085
1.124,-0.15004197323954443,5898.021930976342
1.128,-0.09156772831661247,5887.918690773592
1.132,-0.04822750902999749,5908.350306828256
1.136,-0.027604214216559776,5896.433081912248
1.14,-0.030920908423116143,5899.586024597005
1.144,-0.053786795358894586,5901.456492210923
1.148,-0.08824102358190992,5896.901429075738
1.152,-0.12529161553351953,5905.17540747737
1.156,-0.15716150948623825,5900.602611517951
1.16,-0.17868173514517127,5905.7510750593065
1.164,-0.18772040918925662,5896.079162547171
1.168,-0.1850060591513345,5897.418143380823
1.172,-0.1738793420343258,5892.651089864413
1.176,-0.16015182351149349,5899.410262266631
1.18,-0.1516034563234615,5895.927336096557
1.184,-0.15648431917774436,5894.14255241614
1.188,-0.1811282349832199,5888.5529454061525
1.192,-0.227767027891007,5895.997639813612
1.196,-0.29377653078021293,5907.096047816092
1.2,-0.37269291439494845,5901.513376095477
1.204,-0.4562421772513376,5898.28575455896
1.208,-0.5361985627096676,5899.541821721566
1.212,-0.6053124852430384,5898.292471958277
1.216,-0.6573796503854252,5896.6252579544525
1.22,-0.6870755703944451,5894.238041226894
1.224,-0.6900660924887827,5892.055316309042
1.228,-0.6634171163588731,5907.528231332911
1.232,-0.6060334216378835,5902.966832175728
1.236,-0.5189096392886268,5902.430503733609
1.24,-0.40518779803566723,5899.730016012703
1.244,-0.2702489771563113,5906.72586934548
1.248,-0.12213802702109992,5892.687887365337
1.252,0.02771848908509321,5900.420651831233
1.256,0.16417507067265877,5906.444747046122
1.26,0.26943237617419186,5899.143237361197
1.264,0.3260948437906369,5897.341574122205
1.268,0.3217448538072102,5903.2417695739605
1.272,0.2535134535760951,5902.867685897248
1.276,0.13068644845157865,5897.487013296755
1.28,-0.026223360929580542,5892.982181434187
1.284,-0.19027451417129812,5891.36209021254
1.288,-0.33534833174812656,5900.120075611887
1.292,-0.44305349482065437,5894.810824771816
1.296,-0.5064890642968078,5901.592480471181
1.3,-0.529592570645593,5897.941793115303
1.304,-0.5228569916792531,5897.836106086925
1.308,-0.49762064133794814,5893.895961284693
1.312,-0.46138005045511776,5899.516307469303
1.316,-0.4157917802524975,5903.400696521694
1.32,-0.3577413259052493,5898.283317972418
1.324,-0.2826500566533511,5903.311773468548
1.328,-0.1884242352887985,5894.000580426257
1.332,-0.07826977696361223,5905.707102464541
1.336,0.03885971344418513,5897.443775450901
1.34,0.15020730111285244,5899.526130372518
1.344,0.2423823135029671,5901.591542298315
1.348,0.3042852883517315,5896.663182624553
1.352,0.3289552656870583,5906.59501107013
1.356,0.314272803959589,5903.7535721285385
1.36,0.2627414836788827,5911.503618716467
1.364,0.1805390636444231,5897.891099932705
1.368,0.07608074790697472,5906.025199457256
1.372,-0.04147965586445726,5892.970989855116
1.376,-0.163325005515989,5910.625881963269
1.38,-0.2813518904629436,5908.809087433147
1.384,-0.3879127268249126,5897.22134327904
1.388,-0.4752370060625037,5889.542592373521
1.392,-0.5350118050299634,5900.807843723946
1.396,-0.5587724415683687,5902.075190056688
1.4,-0.5397078371461522,5899.066490499178
1.404,-0.47581809162405325,5903.901202199487
1.408,-0.3732390880812321,5901.437137595866
1.412,-0.24786885151037832,5901.977511299049
1.416,-0.12385558161218388,5912.4260057752335
1.42,-0.02874575584352936,5891.095894649508
1.424,0.01358424516252124,5891.714971421833
1.428,-0.009867184022991951,5905.708237168643
1.432,-0.09633271534773455,5897.3885981803305
1.436,-0.22668240488978278,5900.5714199672575
1.44,-0.369739956478917,5905.697371941388
1.444,-0.49025549531337714,5900.637264171361
1.448,-0.5579442634514576,5903.177241730576
1.452,-0.5549258211591019,5908.436970655964
1.456,-0.4797580806127771,5907.824789390728
1.46,-0.3472205429787369,5899.277158732572
1.464,-0.1838652695404706,5908.811223749268
1.468,-0.020467560187718847,5903.408966711397
1.472,0.11632170318915178,5902.285478251198
1.476,0.21045724234653018,5897.933793937496
1.48,0.259306977584477,5903.132450748794
1.484,0.27240083531452985,5897.516890917228
1.488,0.26682634892429763,5904.905330616109
1.492,0.26060962800210397,5892.812687772683
1.496,0.26591913710567083,5907.643717927582
1.5,0.2841632682582498,5891.458843810216
1.504,0.3046366713893626,5900.564151615523
1.508,0.3074310249040223,5890.051369206843
1.512,0.27032675226107983,5900.7970079194665
1.516,0.17852961945404017,5904.124650763845
1.52,0.035322445529725015,5897.239975937641
1.524,-0.12916653307382855,5904.995624435411
1.528,-0.2546370548553046,5901.5892071306935
1.532,-0.25612742134741057,5892.407526910676
1.536,-0.039796202680159064,5904.371955863122
1.54,0.4731502295462703,5904.932332368085
1.544,1.3203016949007802,5897.856840853459
1.548,2.4780587258689475,5898.20848729132
1.552,3.8561223773588504,5891.086032798136
1.556,5.3110750021111315,5900.506414002432
1.56,6.676674421066811,5899.7374487656
1.564,7.801250926790672,5903.355117945112
1.568,8.579648370693599,5904.773760607954
1.572,8.970339448559802,5904.82282939701
1.576,8.99500294716391,5902.638156183322
1.58,8.723828221783226,5889.223635403956
1.584,8.253028734384339,5902.60139726327
1.588,7.681598757598263,5899.391160165599
1.592,7.09296009118061,5898.370029043056
1.596,6.544626332389209,5907.594391385886
1.6,6.066321967303283,5895.6102109883805
1.604,5.664877189609903,5891.668945641358
1.608,5.332895813550571,5894.305735068439
1.612,5.057725703865601,5900.076514076163
1.616,4.827854999267732,5903.03349991103
1.62,4.635436597566755,5903.755102531812
1.624,4.47548841345363,5891.948199038298
1.628,4.343493682961727,5899.169966245891
1.632,4.233208832624572,5901.516676104219
1.636,4.1358085218878,5900.733496334648
1.64,4.0406838697691585,5906.295283232225
1.644,3.9375580597038207,5908.425600705684
1.648,3.8190666268532727,5896.061663817127
1.652,3.682641504770462,5897.570033010704
1.656,3.5307144619663386,5901.982542599294
1.66,3.369059110218054,5906.004321502202
1.664,3.204163430783652,5898.528960183125
1.668,3.041116585132463,5904.937978788835
1.672,2.883114005112304,5903.956797778899
1.676,2.732586638592797,5901.890299580726
1.68,2.592910007332646,5905.664663292868
1.684,2.469317718112627,5895.661880292228
1.688,2.3681538113548606,5896.832708508961
1.692,2.2945205595393867,5904.331582071184
1.696,2.2492166377951297,5895.348964904386
1.7,2.2263702850512854,5893.403767919938
1.704,2.2131219442887917,5896.28513140295
1.708,2.191902015760072,5902.151963028932
1.712,2.1446337535952384,5904.029517226705
1.716,2.057374791509694,5908.989445021288
1.72,1.9239244839142895,5911.075478223071
1.724,1.7474946428349685,5899.549883992501
1.728,1.540195406883966,5894.216888994653
1.732,1.3206196168456439,5904.977082714207
1.736,1.1101880880775172,5910.341337489918
1.74,0.9290860979879344,5908.049492165952
1.744,0.7925754250651174,5900.91968664052
1.748,0.7083288242869114,5900.1088651638565
1.752,0.6752923626915549,5899.210698570382
1.756,0.6843550063546948,5899.974473236732
1.76,0.7206578986598625,5907.474616597468
1.764,0.7668442762069532,5899.662315504016
1.768,0.8063668168637798,5896.203890382983
1.772,0.8262459173444612,5893.635025570865
1.776,0.818968275479952,5891.731671301676
1.78,0.7832739332807843,5885.392187093039
1.784,0.7236918065217899,5893.352799193528
1.788,0.6490105865268582,5885.483360046148
1.792,0.5701109050209177,5884.9012436826615
1.796,0.49757188135299024,5896.148483346527
1.8,0.4394788369885874,5902.120392941818
