时间(s),电压(V),幅值(高频80K)
0.0,1.2655971774610153,5903.0852359419805
0.004,0.7756706582867562,5902.618840436637
0.008,0.35005433890317267,5901.403291478027
0.012,0.040608844083124734,5904.4266650016925
0.016,-0.12734784402497426,5906.964225314465
0.02,-0.15834182764152863,5901.328268797596
0.024,-0.08182341125193635,5895.074149406196
0.028,0.058130640922991354,5897.787587502988
0.032,0.21409739897091107,5903.714467406931
0.036,0.3441932368632359,5898.972064973081
0.04,0.41771499221891173,5901.480316797247
0.044,0.41829691055140755,5897.123977420619
0.048,0.3449474875824566,5898.990590378178
0.052,0.21036709024665068,5898.154187439505
0.056,0.03637288444475959,5902.813021965252
0.06,-0.15204251718113956,5898.79046542135
0.064,-0.3315563450986126,5899.611019288482
0.068,-0.48293668362214676,5904.70788102481
0.072,-0.5917771683526616,5903.715628412779
0.076,-0.6491251026136569,5896.711714040046
0.08,-0.6525890544794614,5897.010696232484
0.084,-0.6070668487800409,5898.524421748377
0.088,-0.5239422922309878,5903.932601771404
0.092,-0.41862063328345606,5885.975611658208
0.096,-0.30738027354789393,5897.062573344337
0.1,-0.20464895704909042,5897.670404837317
0.104,-0.12123284248668983,5913.371407078264
0.108,-0.06356177213411571,5897.244540242594
0.112,-0.03378699676600461,5904.091039936251
0.116,-0.030300432758654888,5897.902480050754
0.12,-0.048165648477675224,5901.834499203211
0.124,-0.07943137555821606,5893.962275650441
0.128,-0.11391431021449624,5903.894814426357
0.132,-0.1410006627836233,5900.439774669042
0.136,-0.1523581057919315,5896.227113235469
0.14,-0.1448013166036778,5889.263409225399
0.144,-0.12220685766525456,5888.551827583204
0.148,-0.09541995464659858,5898.616729277713
0.152,-0.0796689934102282,5908.306019497845
0.156,-0.08990665210978299,5893.616012626662
0.16,-0.13538298886153513,5905.238821868294
0.164,-0.21541706962823529,5905.499455900317
0.168,-0.3182993220274484,5895.453283920542
0.172,-0.42400808454736727,5901.250140140133
0.176,-0.5094645358007555,5896.760880069075
0.18,-0.5538886770344271,5898.7501221787925
0.184,-0.5424277461225074,5903.671729988038
0.188,-0.4679334314157267,5894.7320570319325
0.192,-0.3319055709616335,5896.321846909233
0.196,-0.14521265356802737,5895.660021220349
0.2,0.07204507942438662,5901.964575913235
0.204,0.2926137844484504,5895.622611351215
0.208,0.4862605528784147,5904.467069801731
0.212,0.6249627116755043,5904.479077272657
0.216,0.687620781316412,5903.441991731433
0.22,0.6632426925131915,5898.738788145798
0.224,0.5522743965050269,5896.983485322083
0.228,0.36627965108234045,5903.381889990657
0.232,0.12628033177492018,5899.115431208314
0.236,-0.13997345599084005,5901.882182193815
0.24,-0.4013171503436186,5893.043632048733
0.244,-0.6263779311094084,5906.253060882306
0.248,-0.7864652895517634,5894.619258116591
0.252,-0.8588103690077039,5895.503616638982
0.256,-0.8307609656977923,5903.72487131328
0.26,-0.7041183690522598,5907.989127697854
0.264,-0.497382577363823,5897.8075865212
0.268,-0.2438604446363051,5898.893845532173
0.272,0.01455190187291222,5900.341562281868
0.276,0.23604381668538146,5900.648219445395
0.28,0.3873488166522094,5891.622002957318
0.284,0.44984914404610865,5898.828214377745
0.288,0.4221592390251445,5900.120629854384
0.292,0.3188409386271251,5897.566191635029
0.296,0.1656206795583417,5898.645530344486
0.3,-0.007785303625061951,5891.691838443471
0.304,-0.17543847987727085,5902.803650659512
0.308,-0.32129425095847364,5905.660728815496
0.312,-0.4416029394253253,5900.154936659327
0.316,-0.542651647812087,5905.549504528048
0.32,-0.6347330302317552,5902.197841953871
0.324,-0.7249004809053938,5902.402250361204
0.328,-0.8116298355123825,5907.728669462856
0.332,-0.8835701555449194,5903.848356380489
0.336,-0.9226125910144582,5893.293178882534
0.34,-0.9096528851715667,5898.354822550001
0.344,-0.8306825816571409,5904.845463364076
0.348,-0.6813906145963422,5899.156549317239
0.352,-0.46954198825305316,5904.811800904311
0.356,-0.21504068477512953,5903.4815359999
0.36,0.052448568520893885,5902.119097392454
0.364,0.2984014214602353,5901.802081356195
0.368,0.49016168727820064,5893.019176497497
0.372,0.6037004969771961,5900.078560931604
0.376,0.6282239497540304,5899.665892885821
0.38,0.5672788057616471,5895.097497530827
0.384,0.43650453004470724,5896.415264106539
0.388,0.2592801936404929,5901.45917075551
0.392,0.06174837223877433,5901.628573198438
0.396,-0.13158503007638894,5900.156577083424
0.4,-0.3009593237747132,5910.013167069953
0.404,-0.4331124345200044,5907.029136778958
0.408,-0.5221083385289202,5902.589281564541
0.412,-0.5695543887816484,5896.438565268764
0.416,-0.584003589702407,5901.45877725092
0.42,-0.5790277160003543,5904.154940871617
0.424,-0.5696839029424945,5897.947376980608
0.428,-0.5679039784812583,5895.734895190204
0.432,-0.578425835266349,5898.497125235801
0.436,-0.5974184042183006,5907.565471199547
0.44,-0.6150250333830481,5896.420967388784
0.444,-0.6208585565465371,5895.708582052511
0.448,-0.6096426599915808,5902.758299053032
0.452,-0.5842216027102999,5895.470965634058
0.456,-0.5547284105500105,5894.173841474056
0.46,-0.5344090534378267,5894.546161395504
0.464,-0.5338267922792468,5907.821594693556
0.468,-0.5558539836773158,5899.073950960186
0.472,-0.5936040081516988,5885.230231285579
0.476,-0.6321907149177495,5887.218035908032
0.48,-0.6536031530322169,5894.888942181757
0.484,-0.6427047545720138,5903.7024196291
0.488,-0.591815525154789,5908.656230022558
0.492,-0.5019699007648055,5908.256064346004
0.496,-0.3807353247623508,5894.295624570207
0.5,-0.23836573113496934,5902.952329599172
0.504,-0.0846943329224202,5890.233440003785
0.508,0.0718333536162821,5890.367547317837
0.512,0.22325905491576417,5898.9787155785125
0.516,0.3606553664485646,5903.302071762698
0.52,0.47344179931356417,5909.702499487868
0.524,0.5502605747088785,5902.510753314661
0.528,0.581476501448289,5898.865526853756
0.532,0.5625877311152258,5897.814408551759
0.536,0.49728512697615596,5895.141135144522
0.54,0.3988624789558782,5912.775663455023
0.544,0.2890307241250424,5905.088086804784
0.548,0.19370700965673038,5899.724958170687
0.552,0.1363088189866934,5900.3867354723525
0.556,0.1305908791310331,5896.598799882226
0.56,0.17603167070782733,5901.094885606798
0.5640000000000001,0.25794804030193763,5906.210345898787
0.5680000000000001,0.3522725758219284,5902.21169788116
0.5720000000000001,0.4329231213399972,5893.261616152071
0.5760000000000001,0.47907840416382996,5899.567653705058
0.58,0.4802951863302157,5896.684301795596
0.584,0.4383647092034242,5897.791306730798
0.588,0.3656282191646923,5909.649376484219
0.592,0.28043982639216475,5900.953568639119
0.596,0.20152726179874597,5898.397865539818
0.6,0.14326858442081072,5908.031936969132
0.604,0.11301658372882696,5898.955697769552
0.608,0.11046739404462733,5900.531547383633
0.612,0.1285665401846091,5887.3852708568265
0.616,0.15541687457071213,5895.423340249138
0.62,0.17660753983809724,5896.035912497222
0.624,0.17743531088699266,5902.195302131733
0.628,0.14496741968807175,5903.159949620408
0.632,0.0703984888101208,5900.573251316741
0.636,-0.048088921152730446,5903.31536532579
0.64,-0.2027249952890323,5906.592675688891
0.644,-0.3754320942829955,5902.334248906092
0.648,-0.5404691960464633,5893.401225921054
0.652,-0.6705169974797686,5893.198149627515
0.656,-0.7442212216631559,5904.964894777179
0.66,-0.7519828955681299,5907.319320197245
0.664,-0.697578532042434,5904.663787598723
0.668,-0.5955215910495983,5901.906709367132
0.672,-0.4660306596541984,5887.825847487837
0.676,-0.3298028249624254,5888.548633590846
0.68,-0.20401334277252642,5905.16441313693
0.684,-0.10010783563544923,5903.215888562932
0.6880000000000001,-0.023404520884841337,5899.754548406876
0.6920000000000001,0.02576170019534774,5897.529033186705
0.6960000000000001,0.04978043692123314,5895.972660791258
0.7000000000000001,0.05103966397788518,5905.155739071857
0.704,0.02970329159160634,5897.086432114829
0.708,-0.016888545486228895,5890.398239039309
0.712,-0.09257065869181494,5895.452886110264
0.716,-0.19900965524356737,5903.216032766737
0.72,-0.3322893160862864,5895.373776483303
0.724,-0.48114755881140786,5893.48215224388
0.728,-0.6278276509590092,5900.829206799536
0.732,-0.7515748955193329,5895.923124551663
0.736,-0.833995650587566,5899.82877806735
0.74,-0.8647039639597115,5905.077793914543
0.744,-0.845133193189951,5904.404395904091
0.748,-0.7886814683474886,5898.866031987262
0.752,-0.7166889515756306,5901.165010307711
0.756,-0.651477159513525,5901.195586441523
0.76,-0.6089009221654454,5902.646049901617
0.764,-0.5930762160754777,5903.778214376194
0.768,-0.5951520687949181,5909.316025387681
0.772,-0.5964947314474761,5894.38434637598
0.776,-0.5750518827365714,5895.963982388987
0.78,-0.5126690161022325,5894.74132322596
0.784,-0.4009981961816239,5902.670329032711
0.788,-0.24418463152105624,5895.547331697388
0.792,-0.05762721025390568,5900.119595842649
0.796,0.13641713402407268,5907.934821061142
0.8,0.3145229535412918,5901.682135561061
0.804,0.45720702624680404,5899.2380342724255
0.808,0.5524068071442038,5904.59948407527
0.812,0.5969882624959553,5903.451832310627
0.8160000000000001,0.5961064134217201,5892.368806612311
0.8200000000000001,0.5604275214525811,5902.457920341234
0.8240000000000001,0.502055487689989,5901.492312103891
0.8280000000000001,0.4308750407651751,5897.935480788083
0.8320000000000001,0.35275795807398563,5901.491057873383
0.836,0.269784819964478,5902.177365262313
0.84,0.18160771602400888,5906.936618444775
0.844,0.08704010870694322,5901.026983372513
0.848,-0.014497089183836269,5891.54535203301
0.852,-0.12162832338206024,5896.030801971318
0.856,-0.2298123339191637,5893.015777828447
0.86,-0.33070206557329507,5900.78333591437
0.864,-0.412658002120798,5904.479972440318
0.868,-0.46260309363959345,5901.284468564732
0.872,-0.46878505173179286,5902.75095298847
0.876,-0.423627067987919,5894.686825316993
0.88,-0.32589881889635924,5892.053402469128
0.884,-0.18185534120426053,5908.792186812158
0.888,-0.00542927056089561,5902.967158038922
0.892,0.182422215789107,5891.988936138249
0.896,0.355534168562487,5904.22198025345
0.9,0.4860662101277491,5908.272920552376
0.904,0.5496805137409161,5894.576766967219
0.908,0.5310238197328094,5909.615208102021
0.912,0.4274541112989973,5900.888511613272
0.916,0.2496955636603172,5903.381377025329
0.92,0.019692948515066682,5895.513949200082
0.924,-0.233099452540669,5898.6308245680175
0.928,-0.4760494566020176,5898.256608983736
0.932,-0.6781160372604527,5902.022403409809
0.936,-0.8149392325946804,5896.55846087937
0.94,-0.8733685746276625,5908.652037822049
0.944,-0.8539940750747953,5892.65380286868
0.948,-0.7707477631105206,5896.177194433173
0.952,-0.6477841486912014,5900.75914647731
0.956,-0.5145829092326751,5899.965753225508
0.96,-0.4002078452389043,5891.70916677608
0.964,-0.3274695487009426,5903.290201442684
0.968,-0.3078817907488941,5905.372025040444
0.972,-0.33862263954723004,5896.551333174575
0.976,-0.4027836955796998,5898.882819856544
0.98,-0.47371883687013455,5892.160189904265
0.984,-0.523070873510438,5904.733785031518
0.988,-0.5301353559004228,5893.660101182537
0.992,-0.48864774798001914,5900.310349114221
0.996,-0.40752427179778455,5895.14272639876
1.0,-0.3050344714008123,5892.440376900631
1.004,-0.1995882988882772,5900.71918811227
1.008,-0.10215736336456388,5899.950319302687
1.012,-0.01406975974926649,5891.463522822113
1.016,0.06941557766058488,5893.559354018921
1.02,0.1524456062742796,5905.422548444093
1.024,0.23274908604586592,5901.064703878834
1.028,0.2997432167425443,5901.220311102288
1.032,0.33744359073907276,5903.586083804298
1.036,0.3306102602775972,5897.03319252296
1.04,0.27113533356125435,5894.452756744359
1.044,0.1618348774601145,5900.881310587381
1.048,0.016204883002223676,5896.351991031739
1.052,-0.1454664484935957,5896.943846978079
1.056,-0.30179158134976647,5890.711269410866
1.06,-0.43546825179918974,5891.864678433584
1.064,-0.5362387146198266,5905.53881496525
1.068,-0.6010846604402783,5901.856724732779
1.072,-0.6321211278045366,5893.271838381612
1.076,-0.6331803094339495,5897.067051325829
1.08,-0.6064743796701249,5894.469631434981
1.084,-0.5510146934491699,5893.035712250612
1.088,-0.4638538165478994,5900.169304432349
1.092,-0.34349090462057824,5889.282048317302
1.096,-0.19332061711200757,5891.783665937862
1.1,-0.023219430525409358,5901.884448674064
1.104,0.1511463654489336,5906.851574293188
1.108,0.3104164143206153,5902.391170637544
1.112,0.4339421906101829,5897.133445495167
1.116,0.5021362874664888,5898.970011799699
1.12,0.4992569323722595,5907.763660248508
1.124,0.41708588777646394,5899.950609987167
1.128,0.25881229271390027,5899.727792689064
1.132,0.04128217786732798,5903.905532266092
1.136,-0.2060749658154708,5901.240480822069
1.14,-0.4458590944880411,5896.655972133779
1.144,-0.6394859733611362,5893.146491405754
1.148,-0.7542222327175381,5895.673639610666
1.152,-0.7691479248148916,5903.087705852394
1.156,-0.6795990664654565,5891.202082896091
1.16,-0.49968885571741506,5899.136218251038
1.164,-0.26174406095545305,5897.749555741877
1.168,-0.011232990966158027,5905.392991237261
1.172,0.20297823459105846,5899.923051967026
1.176,0.34090144647235293,5902.440432954495
1.18,0.38219638728080063,5898.548747102553
1.184,0.33127759664663303,5900.933452542934
1.188,0.21468830097399375,5908.560628013555
1.192,0.07183919928276386,5892.842070587699
1.196,-0.057389282946142095,5899.799994115748
1.2,-0.14394868681389006,5902.541446191442
1.204,-0.1763709483580006,5902.817339857561
1.208,-0.1613878492031588,5894.545042631263
1.212,-0.11904910776913785,5898.614312560576
1.216,-0.07448237309043754,5897.554441161198
1.22,-0.04904645843584244,5894.912169799174
1.224,-0.05364480791882544,5904.628987974289
1.228,-0.08621892140474649,5894.677461957278
1.232,-0.13386616373575755,5905.896882844055
1.236,-0.17841960804288512,5897.809236040765
1.24,-0.20335506278129828,5901.14620182231
1.244,-0.19952174362458777,5896.529101099992
1.248,-0.16760033372746252,5896.441194775517
1.252,-0.1166616790984786,5893.286642940578
1.256,-0.06002566462698362,5895.843667623917
1.26,-0.01053685491853279,5901.441832125183
1.264,0.022941659345935683,5895.313166784767
1.268,0.036876080133508383,5900.42031806011
1.272,0.03217604782785285,5903.560525826944
1.276,0.011841010347040534,5904.875002879654
1.28,-0.02137007677698338,5904.5882409985925
1.284,-0.0656496245082582,5893.653712959289
1.288,-0.11866761566781052,5896.288202281474
1.292,-0.17514615541546677,5901.824870691902
1.296,-0.22576333063489032,5888.723513327617
1.3,-0.2588083727038017,5910.079286787452
1.304,-0.26404448099811184,5895.277972992202
1.308,-0.23693093914901592,5897.375792124025
1.312,-0.18137064643149572,5897.140557281007
1.316,-0.10992099570111526,5897.3669269569655
1.32,-0.04126688785881804,5897.04023391178
1.324,0.004577039486052612,5898.554393874502
1.328,0.012224020502574366,5896.442318614137
1.332,-0.023953987360652483,5901.787684027289
1.336,-0.09804476335402951,5907.169470112068
1.34,-0.19560948332921532,5903.356575618479
1.344,-0.3001223245127424,5908.867922784454
1.348,-0.3989907692117732,5904.617062591007
1.352,-0.48560626399157997,5900.124876411232
1.356,-0.556913106053456,5902.046693728721
1.36,-0.6091614371720306,5896.808363428129
1.364,-0.6354054431279657,5890.331683834232
1.368,-0.6266984700018247,5898.905749294487
1.372,-0.5762666359394294,5902.552571295957
1.376,-0.48400679103528743,5893.787639342695
1.38,-0.3586343362010162,5892.48012844302
1.384,-0.2164776034390628,5905.392251498438
1.388,-0.07780354727659865,5900.318224584775
1.392,0.03770080490713277,5898.17117728802
1.396,0.11513808663698241,5898.187554891971
1.4,0.14774321939544768,5894.846814410729
1.404,0.13862662287031904,5892.324615218109
1.408,0.09972638586338654,5901.322369270277
1.412,0.04738162770077484,5891.497967932749
1.416,-0.0040759798865229345,5901.007864498392
1.42,-0.04754478840971347,5898.20668941184
1.424,-0.08438227500401174,5906.974235165188
1.428,-0.12131712268949815,5907.856313439029
1.432,-0.16530044142827516,5905.500072082408
1.436,-0.21932817397302942,5905.087754680554
1.44,-0.2811576763945649,5893.9140935600935
1.444,-0.3449982175312805,5893.562736264773
1.448,-0.40469317838285523,5902.761123813839
1.452,-0.4562460241448705,5887.4279400551
1.456,-0.49817597001875785,5900.611958922525
1.46,-0.5298788815189682,5902.826074627101
1.464,-0.5496860956466812,5897.1988058028255
1.468,-0.5543430503782389,5906.089967489149
1.472,-0.5402266220215399,5898.900803527823
1.476,-0.5052628701137767,5892.35707231524
1.48,-0.45039899914179576,5901.39432658934
1.484,-0.3802325490907976,5908.810686012029
1.488,-0.3027958883002595,5900.646400148025
1.492,-0.22824314396514842,5896.980473595538
1.496,-0.16616060170043043,5894.771792444505
1.5,-0.12203229192169353,5890.328653942954
1.504,-0.09449269970264333,5907.0924184968135
1.508,-0.07527393214837265,5891.250443737723
1.512,-0.05259607609011342,5903.786845723651
1.516,-0.016734998055256026,5902.222869683206
1.52,0.03487426763893505,5901.246093581429
1.524,0.09533480821757548,5897.943249306636
1.528,0.14955472867885805,5907.12564630784
1.532,0.17828087591100908,5900.41542598096
1.536,0.16337453600613613,5890.340525959544
1.54,0.09295570693316266,5904.664046609951
1.544,-0.03446237725243205,5902.186657244877
1.548,-0.20749292802383446,5901.087659272111
1.552,-0.40185205379245,5900.952963721203
1.556,-0.5836383810165868,5898.338428899583
1.56,-0.7160718588337448,5891.614508122374
1.564,-0.7683900228295973,5901.486786309357
1.568,-0.7242094893426068,5901.418628149288
1.572,-0.5864908914577066,5895.535226597395
1.576,-0.37756295462262396,5890.433373098136
1.58,-0.13444514807902339,5895.235059857275
1.584,0.09917744179956614,5898.819270658046
1.588,0.28262436485550624,5893.773294007642
1.592,0.38759795360899446,5899.344750113116
1.596,0.4049348645379895,5900.6628739575535
1.6,0.3464405361148373,5905.271018689382
1.604,0.24071362156422452,5900.546692912859
1.608,0.12399614365729078,5905.910262501704
1.612,0.029122850698795402,5903.518561052566
1.616,-0.02340940703411648,5902.61694059103
1.62,-0.029021439760473746,5902.400291800988
1.624,0.003451553475506287,5900.972271480998
1.628,0.05816232100159773,5902.564161327117
1.632,0.11896768807433672,5909.325978601761
1.636,0.1736864743417178,5897.508650002545
1.64,0.21510790464270318,5898.8238826493925
1.644,0.23977824441684797,5906.225647159937
1.648,0.24644851082673694,5899.517333719017
1.652,0.23547659451938982,5903.015578049256
1.656,0.20894597489140446,5907.034313012236
1.66,0.1704603880663983,5901.033207106123
1.664,0.12433845551679297,5897.487388116769
1.668,0.07498665719456678,5899.077529481941
1.672,0.02701601470896879,5889.735564023321
1.676,-0.014478498777849928,5905.155890640308
1.68,-0.04453460678350039,5901.00015205684
1.684,-0.059986352557542824,5902.803386184549
1.688,-0.06097415831123247,5898.195690230717
1.692,-0.050803777861044515,5900.369683354098
1.696,-0.0339553708423775,5898.0355255607055
1.7,-0.013886778631516964,5904.623862519644
1.704,0.007189425770344108,5899.868558058932
1.708,0.025989466676981415,5893.790583529414
1.712,0.03523506537233327,5898.200308278507
1.716,0.023109264525591405,5907.854805689121
1.72,-0.023434469772025016,5901.256056419275
1.724,-0.11285401149230176,5891.872281605082
1.728,-0.24374148755996644,5907.1842225666105
1.732,-0.4025864879930149,5902.123359417913
1.736,-0.5652830168637076,5903.816157938057
1.74,-0.7016682286995072,5898.121923534401
1.744,-0.7819045278494778,5900.865761479275
1.748,-0.7834779387436166,5895.32336113597
1.752,-0.6973601879242026,5900.216549882043
1.756,-0.5315027700922446,5903.115316842132
1.76,-0.3100921771931046,5899.0301615137305
1.764,-0.06842074331237565,5905.342042612745
1.768,0.154965000437918,5901.663137461561
1.772,0.32628872827235933,5900.558710206536
1.776,0.422572788811736,5900.685125409193
1.78,0.4346542749084084,5897.451260172723
1.784,0.36748478926206846,5896.265393826568
1.788,0.23870949846248948,5904.122148432535
1.792,0.07609047362708214,5893.053600602289
1.796,-0.08656282943850341,5894.5126557561725
1.8,-0.21541481668494794,5899.687765168321
