时间(s),电压(V),幅值(高频80K)
0.0,0.9920187037535851,5898.695097481897
0.004,0.6701729595608504,5893.956810857417
0.008,0.38290335540169357,5903.104502100699
0.012,0.15847544682090617,5899.374926875622
0.016,0.010762513498198121,5894.276839570142
0.02,-0.06188669567539134,5903.444651197831
0.024,-0.07342939881902391,5906.735126701323
0.028,-0.044369727942529816,5898.453644589823
0.032,0.004148445611813051,5892.456570448208
0.036,0.05472839321231889,5897.041498588877
0.04,0.09611590273652995,5902.795458237327
0.044,0.12368433319426873,5899.547524676177
0.048,0.13803160907504783,5896.7284930610285
0.052,0.14198910935024506,5903.598636854011
0.056,0.13721762557471354,5895.756411461813
0.06,0.12216267160033661,5907.480655592962
0.064,0.09258643316036762,5904.213466506973
0.068,0.0443614235219991,5896.779821064365
0.072,-0.023153810827098723,5900.737724653784
0.076,-0.1049934672362508,5900.052716823288
0.08,-0.19061717206808546,5893.566296336245
0.084,-0.26598428484089875,5904.580494812338
0.088,-0.31712187058723973,5899.245599623588
0.092,-0.33445894827162587,5909.098538246306
0.096,-0.3167251615003773,5899.314087769539
0.1,-0.27263222688484856,5893.585275458971
0.104,-0.21879296884012336,5899.998233186558
0.108,-0.1739652251097978,5888.253154140703
0.112,-0.151910738899012,5899.91719196533
0.116,-0.15618241630054247,5904.617343964996
0.12,-0.17918186626000493,5898.950099028371
0.124,-0.20573942135507403,5898.676599163522
0.128,-0.2195871684869323,5899.075971984865
0.132,-0.21009318804730606,5900.331161994439
0.136,-0.17661364985924508,5893.416224115091
0.14,-0.12868902459561304,5892.551918092077
0.144,-0.0818869169281553,5893.237080265812
0.148,-0.05100964795098464,5900.239643052287
0.152,-0.04375045745510833,5905.982584037222
0.156,-0.05770852043101777,5901.587414681538
0.16,-0.08194286436176247,5896.464479244567
0.164,-0.1020702193277016,5898.088013487071
0.168,-0.10650167715197917,5900.176220976917
0.172,-0.09121802742766763,5902.970843149877
0.176,-0.061247139360124034,5909.056752162323
0.18,-0.028281072004986307,5897.081691075731
0.184,-0.005356407273590797,5892.625275755986
0.188,-0.0008883177459948824,5906.786639591251
0.192,-0.01487481908366529,5898.02409608694
0.196,-0.0391004284245406,5900.807893427882
0.2,-0.061081795945499666,5899.128188084573
0.204,-0.06969023032639159,5898.561851723592
0.208,-0.05983190116633806,5903.94226077157
0.212,-0.03422982502791055,5905.721835646072
0.216,-0.0017598808206322405,5900.879370330517
0.22,0.02662720693039076,5894.787791882689
0.224,0.04235536038526472,5884.804556260435
0.228,0.04208423986366926,5893.231068492641
0.232,0.02802309151968574,5900.160932836278
0.236,0.006004934080225679,5896.618020649582
0.24,-0.01742643987013659,5893.231416978463
0.244,-0.037383609558098115,5897.03058961342
0.248,-0.051447597971312244,5908.233366818088
0.252,-0.059009377586783957,5900.646389761981
0.256,-0.060140701411045605,5899.627578776886
0.26,-0.055038961209956425,5907.093306799156
0.264,-0.04441756569590356,5895.19784884238
0.268,-0.030531416128336417,5901.571131554751
0.272,-0.018174223478723984,5909.240481306423
0.276,-0.014854704634682943,5896.484246227143
0.28,-0.029501122595576457,5910.943647870128
0.284,-0.0696795242548277,5904.555343873833
0.288,-0.13823408542775922,5898.81007788335
0.292,-0.2307956314184465,5894.8878774682535
0.296,-0.3353884807009202,5898.203933945138
0.3,-0.43462874116812594,5898.260010456567
0.304,-0.5100680943514324,5904.696502398163
0.308,-0.5473038471718565,5895.667656398493
0.312,-0.5399146765665128,5900.90479905602
0.316,-0.4905601211419719,5904.137020723896
0.32,-0.4088095730454068,5893.245781423832
0.324,-0.30688345896627395,5894.207172205386
0.328,-0.19555539414637807,5904.394743265303
0.332,-0.08228027163070706,5899.876667960879
0.336,0.02786139376992639,5898.603267757364
0.34,0.1297126068672765,5903.094844901237
0.344,0.21626665651113977,5904.895531823752
0.348,0.2789409602489463,5896.507065662133
0.352,0.309705629613478,5914.497626893953
0.356,0.303889580719079,5900.179974321299
0.36,0.2623755315557769,5897.450388733546
0.364,0.1922556970301495,5908.097683434475
0.368,0.10557447632605936,5898.93997545886
0.372,0.01640123458340488,5905.192396751874
0.376,-0.06294102993881476,5901.884447405967
0.38,-0.1251882611113641,5893.752841519751
0.384,-0.16959224064358888,5890.772438768459
0.388,-0.20077240175271935,5894.343140852497
0.392,-0.22542391991554858,5896.206042665189
0.396,-0.2483389597985489,5896.849251115507
0.4,-0.269382654699641,5899.930037049115
0.404,-0.2825566433990309,5903.622798485935
0.408,-0.2775446761407201,5898.013584721907
0.412,-0.24339521136283598,5897.146938666322
0.416,-0.173227451815174,5894.833759871637
0.42,-0.06820163631666694,5894.724340385761
0.424,0.06103887747495621,5901.556106297721
0.428,0.19632553095365315,5902.612563118113
0.432,0.3166686937881626,5900.726840996585
0.436,0.40383058916716796,5899.823890252027
0.44,0.44668229242359486,5899.446618452779
0.444,0.4430406455456864,5896.118474844065
0.448,0.39888959289185993,5900.699215580673
0.452,0.32586885995436693,5905.138607042797
0.456,0.23815847746682758,5896.043563230193
0.46,0.14945810926447015,5895.422328034954
0.464,0.07033889373754028,5895.36445091754
0.468,0.006327570330247185,5894.404931912972
0.472,-0.04265131770148132,5896.101213333244
0.476,-0.081009817197882,5902.851347378033
0.48,-0.11462391039158788,5901.1676566164215
0.484,-0.14740152872259069,5896.412950510826
0.488,-0.1789112591595691,5895.972557755614
0.492,-0.20454773584722208,5906.251767319392
0.496,-0.2185189469779377,5901.966218657064
0.5,-0.21816677373064317,5895.4403678470535
0.504,-0.2070097287898229,5898.9273924726585
0.508,-0.19439355615733897,5899.324657173205
0.512,-0.19154689102866532,5902.093077501618
0.516,-0.20593200228524572,5896.005610586712
0.52,-0.23682919682032375,5893.566298883646
0.524,-0.2746372845429001,5906.312336785427
0.528,-0.3045842596701847,5893.575681053565
0.532,-0.313167067100001,5904.2753550315
0.536,-0.29409228733493187,5907.045224504969
0.54,-0.25090802793982525,5908.875080065025
0.544,-0.195528608101255,5897.873981938511
0.548,-0.14394712195094705,5893.0447960708825
0.552,-0.11136989377647818,5890.257624736887
0.556,-0.1085812747811008,5904.936004232564
0.56,-0.14020038463952753,5909.524529673254
0.5640000000000001,-0.20446042109568335,5902.650525036129
0.5680000000000001,-0.29370398302300477,5893.045323199747
0.5720000000000001,-0.39504984053797,5907.128194705384
0.5760000000000001,-0.4914004462323071,5902.25973659054
0.58,-0.563435232609749,5898.107498380464
0.584,-0.592885665551799,5899.813696339509
0.588,-0.5664914806700203,5894.1277618190215
0.592,-0.4794562463426055,5902.710132112161
0.596,-0.33736240947822116,5897.396939016396
0.6,-0.15598922524162567,5900.923400907468
0.604,0.041109423885227425,5899.982094187841
0.608,0.2269367072191952,5900.669927698007
0.612,0.3762861570013613,5905.217358581938
0.616,0.47039809549370104,5898.71289985226
0.62,0.49980427917756076,5900.797194879804
0.624,0.4650044345253746,5904.296673580751
0.628,0.3755155476406316,5898.505321513743
0.632,0.24810692862271957,5899.467884540579
0.636,0.10455314030832717,5898.953080809881
0.64,-0.031361710948000325,5896.5883116602445
0.644,-0.13776845327366702,5902.636359338503
0.648,-0.19897329357654045,5894.975053270411
0.652,-0.20877856425622907,5891.873939066378
0.656,-0.17162843896774221,5898.645519484963
0.66,-0.10110344379847075,5898.703570583284
0.664,-0.016286934761400185,5901.644831741867
0.668,0.0628487948327884,5904.289713466936
0.672,0.11989929874053128,5896.630121126328
0.676,0.14548403659366876,5898.473447159573
0.68,0.13898973288841068,5895.023609355108
0.684,0.10797471254414995,5897.024004462053
0.6880000000000001,0.06512598828287049,5902.218875927527
0.6920000000000001,0.023654293110741846,5905.92684729137
0.6960000000000001,-0.007156027188025966,5892.692916447065
0.7000000000000001,-0.02452482567814005,5899.812227561754
0.704,-0.032038420681607345,5889.009501684132
0.708,-0.0371566978902186,5898.729867765304
0.712,-0.04761764422083759,5898.9684820233015
0.716,-0.06825899701104414,5903.669017982531
0.72,-0.09948320355147247,5895.243129908424
0.724,-0.13790243316843168,5896.957336615469
0.728,-0.17874268988728464,5905.983647995874
0.732,-0.21869346115875504,5903.035157170121
0.736,-0.25761954382406377,5888.23777807673
0.74,-0.2981679887298336,5905.667173612213
0.744,-0.3434856454526922,5902.821815568478
0.748,-0.3943642782835581,5905.851160712723
0.752,-0.44746065367070753,5906.169796123239
0.756,-0.4954899137022951,5903.034791049998
0.76,-0.5290508897896897,5896.58325373068
0.764,-0.5390721824309258,5895.623304788428
0.768,-0.5191039776475443,5889.430901543788
0.772,-0.4671656669242272,5908.20286804052
0.776,-0.38694954496927403,5903.270246916859
0.78,-0.2880162204624119,5900.002721437349
0.784,-0.18470203430640234,5903.148394501543
0.788,-0.09385647827349125,5901.836132426955
0.792,-0.03187382958110857,5900.783832978051
0.796,-0.011595295625152182,5899.085663555232
0.8,-0.03966286415215834,5899.653123016302
0.804,-0.11488765804554799,5897.27286359159
0.808,-0.228083813813086,5901.883435182893
0.812,-0.3635180009705604,5899.802090656017
0.8160000000000001,-0.5016401733008984,5903.007725895208
0.8200000000000001,-0.6223317579388832,5897.589482601901
0.8240000000000001,-0.7078741803807145,5884.507223332633
0.8280000000000001,-0.7452061794869592,5898.170528321141
0.8320000000000001,-0.7274069320619864,5903.1918230877045
0.836,-0.6544519636242465,5906.613262440148
0.84,-0.5332689136082016,5890.33970803427
0.844,-0.3771283903971359,5896.509249746303
0.848,-0.20439697832564852,5904.804256734625
0.852,-0.03660270666143223,5894.394321733767
0.856,0.10426358759206673,5903.317517479407
0.86,0.19907961993881085,5892.177794442476
0.864,0.2349804224306912,5906.943178260922
0.868,0.20782068709481946,5900.003467092001
0.872,0.12274833300679565,5903.768412763715
0.876,-0.007400291435212536,5898.440053942402
0.88,-0.16516999842508948,5902.774468585114
0.884,-0.3317590239117287,5904.027896034931
0.888,-0.48955499294210936,5907.315554503253
0.892,-0.6237330130078961,5901.705478553829
0.896,-0.7232039158358374,5890.212728507852
0.9,-0.7812896433964807,5895.3184493789
0.904,-0.7963184356388845,5886.821212517234
0.908,-0.7719631214525818,5894.98989565611
0.912,-0.7168330193499484,5895.078623241888
0.916,-0.6429564743000179,5896.629280582877
0.92,-0.5633907353981773,5893.53308200041
0.924,-0.48975917855044654,5903.314197533031
0.928,-0.43052003198966615,5900.3337136084365
0.932,-0.3902901108912483,5902.396610861654
0.936,-0.3701107748057583,5899.495922441161
0.94,-0.36840330497461604,5903.987071635366
0.944,-0.3822689841556374,5895.759936908652
0.948,-0.40862615057733304,5898.387913263096
0.952,-0.4447182874203403,5895.161469642792
0.956,-0.48783402427829503,5899.954498389736
0.96,-0.5343575193284248,5898.14964482734
0.964,-0.5785179348432267,5903.8597539635575
0.968,-0.6116459485822467,5897.083897790518
0.972,-0.6230437208460888,5904.964809763821
0.976,-0.6030624842662449,5898.625520248587
0.98,-0.5476400470652816,5895.415080306128
0.984,-0.46226248957997457,5900.108951607193
0.988,-0.3630925516940729,5889.76534610914
0.992,-0.27408234926801367,5903.497691231431
0.996,-0.22058204152262126,5902.545699661269
1.0,-0.2214254333462971,5903.055344529252
1.004,-0.28228298291721227,5895.445461415347
1.008,-0.39293168447184107,5906.245772229445
1.012,-0.5297328225612657,5899.7515698649
1.016,-0.6624436803615412,5901.361201400755
1.02,-0.7627041394736753,5898.637077259684
1.024,-0.8110996578915216,5894.076341615009
1.028,-0.8007002878848033,5898.432024969527
1.032,-0.7367552463628491,5898.709204789325
1.036,-0.6337204666238258,5907.246252003849
1.04,-0.5112256400351695,5890.918113809216
1.044,-0.3900646748045369,5902.893815702285
1.048,-0.28857523133125756,5904.153897187853
1.052,-0.21949255752574237,5909.137839350444
1.056,-0.18760522893269937,5903.725712926749
1.06,-0.18888239313800645,5905.976625427578
1.064,-0.21162831407639923,5897.953087418976
1.068,-0.23952711626957884,5894.496229275746
1.072,-0.25571584213087967,5905.537500503073
1.076,-0.24688570898820075,5899.061303280472
1.08,-0.2067233079127426,5901.485364508127
1.084,-0.13809753447079404,5897.491694851204
1.088,-0.053145752214693934,5900.404141900802
1.092,0.02949426968496313,5903.201416967764
1.096,0.09008081142572988,5908.343344583053
1.1,0.114174918182781,5889.997429504495
1.104,0.09771139862368068,5901.217078348731
1.108,0.04881424799138864,5891.187067909754
1.112,-0.014439157690333628,5896.078572009094
1.116,-0.06982045044343681,5901.472250046557
1.12,-0.09857721230232024,5903.726100084297
1.124,-0.09226695778448556,5894.482951865647
1.128,-0.056284095658154426,5899.388150674925
1.132,-0.008722713245239317,5906.065535119783
1.136,0.025185388432827034,5903.695953863946
1.14,0.021381193483890035,5905.64493758799
1.144,-0.034636189005472086,5899.317858322553
1.148,-0.14223675128902039,5901.978155806589
1.152,-0.28485080248072714,5898.8986551269845
1.156,-0.4340526483378633,5898.030567598444
1.16,-0.5569170503382348,5902.155325020929
1.164,-0.6242097008731261,5909.395140129559
1.168,-0.6172026540189042,5886.079621624955
1.172,-0.5317364537093786,5903.815710866523
1.176,-0.37904853106429426,5901.100049009745
1.18,-0.18351100970407885,5897.642694201676
1.184,0.022238007244367468,5902.054642362098
1.188,0.2039302939429171,5904.442736460685
1.192,0.3326695200443257,5906.399077014134
1.196,0.3904526568316472,5900.544548857046
1.2,0.37265952634482064,5899.93800569366
1.204,0.2871796498120916,5898.55395072282
1.208,0.15125237290320012,5891.683537659657
1.212,-0.012393707751135153,5904.315010400538
1.216,-0.17912473542715526,5896.21054635014
1.22,-0.32559003746898013,5904.220277576896
1.224,-0.43267631110736193,5898.989590754158
1.228,-0.4881188436740781,5896.48234457953
1.232,-0.48828936841446713,5897.63082790093
1.236,-0.438521198808918,5898.24277494343
1.24,-0.35158081623040255,5895.127303020936
1.244,-0.24455655266044057,5889.356494875506
1.248,-0.135108126779746,5889.906068768995
1.252,-0.03817619822867581,5901.093212462458
1.256,0.03618577633821788,5898.621655640695
1.26,0.08376080472548161,5889.305316770364
1.264,0.10605181346379841,5894.470377734263
1.268,0.1092378274240004,5915.752969914694
1.272,0.10236399953505694,5891.687224836267
1.276,0.0950340041553778,5895.5322913285145
1.28,0.09497028824550424,5905.56268502929
1.284,0.10595270146387387,5897.053079649456
1.288,0.12680003158590245,5899.909707591554
1.292,0.1519287597351104,5900.722149777095
1.296,0.17347069865033274,5892.04308977198
1.3,0.1842113283689241,5898.287851627713
1.304,0.1801546756289722,5889.627329401124
1.308,0.16167294768601084,5897.642979605695
1.312,0.13297131491635472,5901.200552134322
1.316,0.1005069103281738,5901.205572596508
1.32,0.07136061365013589,5902.563214899972
1.324,0.05210349155127622,5884.097855113989
1.328,0.04788770701150703,5901.885940941881
1.332,0.06119516410011071,5900.985309095139
1.336,0.09033722196492984,5905.455267016724
1.34,0.12872401349576956,5901.987326200156
1.344,0.165909516865936,5904.206628371439
1.348,0.19032377254649527,5888.78931775262
1.352,0.1925516347591695,5899.761334864746
1.356,0.16787292398805825,5897.691293576823
1.36,0.11729581456834794,5900.618009737139
1.364,0.04693422656229248,5894.775165811459
1.368,-0.03387608511405333,5890.974762366292
1.372,-0.11497337350809558,5890.833341247846
1.376,-0.18758009924908697,5897.401222277798
1.38,-0.24597892284030462,5907.923824072227
1.384,-0.2885381761929885,5902.112371995681
1.388,-0.317917328127162,5894.979675550631
1.392,-0.340199709267653,5897.8478117974855
1.396,-0.36295579180553755,5906.122764922866
1.4,-0.39280230868939914,5899.927956540882
1.404,-0.4333004187671902,5894.663213620526
1.408,-0.4836887362399235,5899.571725172228
1.412,-0.5384762092789341,5900.1412030250185
1.416,-0.5878744857618596,5907.906194347637
1.42,-0.6192526675242759,5894.560680482821
1.424,-0.6197633607260024,5895.590477693534
1.428,-0.579821891630272,5896.2374529241415
1.432,-0.49643998708512216,5911.353456120501
1.436,-0.3750685364588869,5905.275847019871
1.44,-0.22904805627338656,5897.522766741584
1.444,-0.07683013172132372,5907.516380455499
1.448,0.06189186635894752,5887.592077030362
1.452,0.16976899620480299,5897.187258074167
1.456,0.23430953268149377,5902.471981454611
1.46,0.2493298876654097,5897.555159286369
1.464,0.21568710617675302,5899.379289323986
1.468,0.14143659078061604,5893.035005322279
1.472,0.0411953841470201,5893.866260986343
1.476,-0.06573927017046097,5897.9454175823375
1.48,-0.1587883112280851,5902.354487326503
1.484,-0.2205499575439942,5898.051430056852
1.488,-0.24103831103850834,5908.175159714004
1.492,-0.2202536767956696,5902.220106988844
1.496,-0.16824652166365547,5895.424362072301
1.5,-0.10261085490755807,5902.517133169476
1.504,-0.04388155895521,5896.001057782371
1.508,-0.009856702645383752,5898.395087627933
1.512,-0.010530653782621626,5911.335634957578
1.516,-0.045484276633436904,5909.222189850866
1.52,-0.10463047330393664,5908.431172836341
1.524,-0.17162838708624756,5895.214363745129
1.528,-0.2282960709348012,5907.482871635369
1.532,-0.25859808057099537,5907.439673680781
1.536,-0.2516717852024311,5902.003785814021
1.54,-0.20392973727069652,5898.545342215656
1.544,-0.12020039022839735,5900.377349041935
1.548,-0.013450440138272004,5904.8113202613495
1.552,0.0975638411487029,5889.907628376641
1.556,0.1928046164827171,5897.271536544545
1.56,0.2564433611075928,5892.88382719118
1.564,0.2811582740667411,5906.086959241837
1.568,0.2693153228366379,5894.611071354122
1.572,0.23052807890727212,5898.342898692825
1.576,0.17674149126698765,5903.521991144605
1.58,0.11703466047565697,5897.979178879852
1.584,0.05438675712541274,5904.160593929893
1.588,-0.014322462990321683,5903.9635035318925
1.592,-0.09533152592526381,5896.862243171512
1.596,-0.19355015120801072,5894.203509820467
1.6,-0.3086091189723472,5902.541243385486
1.604,-0.433067375143518,5901.498736483231
1.608,-0.5536414283693822,5905.775216130501
1.612,-0.6551212430479461,5903.311395715951
1.616,-0.7253263778487202,5900.480426527664
1.62,-0.7588533189992769,5905.800223348034
1.624,-0.7580587360001196,5897.834645241038
1.628,-0.7312150024232172,5900.572524127625
1.632,-0.6890030515380138,5902.4329531867625
1.636,-0.6409411414942079,5902.700622705144
1.64,-0.5930750105050009,5894.981613876827
1.644,-0.5475251382563756,5899.433394327566
1.648,-0.5036208189511181,5904.998860667994
1.652,-0.45976166522315487,5902.136940284635
1.656,-0.41512662639510456,5899.75051645743
1.66,-0.37079919818930274,5901.690950236181
1.664,-0.3303059861963003,5903.175444563105
1.668,-0.2995368126050708,5903.012247380028
1.672,-0.28568263012836,5899.426705136195
1.676,-0.29485952295723605,5890.632306707371
1.68,-0.3288497669182119,5905.796407510034
1.684,-0.3823528081059591,5904.626302082368
1.688,-0.4423622604676836,5903.28951613699
1.692,-0.4904664950672735,5897.32439128468
1.696,-0.5075900116912226,5894.747878397043
1.7,-0.47969017677360726,5898.052317870574
1.704,-0.40251839024798686,5901.71989377879
1.708,-0.2837665812889493,5889.582958691127
1.712,-0.1417416893022298,5893.073975171103
1.716,-0.0009697002517954067,5905.32052056132
1.72,0.11375849951601391,5891.411473430648
1.724,0.18304967717379733,5896.524435746279
1.728,0.19688286395609783,5904.390263405431
1.732,0.15624833265566748,5897.6235589696025
1.736,0.07241194450484541,5902.845522015542
1.74,-0.03586684596414637,5893.764040930567
1.744,-0.14654924617800902,5901.002666852488
1.748,-0.23905211248465205,5901.418309035393
1.752,-0.29844835497235384,5897.06007402084
1.756,-0.3182133010173575,5902.706718522893
1.76,-0.3009404918858237,5900.877984862762
1.764,-0.2569560232016266,5899.567621256141
1.768,-0.20135989530533485,5902.651007286178
1.772,-0.15042828481460682,5903.244193090712
1.776,-0.11826623415706448,5901.614737033285
1.78,-0.11420594830474064,5898.69686791686
1.784,-0.14106731336612371,5903.080702739359
1.788,-0.19433079839958867,5894.11405943539
1.792,-0.2624730154331144,5893.608230140633
