时间(s),电压(V),幅值(高频80K)
0.0,0.592634950269357,5904.51165719105
0.004,0.4411472139721316,5894.386288121262
0.008,0.28865362897562125,5896.121024094334
0.012,0.13850112732362727,5903.44178247685
0.016,-0.0038201929546521174,5898.034966937119
0.02,-0.1316715916944317,5900.837037559774
0.024,-0.2384845772763801,5900.912753584877
0.028,-0.3183848865628198,5906.261546506505
0.032,-0.3664056537338961,5896.345298435261
0.036,-0.37908689734262535,5907.582273313496
0.04,-0.3559022247309101,5905.569625895711
0.044,-0.3010572364572225,5899.35696047572
0.048,-0.22462487740763346,5901.15913880356
0.052,-0.14213833786777622,5903.932242530192
0.056,-0.07235125305042983,5894.179824752768
0.06,-0.0334960808496776,5900.190149051255
0.064,-0.03898849645160945,5898.02207709968
0.068,-0.09401980424297667,5912.222304638839
0.072,-0.19432948297919705,5898.371245555469
0.076,-0.32743663819292007,5904.663590531822
0.08,-0.47544610893660755,5911.511600898963
0.084,-0.6182061816609136,5898.087707671178
0.088,-0.7361819691288027,5896.684516928025
0.092,-0.8130990250894903,5902.280389612213
0.096,-0.8384308889176597,5890.913363204984
0.1,-0.8092526513203044,5892.226170974975
0.104,-0.7306893039415315,5902.6736328273055
0.108,-0.6146782161648243,5892.563230229355
0.112,-0.47756837790052614,5906.307409757931
0.116,-0.3373957973579516,5899.794689998422
0.12,-0.21141579213194187,5899.711151401972
0.124,-0.11414471995964366,5895.949183926861
0.128,-0.05604987636537,5899.840499849349
0.132,-0.04295159171824477,5902.743839354746
0.136,-0.07592454515485837,5893.67585095422
0.14,-0.1511290876988798,5898.717575283288
0.144,-0.25913757726684844,5898.063926053242
0.148,-0.38431753029391685,5907.283719833547
0.152,-0.5059025737661176,5905.337008855414
0.156,-0.6019709129742483,5908.410665565555
0.16,-0.6554140656780553,5899.223597257293
0.164,-0.6590612879778031,5890.710514038049
0.168,-0.6174004882074082,5903.771664791651
0.172,-0.5444233378833846,5887.832770957874
0.176,-0.4589813744399916,5904.377566166336
0.18,-0.3794564258423327,5897.089568832034
0.184,-0.3190642002129727,5906.171369253413
0.188,-0.28277009057659386,5907.721074429346
0.192,-0.2667003063672451,5906.004316185447
0.196,-0.2603679012860095,5902.133926875595
0.2,-0.2508624040105881,5896.767867245006
0.204,-0.22732657223052682,5906.345283612945
0.208,-0.18432793051295585,5899.753765376365
0.212,-0.12356713752443564,5901.090874941909
0.216,-0.05374757836709492,5902.372323385223
0.22,0.011603888626695267,5898.870997358266
0.224,0.058226783521394196,5899.769146802723
0.228,0.07608155738633501,5902.958786606432
0.232,0.06334521399496948,5893.335776267268
0.236,0.02762499912474731,5895.844315553884
0.24,-0.01650341928781164,5902.860972660231
0.244,-0.05290379109705837,5907.28280324843
0.248,-0.06989450640090668,5901.408444870746
0.252,-0.06401731477136356,5899.629778103313
0.256,-0.039891669316806856,5898.619041976707
0.26,-0.006720213136335379,5900.159483551358
0.264,0.026219549731531833,5896.338146584832
0.268,0.052554169511353256,5899.225609031222
0.272,0.06903736631674864,5899.11257366184
0.276,0.07371854097048575,5906.192004141457
0.28,0.06405216026964364,5906.739087225157
0.284,0.036725139087051384,5904.143182742711
0.288,-0.010537164529502879,5892.74180824216
0.292,-0.07652780974753719,5891.118068661612
0.296,-0.15531662058731555,5898.7515503712
0.3,-0.23721176576603212,5897.655846791122
0.304,-0.31156643771209575,5904.461598912496
0.308,-0.3702106845336741,5895.9244326621465
0.312,-0.4102302492956488,5902.364251139313
0.316,-0.4351581577405628,5902.655364091375
0.32,-0.45404488861061704,5896.918788860811
0.324,-0.47841381443614206,5899.322526421572
0.328,-0.5178936068291748,5899.07931412111
0.332,-0.5760587815542206,5902.135786485499
0.336,-0.6482019608482831,5898.408460732753
0.34,-0.7221414990045454,5904.838481417103
0.344,-0.7819634626510987,5909.450570550467
0.348,-0.813389843734141,5895.419524413287
0.352,-0.8087728866361991,5899.56248724985
0.356,-0.7698030871866742,5896.224105150875
0.36,-0.7069550326478172,5905.269931365772
0.364,-0.6361192704043017,5886.073734611029
0.368,-0.5738818990979184,5902.629878650468
0.372,-0.5329139160604368,5897.687522804424
0.376,-0.5183958689365993,5890.532807911815
0.38,-0.5261696869034147,5901.953469942522
0.384,-0.5433717407510515,5907.576702992142
0.388,-0.5519582414144124,5904.418707638992
0.392,-0.5344604533416615,5905.206419897117
0.396,-0.48004921058593614,5903.104154646752
0.4,-0.3885423930133951,5905.397386504212
0.404,-0.2708388814922596,5888.585808670991
0.408,-0.14580815134485017,5897.551649287177
0.412,-0.03490271172660513,5901.5104538097385
0.416,0.04372186682996744,5904.370679293139
0.42,0.0798525563291875,5907.083511094981
0.424,0.07336889081067295,5906.968516042709
0.428,0.03339723431805185,5906.126427090608
0.432,-0.025186152618431334,5910.805264088884
0.436,-0.08685027597414709,5909.857825929
0.44,-0.14053414245919896,5901.961393103254
0.444,-0.18297358325010699,5903.743703568056
0.448,-0.218776303066776,5912.926275715278
0.452,-0.2571339304682671,5907.8668202734925
0.456,-0.30681355764683843,5896.3810241267465
0.46,-0.3718851170677041,5899.474797687161
0.464,-0.4498383439379598,5900.987988417512
0.468,-0.5322058453727102,5894.54557079034
0.472,-0.606846750337046,5908.119396020536
0.476,-0.6609167057352181,5901.10374928069
0.48,-0.6837275425082954,5896.697665201705
0.484,-0.6689491818172932,5905.73203343044
0.488,-0.6159706152423459,5891.576191412736
0.492,-0.5304763641353597,5895.768724218129
0.496,-0.4241602772178526,5903.725058666256
0.5,-0.3132691312544446,5898.433530918809
0.504,-0.21581547522010122,5896.219792296149
0.508,-0.14782250663396793,5904.979246770477
0.512,-0.11948209966515147,5902.206413219587
0.516,-0.13234171969978223,5904.973315448764
0.52,-0.1784906948146113,5895.412666311144
0.524,-0.2421867352053107,5906.010454134822
0.528,-0.3036215529734459,5897.735744147339
0.532,-0.34389423836814176,5902.535583577534
0.536,-0.34994806601577,5902.281724014676
0.54,-0.3181915850791997,5895.821415406424
0.544,-0.25575021924531954,5900.294179328732
0.548,-0.17889444946259342,5904.964187769659
0.552,-0.10902747648669518,5897.163706336301
0.556,-0.06724323183934973,5905.300692278908
0.56,-0.0687087410470186,5897.33608404322
0.5640000000000001,-0.11819762603669247,5899.037909893064
0.5680000000000001,-0.20805162162889998,5905.805971715417
0.5720000000000001,-0.31945010865651247,5902.607085793788
0.5760000000000001,-0.4270283900502706,5907.8957575434015
0.58,-0.5057366490444714,5902.557571334028
0.584,-0.5377811401991431,5903.027583441258
0.588,-0.5172760402851224,5894.848048951456
0.592,-0.45124925277029665,5906.983800667596
0.596,-0.35723712452325124,5897.18197998572
0.6,-0.25878196415298826,5896.141225459318
0.604,-0.18026564608994244,5894.403925064735
0.608,-0.14202251412567754,5892.319213220979
0.612,-0.15620880458072825,5897.645068221196
0.616,-0.2239066825607276,5901.632564248653
0.62,-0.33431222737733085,5903.509548292289
0.624,-0.4669191077211513,5889.342837087903
0.628,-0.5967180347999691,5903.755770284467
0.632,-0.7008981293771853,5904.017863112973
0.636,-0.764595513614897,5895.917410172525
0.64,-0.7836953018280921,5893.496467737396
0.644,-0.7640675184525445,5899.906206609837
0.648,-0.7179311356172515,5898.969498348213
0.652,-0.6588485962965512,5899.356731448535
0.656,-0.5971564358644451,5901.9696840060415
0.66,-0.5374094163754491,5895.755429597197
0.664,-0.4785731719381871,5899.616207599406
0.668,-0.41644717950669097,5901.199882776087
0.672,-0.34679709256287844,5897.752137066626
0.676,-0.2675879517956864,5906.555714386322
0.68,-0.1795621389596248,5892.0259983792985
0.684,-0.0855489168005,5906.440103751464
0.6880000000000001,0.01046832895248664,5902.809797304564
0.6920000000000001,0.1037282391992385,5899.787203571369
0.6960000000000001,0.18849184619377327,5894.323389459767
0.7000000000000001,0.257912557458968,5898.467852737732
0.704,0.3047086976518208,5898.373525009533
0.708,0.3228758396960051,5903.25517613688
0.712,0.3099687263122313,5899.17219575556
0.716,0.26899237825336486,5901.040951593399
0.72,0.20883894684518267,5904.129635555707
0.724,0.1425400790869392,5897.643790472551
0.728,0.083464535762806,5906.165570887706
0.732,0.040730010590995624,5903.6681391802185
0.736,0.015787693962946613,5909.154288266912
0.74,0.0018440248857179437,5904.828473352332
0.744,-0.01334244945395371,5894.694295336612
0.748,-0.04220942925002979,5896.855764476043
0.752,-0.09184377771856252,5898.584561378928
0.756,-0.16063954600353164,5904.013625104551
0.76,-0.23866135737431446,5897.695952064499
0.764,-0.3113447848708098,5905.5572113749895
0.768,-0.3646399333701719,5907.80289899681
0.772,-0.3893971272926251,5901.883418770494
0.776,-0.3835697619892186,5901.647106044683
0.78,-0.351943285663144,5895.126975984444
0.784,-0.3040261524956294,5898.315413089876
0.788,-0.2512018647373859,5895.113657052083
0.792,-0.2041245163664291,5903.895436410634
0.796,-0.17081065144883326,5899.96743002494
0.8,-0.15541650854425762,5905.201584743767
0.804,-0.1576244319227216,5901.930306025835
0.808,-0.17274689019181597,5902.875339478177
0.812,-0.19267837295231216,5900.411408294195
0.8160000000000001,-0.207525691240773,5895.865087306802
0.8200000000000001,-0.20748106404784464,5893.615532998791
0.8240000000000001,-0.18465012429116387,5894.609954885791
0.8280000000000001,-0.13483717102677145,5901.761421946049
0.8320000000000001,-0.05914143726438133,5896.177711264734
0.836,0.03528240288071609,5890.635725646175
0.84,0.1360657038832243,5895.463906952019
0.844,0.228196641061477,5906.915550575773
0.848,0.2974964404330851,5904.157671711171
0.852,0.3336742552678918,5886.130666060536
0.856,0.3319403768956262,5902.534517488236
0.86,0.29299873063101833,5899.311998583621
0.864,0.22202043580508238,5903.649550715877
0.868,0.12743851414302146,5902.1933971471
0.872,0.020035260309729998,5888.895463711034
0.876,-0.08777123572002218,5903.156683223274
0.88,-0.18284891127830447,5903.941766045614
0.884,-0.2528811787041962,5903.472735989235
0.888,-0.28862725980815024,5913.054655196075
0.892,-0.28648840578318097,5898.749877306534
0.896,-0.250423550899049,5900.726526162918
0.9,-0.19221086481577504,5904.390241206714
0.904,-0.129517938308008,5899.177902625452
0.908,-0.08192803471143252,5894.261857944413
0.912,-0.06586136751654373,5896.816458799181
0.916,-0.09005198263403792,5896.352748495073
0.92,-0.15333396714200329,5901.631894300148
0.924,-0.2456059579214996,5899.2534178924725
0.928,-0.35144684627785333,5903.550577508076
0.932,-0.4547911042775927,5899.852093660672
0.936,-0.5427670278078902,5897.855900868122
0.94,-0.6072609389272882,5897.395300068987
0.944,-0.6439106263998765,5894.546755733536
0.948,-0.6496494182096415,5895.936834964367
0.952,-0.6207631251984643,5903.600959855403
0.956,-0.5530496975935186,5896.087149812946
0.96,-0.4442987435582102,5899.951999627183
0.964,-0.29781744095346496,5903.401878282238
0.968,-0.1250161829998937,5900.469888986359
0.972,0.05452104988921921,5892.493968316683
0.976,0.2158539543877399,5892.195955033395
0.98,0.33351461380943004,5899.575227938805
0.984,0.3868788516443746,5906.066063494847
0.988,0.3648392351659392,5893.090554892994
0.992,0.26903088172561673,5899.790136941071
0.996,0.11494713734956777,5902.830749598962
1.0,-0.06988774759185631,5901.584557055642
1.004,-0.2511041301519088,5891.073364592877
1.008,-0.3951666488460665,5913.048148045994
1.012,-0.47738230841435275,5900.011893959211
1.016,-0.48773981322086424,5907.679308342353
1.02,-0.43289792212671563,5900.675366153571
1.024,-0.3340354493757216,5899.295882451858
1.028,-0.2214887178551293,5904.072789598559
1.032,-0.12766932909668055,5899.945315437783
1.036,-0.07977790311184421,5904.927368120889
1.04,-0.0936803596508432,5889.327117045147
1.044,-0.1701470936169674,5903.304552769412
1.048,-0.29440489284576804,5908.7071112946605
1.052,-0.4394727341718426,5909.061527740844
1.056,-0.5728555207400442,5904.357292871247
1.06,-0.6649554735316249,5898.146222774128
1.064,-0.6967015236948637,5899.085300320193
1.068,-0.6640777530438574,5897.702627689752
1.072,-0.5783547568796764,5899.757445000962
1.076,-0.46219011078185024,5898.231679374936
1.08,-0.34287452626703013,5901.5648697747865
1.084,-0.24476432575946758,5903.215112711787
1.088,-0.1832237623610752,5903.154798703621
1.092,-0.16192649308490473,5903.754032381003
1.096,-0.17413131950350244,5897.939769648399
1.1,-0.20706366351300423,5897.043592355947
1.104,-0.24746559873464438,5906.442061833291
1.108,-0.2861061268114707,5900.386280060183
1.112,-0.319668158934192,5903.056965627029
1.116,-0.3497295319161363,5892.288815605565
1.12,-0.3798477378740256,5903.970900168848
1.124,-0.4123321012403715,5893.083944609705
1.128,-0.4460442004077196,5892.104292099396
1.132,-0.4758984863261579,5904.585224737544
1.136,-0.4940043648228095,5892.725561590296
1.14,-0.49181090017388723,5907.061886832847
1.144,-0.4623781128617826,5906.538983537958
1.148,-0.4021175062678202,5902.441800205448
1.152,-0.3118463105992495,5893.861234125356
1.156,-0.19735498425204903,5898.253241649947
1.16,-0.06959290753266015,5915.573020017586
1.164,0.055806646589619695,5898.278934696102
1.168,0.16014820300758256,5901.283437364446
1.172,0.22469416787868132,5898.911295930867
1.176,0.23480575071879534,5896.804863989024
1.18,0.18431880175868748,5896.504039338533
1.184,0.07868529483890406,5893.756122321159
1.188,-0.0647716038244225,5900.851151300259
1.192,-0.2203304817342738,5901.912842898483
1.196,-0.36022827909926736,5894.179721219354
1.2,-0.4616251971983128,5902.304230656588
1.204,-0.5117707493680755,5897.330631216092
1.208,-0.5100299539761585,5911.960198400893
1.212,-0.4667156520257623,5901.462502254874
1.216,-0.39942912021615823,5889.287870944815
1.22,-0.3278884261013983,5901.867589983588
1.224,-0.2684016156652694,5896.029393054992
1.228,-0.22932286541521757,5907.015433861752
1.232,-0.2088694107137438,5893.81144040458
1.236,-0.19632604923097116,5899.098981173788
1.24,-0.17665799816145467,5890.377767850599
1.244,-0.1370897706069623,5905.120442680094
1.248,-0.07313215896459346,5897.528654495631
1.252,0.00842957599512531,5904.318902921231
1.256,0.09097710787786852,5903.25596389159
1.26,0.15363287232704873,5896.474094433629
1.264,0.17892719517089475,5901.743328171681
1.268,0.1594549950210602,5899.688932315524
1.272,0.100748994748576,5900.777344594546
1.276,0.01931030850105218,5905.723540439362
1.28,-0.06311155720076228,5898.036121841006
1.284,-0.12648257310267919,5904.590129099282
1.288,-0.15808179425101912,5901.120907724211
1.292,-0.15510239943149878,5901.531228754431
1.296,-0.12398741719086868,5902.916086146363
1.3,-0.0772859005276264,5900.087467606417
1.304,-0.029303624148326234,5905.12061613322
1.308,0.00808834121215651,5897.792359386544
1.312,0.0282741624110678,5894.757516989407
1.316,0.03058979562355466,5906.854859798999
1.32,0.01892451460177217,5897.179169261915
1.324,-0.0009746306119574465,5896.666784142223
1.328,-0.024378814644213383,5901.281344835566
1.332,-0.04967985793901087,5897.358391520117
1.336,-0.07907897099188475,5903.913326740388
1.34,-0.11756275864326185,5899.814870833615
1.344,-0.17041472622914802,5902.818885870418
1.348,-0.24018194536475862,5906.93897984766
1.352,-0.32432491116425494,5898.176840008877
1.356,-0.41448262651836026,5894.929527877941
1.36,-0.49766041001057276,5910.477480471277
1.364,-0.5589924713208714,5905.124695373566
1.368,-0.5852046660416966,5891.259404278175
1.372,-0.567759989520651,5901.658184542312
1.376,-0.505005671299697,5903.473150589392
1.38,-0.40309939372651354,5896.928664557559
1.384,-0.27567237011091006,5898.531104493857
1.388,-0.14211004140023625,5893.7708450491855
1.392,-0.024332509347662207,5900.257203885369
1.396,0.05766336073088984,5900.430072468944
1.4,0.09051364858019029,5907.8547239727295
1.404,0.07089061039163365,5898.624383042764
1.408,0.006255084779238847,5899.556254404174
1.412,-0.08728833077583856,5894.046473463709
1.416,-0.1890423385155779,5895.364091591445
1.42,-0.27827673344132986,5901.78812478872
1.424,-0.3384211165630776,5892.840707794484
1.428,-0.3605349957040915,5911.652878602632
1.432,-0.3455363913065449,5896.890050028615
1.436,-0.3043353487657336,5891.951565552303
1.44,-0.2553342812357911,5897.489328534597
1.444,-0.219609977242046,5893.298939357601
1.448,-0.21486770788051068,5893.214461359304
1.452,-0.24981007552019324,5906.421729312943
1.456,-0.32082115629377883,5900.283609572586
1.46,-0.41233071526845894,5890.992182297424
1.464,-0.5008188650845965,5906.217686204423
1.468,-0.5610355315169674,5894.789823781764
1.472,-0.572495995144906,5896.89608569424
1.476,-0.524632874986437,5904.9948355004
1.48,-0.41956479071211505,5894.828212412402
1.484,-0.27190994683873193,5902.805444282216
1.488,-0.1055471070300124,5896.42539492099
1.492,0.0520484549546447,5894.255637052263
1.496,0.1764741335180693,5904.819150276882
1.5,0.2522483960557481,5904.029348794033
1.504,0.27615891301633094,5898.152213664775
1.508,0.2570600803574363,5900.132908612311
1.512,0.212158419104199,5898.436308283271
1.516,0.16109293625638088,5893.526353828501
1.52,0.11985679553680285,5898.54117662868
1.524,0.0964183088885074,5903.827806290166
1.528,0.08914331972108222,5902.072499748173
1.532,0.08823219036132691,5891.417689233796
1.536,0.0795002441427961,5888.556513151112
1.54,0.04918990956960375,5904.791365304098
1.544,-0.011641476631584049,5894.681975399876
1.548,-0.10431428155844405,5903.005973014199
1.552,-0.22186278107988786,5899.465854094432
1.556,-0.3503633672337131,5904.369339002909
1.56,-0.4715917331908694,5897.1524650533
1.564,-0.5662659026274875,5894.989408078763
1.568,-0.6173369060292264,5903.943336347145
1.572,-0.6129736730660499,5909.251448199832
1.576,-0.5489686848590425,5907.197836713503
1.58,-0.4303386164625607,5909.428990472576
1.584,-0.2718057301440265,5897.260226444013
1.588,-0.09658627265229976,5898.675558887037
1.592,0.06705545734780917,5901.725445836571
1.596,0.19129810936981775,5894.367210813847
1.6,0.2550498643852371,5899.216820734894
1.604,0.24911884378164392,5906.275401989762
1.608,0.17848322434045147,5904.670885342609
1.612,0.06079053458689187,5903.841928201287
1.616,-0.07841769827921803,5906.83245500271
1.62,-0.2120914715849635,5902.58895371156
1.624,-0.3176456141632152,5891.743660027766
1.628,-0.3809992742275552,5893.8456703723605
1.632,-0.3980210778118847,5899.681300741804
1.636,-0.3735154960964225,5902.447545913966
1.64,-0.3185383170898789,5890.724374815018
1.644,-0.24720359589874485,5898.837183257844
1.648,-0.17394892177617013,5896.820403989702
1.652,-0.11152114260382565,5895.979441474085
1.656,-0.0693221305466841,5886.00220951066
1.66,-0.051785236397437394,5897.256040107461
1.664,-0.05709054826890728,5892.164744420255
1.668,-0.07712671574716931,5893.041787374607
1.672,-0.09953619943516719,5903.696552817586
1.676,-0.11183716498724737,5908.571952784243
1.68,-0.10641587553546351,5900.327062182613
1.684,-0.0843425738637576,5908.069177607942
1.688,-0.056147885240129855,5898.633270680077
1.692,-0.03891246865364362,5897.475135398558
1.696,-0.05052520382146665,5902.261734316288
1.7,-0.1030355619939474,5898.488053651441
1.704,-0.19740799675793114,5911.035310076685
1.708,-0.3215983730045504,5898.70803492627
1.712,-0.4527712896827715,5902.227838909239
1.716,-0.563093784973082,5900.839093450844
1.72,-0.6274152366132221,5898.054964128867
1.724,-0.6304733582652562,5895.224276320012
1.728,-0.5711384253397248,5901.114846297403
1.732,-0.46197556255089395,5890.007155732577
1.736,-0.3241946350646985,5892.145896704381
1.74,-0.18015942459297926,5907.872747097641
1.744,-0.04684546059072112,5903.878929857835
1.748,0.06691034737126726,5898.45739058723
1.752,0.15872974015217844,5899.361409114396
1.756,0.22845270979124968,5897.8927560711145
1.76,0.27427634650161686,5899.788533120492
1.764,0.2912850497970587,5903.503676870756
1.768,0.27248084639205145,5906.018096475351
1.772,0.21100233436507224,5906.503114887139
1.776,0.10213369088055493,5898.971501360248
1.78,-0.05515568976968364,5902.921557451408
1.784,-0.2561585783163089,5902.3404937671685
1.788,-0.48688019367685026,5909.251447053203
1.792,-0.7194000042280374,5901.810595461434
1.796,-0.908184536988479,5900.759262378341
