时间(s),电压(V),幅值(高频80K)
0.0,-2.3692038278551038,5889.5876894007615
0.004,-1.7135692801666984,5900.596145089414
0.008,-1.1191923672157704,5902.196977289336
0.012,-0.6312444289539192,5892.560030781836
0.016,-0.2756525192418059,5909.563524706871
0.02,-0.0560663177519791,5903.237828734033
0.024,0.04494726159299394,5903.415416657831
0.028,0.06150347622098302,5897.601415990086
0.032,0.037357263579634405,5903.011301759443
0.036,0.016833469114348843,5890.73099493634
0.04,0.03521081244750546,5906.679246555727
0.044,0.11087146069705338,5903.045168162341
0.048,0.2414142684238756,5896.276426422207
0.052,0.40478530646939603,5894.526677609521
0.056,0.5650923526922761,5898.914718294132
0.06,0.681875746753242,5911.102930552126
0.064,0.7210199808418809,5897.029885471141
0.068,0.6647028356403069,5897.882539654255
0.072,0.5172381991199272,5902.357565711652
0.076,0.3045226933398133,5906.336311829505
0.08,0.06718678051868464,5897.09620188718
0.084,-0.14999050005368733,5910.430463302341
0.088,-0.30886456405532275,5899.442386844135
0.092,-0.386017418334729,5903.667283797629
0.096,-0.3766653615355467,5896.107459009312
0.1,-0.2942100297103696,5900.521417792141
0.104,-0.16615826036490539,5895.535910219181
0.108,-0.027618679567903925,5903.409867688067
0.112,0.08617696419424656,5904.97442703963
0.116,0.1468314750515456,5902.315961143472
0.12,0.13798273139175443,5898.368169599389
0.124,0.05800617194382213,5898.116703257326
0.128,-0.08006694795743811,5898.029111709016
0.132,-0.2513008078189831,5894.153743624312
0.136,-0.4236182220228836,5895.4063634973
0.14,-0.563422575893237,5900.359426070585
0.144,-0.6410428001440763,5892.954572901257
0.148,-0.635737306924549,5895.525509098075
0.152,-0.5403826274916296,5897.551455780384
0.156,-0.3650425038964835,5896.3522650391415
0.16,-0.13725750816807056,5906.600989494567
0.164,0.10282725669523923,5902.034676758473
0.168,0.3119493016661096,5905.8669717285175
0.172,0.4546153182627814,5895.333110314688
0.176,0.5114378634467303,5900.7768930660895
0.18,0.4824115365036543,5899.660587712858
0.184,0.38482863375390336,5902.323186018365
0.188,0.24718534727944813,5896.075643059107
0.192,0.10115502982637226,5895.74778496883
0.196,-0.02620562347276994,5905.381666996508
0.2,-0.11811450491647531,5900.7114007178325
0.204,-0.17029983669342236,5898.599866098338
0.208,-0.18946362455663673,5900.347685602801
0.212,-0.18859204520270992,5897.726525212726
0.216,-0.18057407889454632,5902.721612662297
0.22,-0.1722990553610258,5892.879402548578
0.224,-0.16159804214032206,5902.483001188968
0.228,-0.13854424674319885,5900.809328829168
0.232,-0.09086262685221105,5900.780698152016
0.236,-0.011293984488347363,5897.070349765475
0.24,0.09633882011982257,5896.719896579643
0.244,0.21511721072060505,5897.539131554075
0.248,0.31787002242198165,5898.393558816118
0.252,0.37369260288825745,5899.463953026453
0.256,0.3561701231608921,5899.52873023344
0.26,0.2513925577707831,5898.541170829494
0.264,0.06380233165206017,5905.092200965069
0.268,-0.18221753942229538,5897.128461580083
0.272,-0.4464818669946423,5906.546071052669
0.276,-0.6825080523175044,5899.561367066643
0.28,-0.8496898332775461,5901.473544947951
0.284,-0.9240399706306363,5896.569835011199
0.288,-0.9038627746829783,5897.846768567333
0.292,-0.8086836378846879,5897.602963437502
0.296,-0.6722129099841035,5895.380615013931
0.3,-0.5321282376482117,5897.867425455551
0.304,-0.4202136256533219,5901.455008156819
0.308,-0.3555942184476316,5910.987221724236
0.312,-0.34221993316659777,5902.027501924853
0.316,-0.3704166341854138,5904.913053967614
0.32,-0.4214673852388521,5905.394321763876
0.324,-0.47362433888673244,5906.847593412169
0.328,-0.5077788897568677,5897.479912217064
0.332,-0.5113685098400944,5899.20471163474
0.336,-0.4798491032717427,5899.062082683023
0.34,-0.41594672789704784,5906.910529837846
0.344,-0.32763322202599904,5903.71239157364
0.348,-0.22601643092269413,5906.218326260717
0.352,-0.12384222711288924,5902.200577247467
0.356,-0.03434970278750217,5901.910801750139
0.36,0.030302228378505547,5904.234571769644
0.364,0.06132802821008442,5901.392214352928
0.368,0.055603383966305854,5903.952210473001
0.372,0.01664888902753038,5896.492060046103
0.376,-0.046628948170441595,5903.196122394625
0.38,-0.12325811990410622,5903.342100424834
0.384,-0.20413377656072915,5902.75553104321
0.388,-0.2845141483280768,5898.111003286276
0.392,-0.3636519342034171,5905.966208905963
0.396,-0.44175120690675196,5904.564990265444
0.4,-0.5160991243818885,5901.092113105594
0.404,-0.5788321112062735,5910.887586564291
0.408,-0.6178785559484388,5895.573928467287
0.412,-0.6207962305074004,5892.752227293767
0.416,-0.5797504200979784,5909.86516131819
0.42,-0.4954752625221417,5896.964022609938
0.424,-0.3785962317850057,5898.741448366677
0.428,-0.2478337265434763,5903.10552063397
0.432,-0.12591183875877077,5892.025201570432
0.436,-0.0347225756473587,5894.853887153937
0.44,0.008969188062525254,5906.913728228097
0.444,-0.003192875196476278,5904.90281676119
0.448,-0.06885383300481716,5902.110188478186
0.452,-0.1738871427958268,5907.97280117189
0.456,-0.2935775501329109,5902.9380648838405
0.46,-0.3971439335963483,5898.616119056082
0.464,-0.45550191665747625,5899.56377620163
0.468,-0.4502825607266039,5902.7995281882495
0.472,-0.3808222255866811,5898.276016649703
0.476,-0.2660533974331183,5895.949927563346
0.48,-0.1400520277259078,5895.447176159123
0.484,-0.04254264672517517,5903.085403767819
0.488,-0.0075413506276745,5895.886469351055
0.492,-0.0536730521692248,5895.565372142006
0.496,-0.17870537967640435,5910.159900358184
0.5,-0.35931675306513217,5907.752569517685
0.504,-0.555875573778484,5907.821464181428
0.508,-0.7213195443362322,5903.963119630708
0.512,-0.8126453809527246,5898.132244181438
0.516,-0.8025176029902674,5893.622779720795
0.52,-0.6874764461423132,5892.855769417121
0.524,-0.48948197573947233,5905.016970131402
0.528,-0.24978224681765707,5896.670073489157
0.532,-0.01723865333903332,5901.552828624054
0.536,0.16472269248903218,5898.927972413074
0.54,0.2684280531382343,5907.122495329043
0.544,0.2869988781929311,5901.950822059812
0.548,0.2334879875663775,5898.675656805156
0.552,0.1350597449966954,5908.1801811060495
0.556,0.024304315286010555,5895.475877230577
0.56,-0.06959252033903005,5906.933575761926
0.5640000000000001,-0.12730758641108342,5892.941357740108
0.5680000000000001,-0.14209819711944732,5902.013157543974
0.5720000000000001,-0.11880855486697277,5899.913591175166
0.5760000000000001,-0.0700753121137082,5895.202185356588
0.58,-0.011180945962109603,5899.1792134197685
0.584,0.044502907095771094,5905.087202484533
0.588,0.08776030596488955,5901.856383603727
0.592,0.11319318430874016,5901.010302731125
0.596,0.11767134703920143,5898.468756160629
0.6,0.0992613154665937,5896.817442946233
0.604,0.0572713010337927,5900.470107284322
0.608,-0.007085096641124078,5895.758448924177
0.612,-0.09016461282772949,5897.000093903132
0.616,-0.18586158694054633,5897.180503105988
0.62,-0.2860044057845998,5900.216250006412
0.624,-0.3810139564808849,5902.368433258409
0.628,-0.46077941015838314,5907.549626983076
0.632,-0.5157949421491096,5890.4934164776905
0.636,-0.5384992167215675,5904.561046115668
0.64,-0.5245773778335797,5904.401462919599
0.644,-0.47389551791928725,5894.077032404962
0.648,-0.39080382604658165,5904.577281014973
0.652,-0.2837654695464475,5901.776499976733
0.656,-0.16450702195690994,5900.402879396486
0.66,-0.04689050310230913,5906.711550727587
0.664,0.054537695896014364,5899.984733381003
0.668,0.12653173923008693,5903.738762374913
0.672,0.15967951531977603,5902.873971574482
0.676,0.15097519770188675,5887.415286152717
0.68,0.10540990885689829,5904.2579008578905
0.684,0.03554024535023219,5901.437860926273
0.6880000000000001,-0.0413245576688799,5892.637013768923
0.6920000000000001,-0.10766757562069418,5904.917029019117
0.6960000000000001,-0.1506500066190656,5903.584748793534
0.7000000000000001,-0.16576021520496179,5892.897880476981
0.704,-0.15801118049580704,5902.081435657973
0.708,-0.14030419672086084,5906.7695934549365
0.712,-0.12958022361062754,5907.692584217403
0.716,-0.14196736130683466,5894.562720537071
0.72,-0.188053761594626,5901.134208165423
0.724,-0.2691681328101656,5900.27754824914
0.728,-0.3756178679748666,5902.273369676723
0.732,-0.48790440129764684,5907.575667430428
0.736,-0.5813323150767461,5902.723346983841
0.74,-0.6330291089119522,5898.826014360287
0.744,-0.6289526996281719,5912.392095087824
0.748,-0.5681343012574345,5900.899628717978
0.752,-0.4626888399102035,5901.6123877344
0.756,-0.3342057568994129,5914.399066922573
0.76,-0.2084707554425077,5906.967575456833
0.764,-0.11026659372736168,5904.161894088803
0.768,-0.058941961513834684,5896.595442808951
0.772,-0.06478386043731534,5896.415844792422
0.776,-0.12644311823907853,5892.709115469064
0.78,-0.230178674975508,5886.348002796518
0.784,-0.3517423709170234,5902.173044179696
0.788,-0.46111517035626626,5899.324692880878
0.792,-0.5293594585923853,5892.82542915206
0.796,-0.5359556023319044,5900.136555275681
0.8,-0.4744483292872011,5897.873943586993
0.804,-0.3544634895008431,5903.843031055895
0.808,-0.19939759759320008,5900.646711914146
0.812,-0.040737504541522467,5899.711730643804
0.8160000000000001,0.08902669091447014,5894.09446334492
0.8200000000000001,0.16296151806367504,5902.59617563283
0.8240000000000001,0.1643894137310825,5899.497474136425
0.8280000000000001,0.08913325964914019,5897.789516729206
0.8320000000000001,-0.0545585551057816,5903.09935750978
0.836,-0.24783424121846204,5901.188764931821
0.84,-0.4642934469707171,5912.4136994679775
0.844,-0.6739640588847476,5895.401179498368
0.848,-0.8477887343879513,5899.989239404325
0.852,-0.9619226860798441,5905.499383165944
0.856,-1.0010798498917926,5908.004432420801
0.86,-0.9604393549565677,5905.418850788369
0.864,-0.8460618971963014,5908.32702765889
0.868,-0.6740731346775621,5901.325377640062
0.872,-0.4688228258712155,5900.013333338178
0.876,-0.25996178099102885,5901.718374566594
0.88,-0.07831645384995789,5905.111552742488
0.884,0.049189236133082195,5892.02173302293
0.888,0.10467740728083051,5900.1936655646505
0.892,0.08315336853483682,5890.859590283452
0.896,-0.006198982733052533,5905.582787340861
0.9,-0.14172669888679365,5899.547991947303
0.904,-0.29368214506723267,5905.998489643731
0.908,-0.43046514251382917,5886.200968380248
0.912,-0.5255444962859422,5905.650661381552
0.916,-0.5634559553869262,5897.050582792143
0.92,-0.5432332229297449,5904.5363455337465
0.924,-0.4781138343790642,5900.657538932754
0.928,-0.39123745743998994,5893.255370799963
0.932,-0.30832117637126144,5899.975178756868
0.936,-0.24968129378972032,5909.331034663139
0.94,-0.22458002847867115,5902.460073586131
0.944,-0.23001471018023814,5898.635033091117
0.948,-0.254124180052889,5902.059275087688
0.952,-0.2824995031021726,5902.140230585828
0.956,-0.3047455721175789,5900.915177657755
0.96,-0.318779068116921,5898.3359453599305
0.964,-0.33122539275883967,5896.006344805547
0.968,-0.35363754025305544,5902.804593419385
0.972,-0.3959457439570919,5900.280892721206
0.976,-0.4600055080148929,5897.788586896653
0.98,-0.5364376622834113,5902.3043655462925
0.984,-0.6066394966113495,5893.26085416339
0.988,-0.6493368468247156,5902.705365703825
0.992,-0.6486960161085235,5906.714029574805
0.996,-0.600336537305884,5898.245814899709
1.0,-0.5129849659056364,5902.055225320535
1.004,-0.40581908278912815,5895.668899186518
1.008,-0.3031659005935081,5899.359436077498
1.012,-0.22845744386163344,5897.469256816783
1.016,-0.19871150051662054,5900.712281403073
1.02,-0.2202564963813765,5894.982958599686
1.024,-0.2864509781419472,5902.00088034019
1.028,-0.37835258210086664,5901.790225996275
1.032,-0.46890954863335926,5894.339931747227
1.036,-0.53004249458018,5902.329269112022
1.04,-0.5405405572424432,5890.697301209939
1.044,-0.49205896921740644,5906.4303202209785
1.048,-0.39129035672026347,5896.107179825548
1.052,-0.25797147099939166,5892.286535706325
1.056,-0.11957285205742951,5902.707734658917
1.06,-0.004032006533170602,5900.599922322579
1.064,0.0676699759723564,5901.107502805441
1.068,0.08691543765621071,5897.191853135078
1.072,0.05909185552088627,5903.012684015965
1.076,0.00108858663228898,5892.06111815273
1.08,-0.06424947329256266,5896.996131686325
1.084,-0.11481075478071598,5902.534364185846
1.088,-0.1351579646225654,5909.803780447787
1.092,-0.12040489701594388,5897.369641833897
1.096,-0.07743137694669454,5902.732487914481
1.1,-0.023273040696795404,5897.200282191407
1.104,0.01923264793413751,5910.927506214508
1.108,0.027922417296657703,5900.881357270899
1.112,-0.011540380666897143,5904.145242338729
1.116,-0.0998389922199881,5902.919650154064
1.12,-0.2214605578418035,5898.600414962046
1.124,-0.346752899003391,5902.967490002889
1.128,-0.43872233224597085,5902.194462895764
1.132,-0.4632535421637575,5902.088575200567
1.136,-0.4000810425282463,5899.356073791804
1.14,-0.2509786867621552,5900.27661843251
1.144,-0.04179351081401933,5896.339146953567
1.148,0.1833473103931356,5898.410151068016
1.152,0.37437588338213956,5903.310261805275
1.156,0.48999905823388773,5897.000538916039
1.16,0.5093333297779247,5902.138864945394
1.164,0.4362132376759814,5894.866018765931
1.168,0.2952568678312181,5905.023595199467
1.172,0.12242067780482564,5895.935753591794
1.176,-0.045450859493330796,5898.65082327719
1.18,-0.17851442650777008,5896.17696880067
1.184,-0.2581580042862079,5907.919294674427
1.188,-0.2784574884648298,5907.01805438964
1.192,-0.24609583786674424,5905.20303425245
1.196,-0.17905569825948442,5897.70925700754
1.2,-0.10344857099942187,5899.644265855796
1.204,-0.04790978759325731,5901.917666652582
1.208,-0.03615455423119186,5895.448237776808
1.212,-0.07977763161181319,5902.258281830968
1.216,-0.17409452624002614,5905.415199027523
1.22,-0.29900299451206214,5900.8525022570575
1.224,-0.4247418296557109,5897.023674714046
1.228,-0.5203483471514717,5893.438546203946
1.232,-0.5618568674496417,5893.906264352155
1.236,-0.5380054953524361,5901.389717600047
1.24,-0.4525340096686172,5902.499011142387
1.244,-0.32309734484975794,5897.010078128539
1.248,-0.17724950751265237,5897.663555618718
1.252,-0.046369297445888795,5897.245532349464
1.256,0.04109658538555521,5900.56125133885
1.26,0.06556944736632325,5903.402678221426
1.264,0.0203114464816786,5895.209981967917
1.268,-0.0872724705172175,5905.256994429352
1.272,-0.23734631003192455,5902.780158929551
1.276,-0.40212018660644033,5896.320103926265
1.28,-0.5519791862882348,5894.419189900504
1.284,-0.6614800079529952,5903.542502272333
1.288,-0.7135083370813994,5914.762838919858
1.292,-0.700821277620815,5894.062951193261
1.296,-0.6254412474665749,5902.589063204502
1.3,-0.4970915576645032,5894.471859789908
1.304,-0.33163832627749695,5903.231965291009
1.308,-0.14962926210390834,5901.377232058681
1.312,0.02569706907425289,5897.412172742681
1.316,0.17148429654112418,5904.028044176817
1.32,0.26920632768593233,5896.296881468384
1.324,0.30846009290274323,5898.572936577608
1.328,0.2892666629235973,5896.845913120955
1.332,0.22197348603702205,5901.264237761334
1.336,0.12472822275430069,5906.574086496509
1.34,0.019283753871646752,5902.228071532147
1.344,-0.07368908910388669,5901.405179821847
1.348,-0.1386232867307561,5895.68388370499
1.352,-0.16779160592117176,5899.64948678322
1.356,-0.16290548083114456,5897.382785719723
1.36,-0.13593310836149197,5907.747923648588
1.364,-0.10881850652992787,5896.083697470114
1.368,-0.11100077037443956,5899.26326886467
1.372,-0.17372415120776816,5887.589488140839
1.376,-0.32120851368365466,5905.326600132519
1.38,-0.5601488398745507,5908.150346838088
1.384,-0.8700836464616493,5904.13619059449
1.388,-1.1977131036758195,5908.582888820667
1.392,-1.4582105223685116,5901.893156577158
1.396,-1.545703697004708,5901.159130839256
1.4,-1.353136456328655,5898.003601564894
1.404,-0.7987194251811048,5897.607444054991
1.408,0.14728350763363882,5895.216964776554
1.412,1.4442251893820368,5901.520120985425
1.416,2.9795625025762216,5908.838452100363
1.42,4.587830979477016,5898.8492476614565
1.424,6.085986508441404,5899.486549076145
1.428,7.313905577962825,5901.063782424705
1.432,8.16671893254679,5906.218103986888
1.436,8.609787196649046,5905.918473868837
1.44,8.674584379268557,5894.114216249777
1.444,8.440187348857346,5901.082820711475
1.448,8.008117657489885,5902.12939831351
1.452,7.478181382390862,5900.4720588118535
1.456,6.93096408560691,5899.076047469077
1.46,6.419667581084399,5900.647304153916
1.464,5.970704931548925,5890.722724977703
1.468,5.590032887228227,5907.762778193868
1.472,5.271561595064611,5901.426762252459
1.476,5.004796744768876,5885.046242909851
1.48,4.78001537412415,5902.502004881424
1.484,4.590329390209173,5908.604182921287
1.488,4.431180673807791,5902.447706927493
1.492,4.298810313998812,5893.971126618796
1.496,4.189244362970537,5897.013917910642
1.5,4.098328578529463,5908.5580558673855
1.504,4.022264858235207,5899.247510585505
1.508,3.957699298855224,5895.160108500354
1.512,3.9007575297169317,5895.631638501857
1.516,3.84532911919621,5905.452497482341
1.52,3.7818646592432947,5897.378513882725
1.524,3.6980412585015268,5892.888404584603
1.528,3.5815399833052086,5899.013356967075
1.532,3.42385574215909,5897.294759489555
1.536,3.2236912365882064,5899.815987991458
1.54,2.988967232188455,5898.423193559967
1.544,2.736876924776431,5897.926987444585
1.548,2.49144477740427,5899.686453134103
1.552,2.2783876887917742,5903.599471089114
1.556,2.118163561099247,5899.525894045125
1.56,2.0194053821732254,5894.737959878811
1.564,1.9755137146353994,5895.440245625796
1.568,1.9663066437175027,5903.186376124536
1.572,1.9643725744830645,5894.553659386952
1.576,1.9434381893451202,5899.931172491564
1.58,1.885366369724794,5896.899269880777
1.584,1.7836854771573318,5904.012139840815
1.588,1.6435011127049493,5904.576661762278
1.592,1.4788348639842621,5897.277967726933
1.596,1.308625980736646,5896.777284421032
1.6,1.152423200581935,5911.552049826099
1.604,1.0266056961921843,5902.37452077924
1.608,0.9417416095900958,5902.35732040383
1.612,0.9013363676338424,5901.76468577856
1.616,0.9018706831261385,5902.037026945222
1.62,0.9338140150418669,5896.023233344188
1.624,0.9832900197319617,5906.528755107553
1.628,1.034270871402432,5902.894646235348
1.632,1.0713180290895827,5886.420096945642
1.636,1.082596556645906,5906.229331007595
1.64,1.0623675313616976,5886.585179751073
1.644,1.0121028667928456,5892.523400515132
1.648,0.9399351677839961,5891.184150138773
1.652,0.8587094896979859,5885.096298442499
1.656,0.7830021563698337,5886.56685224269
1.66,0.7254691743325369,5890.442605751261
1.664,0.6932313241314759,5890.2547632991
1.668,0.6854792395459105,5883.681965319611
1.672,0.6934469061333387,5886.066634061939
1.676,0.7030873313025914,5878.525930744976
1.68,0.6996306439383191,5887.101051999675
1.684,0.672362911928693,5880.076958088414
1.688,0.6178074731958912,5879.404498805822
1.692,0.540143817792924,5883.308677739101
1.696,0.4489262032681873,5873.985217139789
1.7,0.355271965102552,5874.962668531538
1.704,0.2680973123029508,5874.663644472342
1.708,0.19170369493580225,5881.219582139953
1.712,0.1253843051665085,5873.652111147912
1.716,0.0649704936605512,5871.688893770109
1.72,0.005533118314640203,5873.499950194098
1.724,-0.05601209776133867,5881.395944464873
1.728,-0.11963338830332279,5879.5796845255845
1.732,-0.18285969305211444,5870.334313331859
1.736,-0.24299733590108957,5864.207341043778
1.74,-0.2996003121620518,5870.073428567178
1.744,-0.3556800790135943,5865.298539832753
1.748,-0.41671633214582465,5865.015835080167
1.752,-0.4876229358227428,5870.151406795598
1.756,-0.5688977540195863,5873.894640575323
1.76,-0.6537922442614453,5861.962360579893
1.764,-0.7281625038428754,5863.53955991318
1.768,-0.7735698755030815,5865.161696727038
1.772,-0.7726528385053485,5861.445169005736
1.776,-0.7147822252359144,5858.007366837795
1.78,-0.6000917240268283,5866.727309794722
1.784,-0.4407395383830857,5855.164651398285
1.788,-0.2589875257746978,5859.838590799996
1.792,-0.08227152162693616,5855.456494495198
1.796,0.06368842191255257,5866.449498329778
1.8,0.16161776049653873,5861.104728932374
1.804,0.2068536292321053,5867.47337607186
1.808,0.20762838355296523,5857.71801923384
