时间(s),电压(V),幅值(高频80K)
0.0,2.6723041629685,5893.937538631091
0.004,1.7631912631317486,5904.591197225509
0.008,0.955740077396575,5897.397476194239
0.012,0.33083164957530065,5885.192116056432
0.016,-0.06721715710766639,5910.897832159794
0.02,-0.2367816168309035,5907.102251039599
0.024,-0.215234887258421,5896.4565237769
0.028,-0.06728933227664816,5896.789834579091
0.032,0.1310270433599855,5898.284270871911
0.036,0.30886379532278196,5900.9652911816975
0.04,0.414320103893056,5897.22840176953
0.044,0.4231642151306611,5901.010134554044
0.048,0.3407763486887847,5902.7908220489935
0.052,0.19660789620061367,5898.179475010842
0.056,0.03264398141855755,5893.472001573427
0.06,-0.11011458419995442,5903.312268448249
0.064,-0.20231748234462604,5900.647886785553
0.068,-0.23106610988968557,5904.074970588345
0.072,-0.19895493886128698,5897.899182464193
0.076,-0.11961686593795837,5892.752440038442
0.08,-0.012258640112516293,5895.6993278963455
0.084,0.10317961449912928,5891.440815394298
0.088,0.20940160789515927,5902.492570866045
0.092,0.29340898311350305,5896.89950657327
0.096,0.3467875236326101,5900.488900040505
0.1,0.36547153006155825,5908.816466875476
0.104,0.3497619934353579,5897.043426847238
0.108,0.30461406594521595,5899.463435676301
0.112,0.23938691877471968,5897.099337202983
0.116,0.1663454069641776,5901.4709558925015
0.12,0.09822180477504308,5902.927460784056
0.124,0.04583641341613563,5902.233023030796
0.128,0.0163715273570945,5897.860792577522
0.132,0.012220497212885307,5897.65382266769
0.136,0.03043497182346013,5902.361379813715
0.14,0.06335277280033241,5901.527013541743
0.144,0.10088097761714726,5893.9260753926765
0.148,0.1338178352403779,5909.031932176925
0.152,0.15656063745538004,5900.138185042074
0.156,0.16778289038989053,5900.646778286589
0.16,0.16899864400367373,5896.916414291465
0.164,0.16199683560499717,5906.967056584661
0.168,0.14625958394805139,5901.419022529369
0.172,0.11734800485323309,5902.064142674279
0.176,0.06725634399430609,5907.316046617324
0.18,-0.012732226311401683,5902.876625989009
0.184,-0.127396755691919,5901.160009344209
0.188,-0.2730695356326253,5902.321340431974
0.192,-0.43555149677957,5895.6899843154015
0.196,-0.5919544799533208,5894.418704210185
0.2,-0.716260075020232,5902.046740359455
0.204,-0.7865560769211267,5904.730214144071
0.208,-0.7911452230565478,5898.868264642517
0.212,-0.7314567129608968,5902.874477774716
0.216,-0.6211712819719619,5900.990076410856
0.22,-0.48213444394516003,5899.793160543079
0.224,-0.33819532567788124,5907.84392588047
0.228,-0.2085814851194675,5897.899775398379
0.232,-0.10299721076004935,5892.041089117521
0.236,-0.02050171000107186,5900.247820528894
0.24,0.04730122788375626,5899.298082121878
0.244,0.11035195375134649,5893.936817738385
0.248,0.1742672791517756,5904.221369201284
0.252,0.2369223863794382,5899.909752873796
0.256,0.28857034563022965,5896.636643563026
0.26,0.31506515661887025,5907.66187194066
0.264,0.3025738290188383,5898.865624025634
0.268,0.24187199939490148,5898.447442055542
0.272,0.13104895966943667,5893.099632922569
0.276,-0.02356967325072102,5898.963609738178
0.28,-0.20805915926051424,5904.58385748642
0.284,-0.4028611634347973,5897.611433212531
0.288,-0.5857218924601938,5899.442251478506
0.292,-0.7351166696999809,5900.917928887628
0.296,-0.8338214990889271,5898.479167272108
0.3,-0.8723989422923937,5899.043471436144
0.304,-0.852007910334815,5900.783401298989
0.308,-0.7854208698031602,5897.4868392039325
0.312,-0.6951154197563418,5897.6208288223
0.316,-0.6080519078283002,5906.178762467364
0.32,-0.5480362087599974,5907.899179257435
0.324,-0.5279598839979638,5897.63061993367
0.328,-0.5450033726296191,5894.568170200959
0.332,-0.5812862057503292,5905.28095026698
0.336,-0.6102626100642121,5901.51935441474
0.34,-0.6063890145929942,5893.06428864123
0.344,-0.5540180428437306,5897.72296914031
0.348,-0.45222352308995495,5888.113934327452
0.352,-0.31462351565240393,5895.493759586159
0.356,-0.16534602871421017,5899.117244140558
0.36,-0.03293574965035734,5906.98038290227
0.364,0.056266656207905455,5895.637594196128
0.368,0.0839917024516505,5898.759520566353
0.372,0.04401990127779701,5890.142422954722
0.376,-0.05649541667039466,5903.252108519373
0.38,-0.1985918156101618,5895.891167962515
0.384,-0.35562442732643657,5891.692936079755
0.388,-0.49903103180098296,5900.310574580618
0.392,-0.6043032781462118,5899.827572418453
0.396,-0.6556584667169517,5908.97898249482
0.4,-0.648348707521958,5898.240990473329
0.404,-0.5882354319007567,5898.547228423918
0.408,-0.48897636475005063,5903.948094767518
0.412,-0.36783491387417916,5904.438858161366
0.416,-0.24150387206207646,5903.512155509305
0.42,-0.12319461709911181,5902.008052699877
0.424,-0.021641090069761518,5898.297910849568
0.428,0.058138551826268016,5905.498609114597
0.432,0.11320191235998929,5894.365151929567
0.436,0.14138479798984913,5902.350770184884
0.44,0.1413346808200388,5902.345757749323
0.444,0.11402381092514545,5901.828124144765
0.448,0.06471953688119832,5894.430788603339
0.452,0.0036604866886606937,5904.180056224551
0.456,-0.055841117419422916,5898.950586540732
0.46,-0.10160015366875967,5901.059736446089
0.464,-0.12719043988046203,5898.455500443898
0.468,-0.13460607611613196,5899.700173178942
0.472,-0.13346181187804584,5907.075801378088
0.476,-0.13694595048129732,5905.68150809116
0.48,-0.15615608699004185,5905.517733013197
0.484,-0.19495568782100978,5899.325367802884
0.488,-0.24720228465372904,5894.191754962569
0.492,-0.2974572043907475,5904.01286747841
0.496,-0.3251633926518147,5901.826155765893
0.5,-0.31093233156409955,5902.643542470391
0.504,-0.24270054577608932,5898.162259036562
0.508,-0.11965586408913229,5900.207373180478
0.512,0.047230701396628584,5900.435035280865
0.516,0.23800064186639147,5894.944804286311
0.52,0.42855282979104514,5906.750839538551
0.524,0.5955002588383165,5895.134521759135
0.528,0.7192776403918404,5895.588764288036
0.532,0.7850913038576673,5895.51310760572
0.536,0.7828455970541669,5896.74385329784
0.54,0.707747372168013,5888.661200500846
0.544,0.5623926337968893,5899.679635699598
0.548,0.35938146647962665,5899.374879565851
0.552,0.12226033148397278,5901.11084518476
0.556,-0.11710650677212528,5895.807173979101
0.56,-0.3250268129356097,5895.626300863714
0.5640000000000001,-0.4747694855777802,5899.070302048752
0.5680000000000001,-0.5547673798031744,5908.618014924639
0.5720000000000001,-0.572952304691265,5903.981532698455
0.5760000000000001,-0.5548877583012739,5897.204157166938
0.58,-0.5356161766208264,5892.237657284193
0.584,-0.5476793638687352,5896.917498928799
0.588,-0.6093607264657324,5898.342906386807
0.592,-0.7173164181225585,5894.956891419034
0.596,-0.846400864831607,5894.581436468567
0.6,-0.9568887724754747,5893.450890974795
0.604,-1.0064651257415143,5896.652645035695
0.608,-0.9628122181633453,5907.782813345455
0.612,-0.812960200263236,5911.700974427209
0.616,-0.5670563103842406,5906.483600943106
0.62,-0.2559776005877395,5905.410892658616
0.624,0.07603745454257095,5902.035096947853
0.628,0.3812038490748736,5903.5931631221365
0.632,0.6176746690992243,5902.139251461287
0.636,0.7568406649027712,5893.522369199554
0.64,0.7876736317392925,5896.920840507064
0.644,0.7178580442007707,5906.115906242719
0.648,0.5716538145206186,5898.813797426842
0.652,0.38468622928175494,5892.064478816553
0.656,0.19627106862725135,5901.080110651213
0.66,0.040622834852483726,5895.047093242415
0.664,-0.060824309599307846,5914.824578987407
0.668,-0.10356338024782905,5891.022688279449
0.672,-0.09918837447292209,5906.380266002887
0.676,-0.06981001787807974,5901.714737155101
0.68,-0.03956457514051583,5895.936977241984
0.684,-0.026219011020540167,5897.399541181605
0.6880000000000001,-0.035966455758513316,5905.95272274344
0.6920000000000001,-0.06315069903069673,5894.015186218211
0.6960000000000001,-0.09444921173987425,5898.991860646735
0.7000000000000001,-0.11526325827962197,5900.821122446609
0.704,-0.11554750919837055,5899.632534205854
0.708,-0.09302094410021533,5900.234998492683
0.712,-0.053099228265407174,5891.029717794001
0.716,-0.006253881739263108,5906.413480461943
0.72,0.035809579876585736,5891.995636206421
0.724,0.06390640561314104,5903.155449315162
0.728,0.07431283223548832,5897.612246489408
0.732,0.07036775113695064,5901.98053337932
0.736,0.06208679010595096,5909.300368751057
0.74,0.06329359925442406,5897.587956195563
0.744,0.0866665166573995,5898.790479227376
0.748,0.138207880499736,5892.232794221175
0.752,0.21304855549444096,5901.245993706448
0.756,0.29409118951499363,5899.32268708289
0.76,0.3543426219669395,5896.07467854938
0.764,0.3630139739965791,5893.679010823019
0.768,0.2942364173241222,5895.017759608708
0.772,0.13587068678744338,5902.927734376633
0.776,-0.10460162425619679,5896.345797186938
0.78,-0.3993202841061747,5904.307692277114
0.784,-0.7050827361455363,5902.5385369126925
0.788,-0.9730553328540436,5902.166497040883
0.792,-1.160412168416377,5896.672819747252
0.796,-1.2403493007172541,5898.562839274761
0.8,-1.2075489520824476,5894.59545363093
0.804,-1.0780392809892232,5895.850082730665
0.808,-0.884401503612738,5900.288003091488
0.812,-0.668208809896594,5890.629193787492
0.8160000000000001,-0.4714179231974456,5902.37631974737
0.8200000000000001,-0.328250108542323,5905.552972850279
0.8240000000000001,-0.25931246724585044,5893.843213378218
0.8280000000000001,-0.2694629012211958,5901.084575803797
0.8320000000000001,-0.3496165444448683,5896.820654776777
0.836,-0.48108709222471274,5893.992691734933
0.84,-0.6403843078615155,5902.209168465337
0.844,-0.8029591653357947,5905.008817139133
0.848,-0.945489367562057,5902.071991022839
0.852,-1.047240286830917,5901.8576730987415
0.856,-1.0915964756307701,5892.861126417594
0.86,-1.0687141348601281,5902.12289277618
0.864,-0.9790678768578961,5898.952599420044
0.868,-0.8361139045542602,5901.067310071719
0.872,-0.6658663813560779,5894.5747932834265
0.876,-0.5025656453936418,5898.996164141065
0.88,-0.38172670206487114,5895.141296295846
0.884,-0.3329353140405788,5912.257986813637
0.888,-0.3741687927684286,5895.806966596622
0.892,-0.5081350434585545,5903.740403455452
0.896,-0.7204936894861305,5908.343008096169
0.9,-0.9801853780939768,5900.236585531978
0.904,-1.242688715477332,5906.497967913942
0.908,-1.456857944865756,5901.701519365884
0.912,-1.5747988157724089,5903.359084250244
0.916,-1.5627196560633119,5898.134003022451
0.92,-1.4097772038621232,5904.393393750689
0.924,-1.1321173128112212,5898.60690623124
0.928,-0.7706607451172471,5905.452045651748
0.932,-0.38317388292967625,5901.623291068036
0.936,-0.03270787395261966,5902.438267821181
0.94,0.2250007717991793,5902.146094502648
0.944,0.35261034401494973,5890.146041252693
0.948,0.33825386620241216,5904.980323181557
0.952,0.19671020677465714,5900.242728333191
0.956,-0.03560659811453436,5900.049794465977
0.96,-0.3100228745960022,5899.422481365032
0.964,-0.57632902167915,5897.821556263277
0.968,-0.7920683086999573,5910.338131138961
0.972,-0.928639801467624,5902.435219853213
0.976,-0.9735277551510828,5894.108633853844
0.98,-0.9289206693861262,5903.216179838071
0.984,-0.8079280744246636,5894.153257605354
0.988,-0.6302781860236275,5907.567689116113
0.992,-0.4192180767415264,5896.313345325832
0.996,-0.20010867384874184,5900.363147408496
1.0,0.00041392935804805177,5901.475168691081
1.004,0.15650725286392708,5904.088787045713
1.008,0.24721251386498758,5899.103223179471
1.012,0.26149715800305334,5901.641562694871
1.016,0.20197127804316212,5904.310360577917
1.02,0.08522253921889764,5905.160198901113
1.024,-0.06187449298222592,5901.331765764329
1.028,-0.2087604948304277,5898.760479966811
1.032,-0.3284832253545143,5900.089662621009
1.036,-0.40352689577410394,5900.293561874217
1.04,-0.4288321629715092,5902.873135752795
1.044,-0.41141649447671746,5896.877139100896
1.048,-0.3667482216865054,5910.612811616291
1.052,-0.3132275015819125,5898.567244675636
1.056,-0.26714891795400636,5907.87820416645
1.06,-0.24001618231363803,5902.967881974001
1.064,-0.23819489999178894,5891.610275759019
1.068,-0.2634429436845355,5892.375612045081
1.072,-0.3130519093386934,5910.148731759981
1.076,-0.37959603010907256,5901.401527857824
1.08,-0.4512958900905757,5888.784974945848
1.084,-0.5139327959832085,5904.825388408191
1.088,-0.554246168210634,5898.659927426183
1.092,-0.5636797444556035,5895.75388701038
1.096,-0.5409616629466104,5900.818390641601
1.1,-0.4924322852207276,5901.179161410613
1.104,-0.4299633080685489,5906.399276444256
1.108,-0.3672619633927783,5899.055300572208
1.112,-0.3159077190443546,5906.517892379987
1.116,-0.28252983060000414,5904.826709010265
1.12,-0.26814029938732076,5886.183546056808
1.124,-0.2697305736908243,5898.8421494349
1.128,-0.2830816544344024,5901.822257018212
1.132,-0.305079526860696,5899.791740398952
1.136,-0.3342077094179264,5901.678095929511
1.14,-0.3690989523705002,5904.892839116782
1.144,-0.4063231001418472,5899.78959256398
1.148,-0.4391481379094125,5899.271932680736
1.152,-0.45848050838211607,5897.467772861626
1.156,-0.4559556913824058,5897.857383677351
1.16,-0.4279882374300594,5898.933332536755
1.164,-0.3790493308302673,5899.212392179602
1.168,-0.32254570259391174,5904.041710823925
1.172,-0.27823751726317497,5900.74333632239
1.176,-0.2662403095069791,5892.641434878079
1.18,-0.29938720210473146,5892.998097392792
1.184,-0.3772713200074112,5898.021126030752
1.188,-0.48517298192412833,5903.718529915122
1.192,-0.5988549296539523,5894.900275410856
1.196,-0.6932475649356271,5902.142681573535
1.2,-0.751187067626159,5896.272064808307
1.204,-0.7684510346687571,5908.868053212076
1.208,-0.7531058637684943,5900.193174706119
1.212,-0.7197475782550782,5902.668863538665
1.216,-0.6814389710949618,5903.902309732813
1.22,-0.6431027292966182,5898.154021566285
1.224,-0.5993935905364769,5894.837207733145
1.228,-0.5378655524929984,5899.602662018942
1.232,-0.4456818601162769,5895.671563932994
1.236,-0.3166236143053688,5901.0119516246505
1.24,-0.1553738342683911,5898.857353059273
1.244,0.02244748555026916,5898.067481845252
1.248,0.19416627255679533,5892.0110846751495
1.252,0.33613700852263045,5899.5762237888575
1.256,0.429831892061246,5897.448162366099
1.26,0.4662044710217341,5902.629257253779
1.264,0.44757332669119043,5897.460171602227
1.268,0.3871083619584512,5900.29616841165
1.272,0.3063766856155573,5900.738133874695
1.276,0.23143952790881928,5902.838962583913
1.28,0.18790743283765218,5905.79844474852
1.284,0.19547226231852943,5894.602922066006
1.288,0.2629233577111076,5901.117249577124
1.292,0.3850518468153132,5901.11449949929
1.296,0.5425507005361181,5891.839269676736
1.3,0.7052034162312026,5899.788071326635
1.304,0.8378363856717431,5891.931255721815
1.308,0.9077878788257501,5898.509414337497
1.312,0.8920713543685399,5899.326029308306
1.316,0.7823532872781237,5895.865784007004
1.32,0.5864959447050542,5902.928111049283
1.324,0.326391059280724,5903.034852735797
1.328,0.03271978116013535,5904.49755832403
1.332,-0.2620108383959816,5895.879183506554
1.336,-0.5302848459217566,5896.096713079738
1.34,-0.7542173868358718,5903.7032338250765
1.344,-0.9265906733123704,5895.678768575352
1.348,-1.0483762112480506,5896.403320643392
1.352,-1.1244770230098886,5896.271960736866
1.356,-1.1599383911858179,5894.067603942132
1.36,-1.1579769030916887,5902.405556283321
1.364,-1.119903663220905,5900.748770903054
1.368,-1.0463945197154012,5894.999815835491
1.372,-0.9394766370874379,5902.706150055676
1.376,-0.804450257616921,5890.109944602604
1.38,-0.6508016592917479,5901.88861500685
1.384,-0.4914206289776239,5909.771338725584
1.388,-0.34005739024810233,5907.317917342147
1.392,-0.20763866672351333,5899.401067760621
1.396,-0.09875756451791716,5909.151513209144
1.4,-0.010130600798005502,5891.778986094129
1.404,0.06756989572602863,5904.7670790390775
1.408,0.14462579323939784,5908.412905923805
1.412,0.22598133123097328,5910.60828102392
1.416,0.30685573402366706,5908.983838179339
1.42,0.37263375431422935,5905.013490181634
1.424,0.4032017472605102,5903.810159131916
1.428,0.37969153847131315,5902.351019227649
1.432,0.29081779224653437,5902.836893922504
1.436,0.13675689538010644,5901.318442088157
1.44,-0.07021070959910039,5893.610141769804
1.444,-0.3081264288776538,5889.330107274814
1.448,-0.5500439103419087,5891.37781495357
1.452,-0.7696326648003752,5906.771228513655
1.456,-0.946123827604818,5900.255393113376
1.46,-1.0674195309425736,5899.247124359603
1.464,-1.1309174018336192,5903.203349110586
1.468,-1.1422811669624455,5902.6811356952085
1.472,-1.1130267091550174,5904.996004880155
1.476,-1.0582093699399726,5894.65371513641
1.48,-0.9950347008100887,5911.421906961637
1.484,-0.9418521846633441,5897.924683931062
1.488,-0.9160679097437608,5903.323219079395
1.492,-0.9303195586609845,5903.450869945499
1.496,-0.9881392125585787,5907.911794627516
1.5,-1.0812916477898873,5907.620786807378
1.504,-1.1902111427236899,5893.71671534074
1.508,-1.2875337087530923,5896.305334445497
1.512,-1.3438124116781167,5905.200350447428
1.516,-1.3342521820507451,5894.576220216694
1.52,-1.2452296403333396,5905.23870875056
1.524,-1.079036605822805,5894.698701885055
1.528,-0.8549082451819023,5893.147825613876
1.532,-0.6049407470587828,5903.715726754405
1.536,-0.3654870872290858,5901.533518630763
1.54,-0.16697979316430708,5904.225841986563
1.544,-0.026159648985006268,5893.800647716613
1.548,0.056314758936901695,5901.948653062237
1.552,0.09239913286325174,5903.097033147245
1.556,0.09958120369754911,5905.032435241556
1.56,0.09380358002565682,5909.168681288366
1.564,0.08521143466265478,5898.868645650752
1.568,0.07746205172217495,5907.197717580369
1.572,0.06968125969301156,5900.943505491779
1.576,0.059632936111910645,5904.21012743508
1.58,0.04675757650382653,5905.837615122371
1.584,0.033896940984764236,5901.471424220172
1.588,0.026870309879657092,5906.473900737157
1.592,0.0319309097969931,5901.570968574637
1.596,0.05229251401488803,5903.2678951017415
1.6,0.08556236036069818,5898.230084511869
1.604,0.1234558451666198,5903.916876493616
1.608,0.15391286883549843,5905.006841532051
1.612,0.16465312894339001,5902.150967188183
1.616,0.14697060507124857,5902.001446855207
1.62,0.09887008020057021,5900.526983393548
1.624,0.026780720476572727,5894.207124975307
1.628,-0.05496009948331603,5901.08894762617
1.632,-0.12726709474080566,5900.219819842154
1.636,-0.17151562692811037,5896.207405473264
1.64,-0.1751402930233603,5892.689902030325
1.644,-0.13556306899553208,5900.612700735255
1.648,-0.06092523521412487,5895.32089378488
1.652,0.03267174525758231,5896.378105976264
1.656,0.12630574648074533,5897.80300101079
1.66,0.20366427580992078,5895.6847936211
1.664,0.25466336027863057,5901.502071103775
1.668,0.2762369252003261,5894.195812142475
1.672,0.2708251671657583,5906.701322689792
1.676,0.2440225332111651,5901.593739309418
1.68,0.2026201752982712,5895.538411427098
1.684,0.15343330853633047,5913.813845903346
1.688,0.10276748388122446,5894.389396891749
1.692,0.056331216597217175,5902.803978706098
1.696,0.019347219040409532,5900.751810050558
1.7,-0.003557139105585551,5893.834235493422
1.704,-0.008968244635487841,5901.902741606145
1.708,0.004343430477912874,5902.236419827557
1.712,0.03449819132127037,5900.015478058584
1.716,0.075916888663876,5901.333519593371
1.72,0.11930077001586735,5900.922855241069
1.724,0.15250156578009752,5906.43180184714
1.728,0.1624355689977468,5903.029455522163
1.732,0.13773913126555642,5897.751021662207
1.736,0.07155347443679405,5893.129592595613
1.74,-0.036195772851017466,5902.1087049669495
1.744,-0.17766782899976125,5895.509600431154
1.748,-0.33778186942453986,5903.605431340238
1.752,-0.49694699909016044,5893.956694989194
1.756,-0.6351040190757723,5892.879475302143
1.76,-0.7354539769719878,5898.471227114625
1.764,-0.786441145920771,5904.225523458348
1.768,-0.7818967294286737,5900.131794820471
1.772,-0.7206500998555813,5906.998159748739
1.776,-0.6070601016500441,5894.304156130781
1.78,-0.4525364482460775,5901.752125944036
1.784,-0.27647408848250626,5900.317831371148
1.788,-0.10479446297651152,5903.385955987972
1.792,0.03427593138074129,5892.399246958992
1.796,0.1159368367823653,5902.314995889912
1.8,0.12433731922416288,5906.467881028637
1.804,0.05657674549616164,5907.913561788965
