时间(s),电压(V),幅值(高频80K)
0.0,-0.7670924939515719,5895.560151669908
0.004,-0.5967897484845499,5895.862826395095
0.008,-0.4433441133668911,5889.379695990437
0.012,-0.32069410287864125,5890.041488383135
0.016,-0.2363669026255459,5898.297480326486
0.02,-0.19189245549212067,5906.5129750605365
0.024,-0.18473714123304852,5898.600054944894
0.028,-0.21007317773093961,5901.885508843388
0.032,-0.26148632707851144,5896.698266485226
0.036,-0.3309805377575911,5892.740517805237
0.04,-0.4090531539512613,5898.506401311937
0.044,-0.48510224099319743,5902.41093107066
0.048,-0.5481138357579404,5895.906194103412
0.052,-0.5879248451109635,5895.09521410394
0.056,-0.5974562833653495,5892.022455125345
0.06,-0.5755089287992353,5907.84052049584
0.064,-0.5287824414652869,5907.293440238278
0.068,-0.47178419834359353,5901.000463017417
0.072,-0.4241783192937586,5905.917084743708
0.076,-0.40605433785674666,5899.722513477293
0.08,-0.4321624180331386,5894.427088702652
0.084,-0.5066707625021509,5895.792280212078
0.088,-0.620526407181894,5897.566275013529
0.092,-0.7532036232303658,5900.139086168932
0.096,-0.8787776250968112,5902.129727505397
0.1,-0.9737773162376876,5898.914832080454
0.104,-1.0231975157220712,5893.191746969526
0.108,-1.022376011336955,5898.220937871795
0.112,-0.9749820727057495,5902.766532544303
0.116,-0.8890939137145089,5898.791262715095
0.12,-0.7734804075227371,5904.462670637712
0.124,-0.6354764455737489,5897.01136470469
0.128,-0.4809945274506778,5905.170797910104
0.132,-0.3162683868029693,5896.171453513229
0.136,-0.14997497311688388,5900.436459877234
0.14,0.005938827362419571,5900.181431405495
0.144,0.1376394020733683,5901.419906969081
0.148,0.2324589574660117,5900.673887558146
0.152,0.2819488675289119,5903.727561063842
0.156,0.283401192323688,5896.880374347343
0.16,0.23964449022761872,5901.276195696881
0.164,0.15815939575996324,5894.218615965058
0.168,0.050420277585663864,5903.674710613715
0.172,-0.06881929900271472,5896.033018598371
0.176,-0.1832461560416139,5900.506106889472
0.18,-0.2779981866626468,5893.927484177115
0.184,-0.34305401220143356,5904.99133595055
0.188,-0.37554623398587317,5891.5541053300485
0.192,-0.37997893671553307,5901.932195191116
0.196,-0.3662008963986108,5899.489743547318
0.2,-0.34570662901745586,5906.019685191615
0.204,-0.32740891776961767,5898.672936948833
0.208,-0.31455344028742205,5903.1905992051525
0.212,-0.3043424437024516,5899.7065561611735
0.216,-0.2904909986119731,5908.303465260812
0.22,-0.26706476088670256,5891.944847088591
0.224,-0.2311910632682312,5897.828425749586
0.228,-0.18334677438633837,5903.14075492348
0.232,-0.12586685652090393,5896.352076071348
0.236,-0.061341737545020675,5901.348513912989
0.24,0.00797827236963588,5894.945792047593
0.244,0.07983211432161297,5894.732679664419
0.248,0.1512654412858979,5900.464229490069
0.252,0.21803927704909865,5904.989346574953
0.256,0.2743661157128267,5904.557102521636
0.26,0.3133009827479754,5902.035138027294
0.264,0.3280160941003512,5903.277003113188
0.268,0.3137303852682239,5905.702361005335
0.272,0.2697450651715033,5907.441457531265
0.276,0.20109720141924708,5890.956123628644
0.28,0.11934227753303293,5893.19176854517
0.284,0.041675406675867374,5906.405288270284
0.288,-0.012390182454041068,5897.697155597139
0.292,-0.02654766608468002,5893.974008239482
0.296,0.006488484722302138,5901.281894196622
0.3,0.08167830828396938,5904.8123381983005
0.304,0.18265711924249037,5902.116893598398
0.308,0.28650173630473624,5895.618407821568
0.312,0.36988999381118165,5891.197761775374
0.316,0.4142004084842965,5910.129739462916
0.32,0.40835211932712173,5894.903195848968
0.324,0.34951915671028383,5899.516771128256
0.328,0.24255906965809906,5895.682385022849
0.332,0.09902806042174182,5910.208660318904
0.336,-0.06391982134393694,5899.6936848909645
0.34,-0.22527416167873823,5901.531639883315
0.344,-0.36333615525202956,5897.3788460317255
0.348,-0.46035975871264045,5897.906509016183
0.352,-0.5074837099790076,5897.487760201394
0.356,-0.5079200713818637,5905.483816919599
0.36,-0.4764566948172556,5903.9518430526
0.364,-0.4345868253388731,5903.215594639611
0.368,-0.40264889929655423,5894.906068973772
0.372,-0.3920404928054505,5899.484482832235
0.376,-0.4006396414847503,5904.321570764407
0.38,-0.4130854359011259,5896.390694388614
0.384,-0.40568639988604327,5890.981997427956
0.388,-0.35431888534286654,5892.711823165682
0.392,-0.2428763157512097,5899.288809461838
0.396,-0.06960273627395012,5898.299281277401
0.4,0.15084250346458222,5904.474036965417
0.404,0.39042516952773204,5897.284432898151
0.408,0.6149554973355206,5903.686559890257
0.412,0.7930266766576127,5901.215806702534
0.416,0.9036133448692382,5904.819706971271
0.42,0.9399795139072605,5902.067292444045
0.424,0.9091680834699705,5907.248764508679
0.428,0.8279237791881388,5903.966122780431
0.432,0.7168175897845633,5901.308713973015
0.436,0.594603656540237,5906.362628877644
0.44,0.474539123291151,5898.995321055344
0.444,0.36350898634506634,5899.480149001685
0.448,0.26354074916384806,5902.126484847579
0.452,0.17424537766351084,5906.386164099741
0.456,0.09452892094192877,5902.335188226346
0.46,0.022845495828736177,5902.958358984369
0.464,-0.04328427137375636,5904.7942752775625
0.468,-0.10703430943952892,5901.32769008778
0.472,-0.17056840568470505,5891.105462364134
0.476,-0.23265639684246947,5907.948115806191
0.48,-0.2874375681376387,5902.9644027109725
0.484,-0.3257980195600463,5906.556537657561
0.488,-0.3392014717443943,5904.210981738396
0.492,-0.3240936354313263,5891.870215460116
0.496,-0.2844739879612725,5895.819417885928
0.5,-0.23115711029574226,5905.095166618336
0.504,-0.1779093066729851,5901.347216041709
0.508,-0.136152062911196,5909.08691614694
0.512,-0.11062794927467089,5891.736296715296
0.516,-0.09804730819406393,5899.978812985623
0.52,-0.08946236462926606,5906.007670421439
0.524,-0.0754686518198725,5894.187723818679
0.528,-0.05190707907892807,5898.74634147218
0.532,-0.023176857172444738,5901.459640941536
0.536,-0.001153438537948082,5908.142644416033
0.54,7.217536030603058e-05,5897.647175366534
0.544,-0.02892944954579276,5901.141163020533
0.548,-0.08792347128684005,5899.229564217531
0.552,-0.166298288609644,5896.621601750193
0.556,-0.24676158783004945,5906.927217394068
0.56,-0.3114937743455856,5898.477028727638
0.5640000000000001,-0.34799387779548596,5902.580967672182
0.5680000000000001,-0.35238865736306796,5898.427256615959
0.5720000000000001,-0.32937418777548794,5902.277606804889
0.5760000000000001,-0.28954841155953315,5899.418056895255
0.58,-0.24589805221336733,5891.063963130763
0.584,-0.21107504223551263,5895.731620099248
0.588,-0.19599358008037296,5901.135139955413
0.592,-0.20907323072186718,5890.563144164243
0.596,-0.25513636472456724,5887.908173368639
0.6,-0.3337719174222234,5898.348362679969
0.604,-0.43805866842049435,5896.834188348979
0.608,-0.5548060680245815,5906.260491112696
0.612,-0.6667053641360521,5896.146611538369
0.616,-0.7557559802894148,5904.417575585707
0.62,-0.8068976989185572,5900.036084441898
0.624,-0.8111088695449669,5898.134093349764
0.628,-0.7677485379927055,5903.719233536581
0.632,-0.6858909838999531,5897.285010206657
0.636,-0.583842728322006,5897.680835830158
0.64,-0.48589668926733415,5900.531673563147
0.644,-0.41636756111586615,5894.931358821242
0.648,-0.39251476075545494,5892.677298534346
0.652,-0.41894134828558227,5905.783885673585
0.656,-0.48582431240783297,5897.30345997117
0.66,-0.5719345663828865,5888.729824744934
0.664,-0.6513756139004602,5888.057068995104
0.668,-0.7013196054321703,5902.992820990058
0.672,-0.7078222549795975,5904.077379815281
0.676,-0.6681828175828257,5900.85732309019
0.68,-0.5900735408770532,5899.452354386445
0.684,-0.4884622928364505,5900.384224383097
0.6880000000000001,-0.38123039468143116,5890.383225997595
0.6920000000000001,-0.28432800423231996,5895.945223981402
0.6960000000000001,-0.20761997456773404,5902.766036070691
0.7000000000000001,-0.15267437388890234,5894.920501464533
0.704,-0.11327068742873732,5894.013606655423
0.708,-0.07858189993126789,5906.437586443026
0.712,-0.03810139876746102,5900.6683902268005
0.716,0.013382501150887084,5904.252698086255
0.72,0.07276526873460763,5900.900279938141
0.724,0.1289897628520757,5900.391474930247
0.728,0.16685768119310684,5906.436913985587
0.732,0.17282826365096157,5900.28902022746
0.736,0.14042004810412909,5900.016263205901
0.74,0.07301329248546401,5896.267387002443
0.744,-0.01690028518079621,5899.182240535752
0.748,-0.11143337422263452,5905.52568222174
0.752,-0.19246283645643647,5906.886723949293
0.756,-0.2465150729309243,5907.980697761004
0.76,-0.2678451009209665,5903.888741415349
0.764,-0.25874712697090574,5903.139210291528
0.768,-0.22718035344149062,5891.3766499068015
0.772,-0.18284517039268525,5899.231481868264
0.776,-0.13336361311816738,5893.702455932089
0.78,-0.08217154962812417,5900.79585754809
0.784,-0.029089427261388197,5892.0144812759245
0.788,0.02680313529866907,5907.262578420319
0.792,0.08379689132885494,5899.087294805441
0.796,0.1359023083488882,5905.577920915439
0.8,0.17410210369469128,5908.930793980828
0.804,0.1899006844316711,5898.673976618138
0.808,0.17917975772768788,5894.994414486945
0.812,0.14426367452751473,5895.001427364769
0.8160000000000001,0.09327060668835448,5910.227776813691
0.8200000000000001,0.03740593002002998,5893.764602809544
0.8240000000000001,-0.012166855846327103,5904.560710733482
0.8280000000000001,-0.0463489257016355,5899.0801859881
0.8320000000000001,-0.058546885109268476,5912.894877718903
0.836,-0.04435147380839228,5900.89809109072
0.84,-0.001800888762915287,5896.9614316287625
0.844,0.0671135363901579,5895.923511587365
0.848,0.15424259395790535,5892.501595416503
0.852,0.24364779888012203,5905.230827027429
0.856,0.311929395369504,5905.51497620513
0.86,0.3316401977614354,5904.473899714503
0.864,0.2779928342739927,5900.444727659851
0.868,0.13731938992836007,5897.54324097194
0.872,-0.08585634279149244,5902.973652142192
0.876,-0.36633945082520536,5908.017166808708
0.88,-0.6619118849492128,5903.366705694731
0.884,-0.9223560442307693,5899.097920724595
0.888,-1.101388672824183,5906.523414912339
0.892,-1.1682412236222264,5903.533277069589
0.896,-1.1155518667129867,5902.64305254351
0.9,-0.9609660265475236,5896.127381209471
0.904,-0.7416792221465281,5891.759252768974
0.908,-0.5037169807562154,5900.502372047517
0.912,-0.28973383120937785,5912.810738339864
0.916,-0.12940926340799233,5905.570580858256
0.92,-0.03506840492648018,5899.325373535521
0.924,-0.0027646205034656196,5895.664574942624
0.928,-0.0169763295945863,5899.978595118697
0.932,-0.056409153608806564,5898.88231596562
0.936,-0.09922694140658808,5902.978103775976
0.94,-0.1272760431077359,5895.412086290845
0.944,-0.1293742812322553,5897.686958459553
0.948,-0.10335887977701604,5900.525991838845
0.952,-0.0561786234935441,5908.32383981195
0.956,-0.0016737215017870663,5905.124506595164
0.96,0.043420870060907675,5902.502072113437
0.964,0.06409743854339475,5897.551464483856
0.968,0.051118025604977815,5901.194308205158
0.972,0.0034893077101820907,5895.66974489203
0.976,-0.0712772858338259,5902.922138115106
0.98,-0.15915041729026677,5897.995961010048
0.984,-0.24305258177673958,5894.557070010481
0.988,-0.30665289957027914,5894.129677688433
0.992,-0.3375620649147127,5906.48687726233
0.996,-0.3295285160609196,5898.219953802014
1.0,-0.28347746911828575,5909.355010478074
1.004,-0.20721091050118098,5899.894418960796
1.008,-0.11370092646712446,5892.681966902072
1.012,-0.01831627748047012,5896.17650778326
1.016,0.06429169350108782,5891.600115006517
1.02,0.12281893183718197,5898.501532980292
1.024,0.15071195284961453,5890.743598255897
1.028,0.14587769637342268,5891.332374782532
1.032,0.10894057693571893,5903.902624527513
1.036,0.04112473232058596,5892.479564225496
1.04,-0.056957345507939745,5897.431964647846
1.044,-0.1848368229723755,5904.227095201023
1.048,-0.33982149378797016,5904.167763362589
1.052,-0.5128529248302786,5895.932793367629
1.056,-0.683295632214055,5899.648508357424
1.06,-0.8144364187849551,5897.21046189884
1.064,-0.8524081659204599,5899.22192688648
1.068,-0.7310852202806077,5909.351847237119
1.072,-0.38391750695015725,5893.303107504764
1.076,0.23877618231544856,5904.859897255959
1.08,1.1510677232243647,5903.120151674034
1.084,2.3171581034150783,5905.651331794529
1.088,3.6479127802080598,5899.959301527073
1.092,5.0122971618435255,5894.854459462767
1.096,6.262738517746796,5905.541420866081
1.1,7.267362939702024,5902.674763390103
1.104,7.938515695890576,5911.674313578271
1.108,8.248381652890822,5891.746281758346
1.112,8.227925139732534,5894.325479240957
1.116,7.951581950109366,5891.962434331084
1.12,7.514430771995188,5895.179516991424
1.124,7.0097650779021246,5903.263989359783
1.128,6.5131529196801985,5902.91539903604
1.132,6.075354423219279,5893.707713392805
1.136,5.722799839216429,5898.017230600906
1.14,5.462348233359993,5903.616316251781
1.144,5.287019276815811,5889.947420080996
1.148,5.180603607444562,5898.4324979335925
1.152,5.120793421673064,5896.757911904291
1.156,5.081921116598806,5905.79664134274
1.16,5.03849653769932,5895.093266445697
1.164,4.969379772870583,5903.614765354176
1.168,4.861065974492957,5895.018171057853
1.172,4.708617904483448,5891.218768886639
1.176,4.514074858670178,5902.414051643867
1.18,4.28350478367659,5903.4613395718525
1.184,4.024408010642276,5902.434043987161
1.188,3.7446974957310575,5895.664762336795
1.192,3.453274226673495,5891.968600821317
1.196,3.161166085612272,5898.450583081059
1.2,2.882051046219857,5896.143462100488
1.204,2.6315431363301105,5895.62981470536
1.208,2.425190575395676,5903.504268189079
1.212,2.2754673449744534,5901.973047374603
1.216,2.1883436315439364,5895.0922732318295
1.22,2.1604017055193476,5893.111487189359
1.224,2.177693645562073,5902.898826593588
1.228,2.217300943746424,5899.111749298311
1.232,2.251752480472076,5894.1213097563805
1.236,2.255324075429978,5904.452531374881
1.24,2.2103100805060776,5902.249378493711
1.244,2.11117807231328,5907.34692588589
1.248,1.9652627778313105,5898.431723830247
1.252,1.7899777885357162,5899.450589455316
1.256,1.6078139683655315,5901.736580892278
1.26,1.4410665814264265,5904.531173130432
1.264,1.307931444600591,5897.151994283377
1.268,1.220519393827072,5893.263005373987
1.272,1.1842585574481992,5899.948650709165
1.276,1.1978540263293187,5905.967728968266
1.28,1.2534603492445127,5897.589518370885
1.284,1.3373596408045192,5893.847665631546
1.288,1.4316440173604745,5897.1514296430205
1.292,1.5170344212655813,5895.811278249757
1.296,1.5762856148640711,5898.206277769767
1.3,1.5971195404747116,5901.442147526262
1.304,1.5737445122738678,5891.251884924168
1.308,1.5067749703936941,5891.304486101369
1.312,1.4022049320351373,5894.020318882545
1.316,1.2702722740502883,5898.054718842286
1.32,1.124420874590556,5885.829240318593
1.324,0.9798110649928733,5895.459723412923
1.328,0.8508007396527103,5888.972628358633
1.332,0.7476616976905077,5890.027835079776
1.336,0.6738081051478984,5889.394422682589
1.34,0.6251001013348721,5889.5415218522085
1.344,0.5920160182502624,5884.175971616645
1.348,0.5640704166955887,5892.382739503433
1.352,0.5345574150880347,5875.26951991306
1.356,0.5032851205384546,5881.113247136607
1.36,0.47585148645511866,5881.762371311213
1.364,0.45982098952435657,5875.068606184722
1.368,0.4598372855081442,5879.854072954869
1.372,0.47425606806543996,5882.342789833112
1.376,0.4949961100632494,5872.663846729602
1.38,0.5105441783914106,5872.274074181954
1.384,0.5105634699759862,5872.165425740022
1.388,0.4901457665618528,5867.780872762748
1.392,0.4521717417350538,5861.395824587992
1.396,0.40691081117381467,5870.570279799434
1.4,0.36882300979687765,5869.9991860333885
1.404,0.3515402255251694,5875.822273699657
1.408,0.3627716447968309,5866.79299961035
1.412,0.4009437395770303,5855.691384371374
1.416,0.45474003338939906,5864.083629222875
1.42,0.5056468520448241,5863.413889205754
1.424,0.532594268412716,5861.844224088282
1.428,0.5173206632397401,5859.309991968476
1.432,0.4492556286406803,5862.300621682641
1.436,0.3289838081137736,5860.971821278436
1.44,0.1694273745233542,5855.327245133766
1.444,-0.005854362782373946,5853.348682139761
1.448,-0.16714364944363616,5855.83116577103
1.452,-0.28491714484775604,5869.818248332553
1.456,-0.33662387200063987,5852.141315058051
1.46,-0.3121490773760292,5860.676013354321
1.464,-0.21632206184246378,5854.849975038444
1.468,-0.06761287147254641,5853.469253616069
1.472,0.1065435879607536,5853.64939468903
1.476,0.2762536518118657,5857.015313729044
1.48,0.4155476114270011,5865.209782686106
1.484,0.5069772084110864,5859.038782982037
1.488,0.5435181707290087,5849.292229348058
1.492,0.5278018223343675,5851.396531366392
1.496,0.4695496049203932,5853.898328740816
1.5,0.38250672315278306,5851.903503117553
1.504,0.28187383511229575,5846.750942018425
1.508,0.182457275175361,5846.8021100581545
1.512,0.0972191244127514,5848.480444947355
1.516,0.03600449404454425,5839.048891967187
1.52,0.004606961792713405,5843.338775464631
1.524,0.004396942192443939,5840.996313247743
1.528,0.03236484592445965,5851.869821302004
1.532,0.08120848947458101,5843.152827232046
1.536,0.1395558723675745,5844.651698005361
1.54,0.1930805577536524,5846.888101016873
1.544,0.2270721034504359,5839.075072360937
1.548,0.2298810433384631,5843.079529528412
1.552,0.1957759305353997,5849.911618651545
1.556,0.12607297852462734,5845.257869146931
1.56,0.02848662416861959,5831.304975714321
1.564,-0.08462783122423401,5840.511443225237
1.568,-0.19864574678488808,5845.815700566208
1.572,-0.2996923262188314,5835.952611666152
1.576,-0.37821832598106675,5835.06350334301
1.58,-0.4320732852775294,5827.931324738819
1.584,-0.4672797984591689,5842.39926072106
1.588,-0.49534864575620674,5846.772996148204
1.592,-0.5278281846788831,5845.529447883957
1.596,-0.5705701641653281,5839.556670891669
1.6,-0.6206445114519576,5835.832014916271
1.604,-0.667503706101129,5843.112634585136
1.608,-0.6976162613005976,5839.873855350985
1.612,-0.69996258691314,5842.681762230324
1.616,-0.6697412991317332,5845.278618090455
1.62,-0.6091113962847329,5838.384650315313
1.624,-0.5254740626026855,5844.981860034867
1.628,-0.4286723459148235,5842.046124852817
1.632,-0.3284816920771468,5844.42893517952
1.636,-0.23322910821467108,5834.387743538449
1.64,-0.14964964026390254,5835.125816669041
1.644,-0.0835213354630612,5837.656049299513
1.648,-0.04039942909724532,5829.617694608707
1.652,-0.025753915096911006,5824.55071328801
1.656,-0.04395924160178772,5829.843898590128
1.66,-0.09612351434011594,5834.129560677653
1.664,-0.17763401882559646,5826.8795850404695
1.668,-0.27691503955129987,5830.057711786915
1.672,-0.3765593568483313,5830.535674399926
1.676,-0.45676652247692257,5833.764156050057
1.68,-0.4998386122322988,5835.0342481011485
1.684,-0.4942078722222813,5843.643480734506
1.688,-0.43697666210603214,5822.766738606651
1.692,-0.33454296876782286,5825.840992015444
1.696,-0.20126267551843105,5830.589848650185
1.7,-0.05643229191993258,5824.759288361098
1.704,0.07979858013346047,5830.201692439488
1.708,0.19082698237395349,5829.2268714598695
1.712,0.26746830508137726,5827.760764530697
1.716,0.31017769735915984,5834.274225658382
1.72,0.32833916683788084,5828.970927542368
1.724,0.3360611385127993,5832.920942594562
1.728,0.34558555552525344,5829.197550286269
1.732,0.36102971917192306,5833.867979220312
1.736,0.37549675978219127,5825.166166729591
1.74,0.3731424413656362,5833.483516193453
1.744,0.33534596539202405,5833.145646735212
1.748,0.2482485876612808,5824.827528168034
1.752,0.1086290554164124,5821.577943366974
1.756,-0.07383247179580563,5823.460045794957
1.76,-0.2782328432525178,5829.239703848414
1.764,-0.4769783396593269,5835.318304995469
1.768,-0.6414365711035062,5830.9350903985005
1.772,-0.7473045770862986,5827.607966499365
1.776,-0.7789933030246403,5830.212633472599
1.78,-0.7325436072241973,5818.485536185148
1.784,-0.6163565668670977,5832.103667548672
1.788,-0.44917188512220996,5824.046534119188
1.792,-0.2556453437855331,5823.40098134488
1.796,-0.060988712550501936,5832.02625228022
1.8,0.11347725099687746,5826.711519319378
1.804,0.25272760212576756,5831.6473090303525
1.808,0.34845891216483055,5825.906564467241
