时间(s),电压(V),幅值(高频80K)
0.0,-1.1081551674448726,5900.768914059975
0.004,-0.8513444142867405,5904.241720115379
0.008,-0.6183886893288998,5899.926372628834
0.012,-0.4292663114485081,5910.647555282246
0.016,-0.29527148252710583,5897.925279578321
0.02,-0.21797085256726834,5892.152220980818
0.024,-0.19006771247940488,5894.475861495404
0.028,-0.19792569015509845,5900.547541564572
0.032,-0.22558056905700888,5904.010973980714
0.036,-0.25939104949429537,5896.663490541294
0.04,-0.2915378593971784,5896.648233261772
0.044,-0.32063726033718226,5894.187660963649
0.048,-0.3492304852766737,5900.777350714483
0.052,-0.379755646169041,5902.620741586803
0.056,-0.4113232856460823,5891.063187754974
0.06,-0.4388407582684866,5904.566199336528
0.064,-0.4545797722365803,5903.288523734861
0.068,-0.45110012740772615,5898.889740371422
0.072,-0.4239969448197312,5905.680376629191
0.076,-0.3732964353398132,5896.859444437452
0.08,-0.3032007006784958,5904.861517526858
0.084,-0.2207509243297721,5890.637675392125
0.088,-0.13442418402771175,5898.081193581285
0.092,-0.05344260911161626,5899.692440287216
0.096,0.012373988766295077,5906.368424777442
0.1,0.05331693880478099,5906.969159125728
0.104,0.06193526487562119,5904.448677002966
0.108,0.036042608704852465,5906.2416027304525
0.112,-0.01923770550770344,5906.149616687008
0.116,-0.09195962117212975,5895.056202788817
0.12,-0.16644779000494359,5897.252499122329
0.124,-0.22766512885972184,5901.468676201009
0.128,-0.2651896665406494,5889.497538559485
0.132,-0.27568674325305076,5890.357328692826
0.136,-0.2633480577536768,5902.140746373073
0.14,-0.23809046264052072,5907.239197977867
0.144,-0.21190117862108576,5898.871466776525
0.148,-0.19479052087329696,5904.077361719414
0.152,-0.19238341152038924,5901.99154711511
0.156,-0.2062258944030814,5895.969082582922
0.16,-0.23600427512159944,5902.118142760814
0.164,-0.28172318176493166,5903.58537002396
0.168,-0.34422871888264517,5902.47377565023
0.172,-0.42370174684832784,5897.334302267127
0.176,-0.5169531753193689,5898.997476858503
0.18,-0.6150290744551732,5896.94091598566
0.184,-0.7027213991060242,5902.897199657061
0.188,-0.7611070096972768,5907.4685183555885
0.192,-0.7731027772031738,5889.520015447385
0.196,-0.730327171212085,5892.449475681717
0.2,-0.6381150812900082,5903.502406595168
0.204,-0.5156580308130705,5900.392376997577
0.208,-0.3904627463304377,5897.46066393108
0.212,-0.28929207962502584,5907.445187221279
0.216,-0.2292810734157643,5897.83524415725
0.22,-0.2123440905159178,5890.257636984267
0.224,-0.2245210664825789,5900.689380088906
0.228,-0.24052815023998805,5910.825188439462
0.232,-0.23228532522954132,5900.351223571332
0.236,-0.17861282488630129,5905.763380184046
0.24,-0.07257973748748625,5903.156769616807
0.244,0.07608185226210736,5900.762949611959
0.248,0.24396030567857654,5892.650267185768
0.252,0.40075380962306195,5906.632398333352
0.256,0.517250143422445,5894.439790463672
0.26,0.5720148256991685,5902.300686605281
0.264,0.5552263914227185,5902.154507060112
0.268,0.46928526675653426,5903.556616269464
0.272,0.3267380911807338,5897.730793628134
0.276,0.14649024050599055,5891.80528098582
0.28,-0.05054777173826537,5901.383294158892
0.284,-0.24516899693794325,5896.092919498933
0.288,-0.421998587227343,5905.031634683555
0.292,-0.5698902534910265,5897.529788436326
0.296,-0.6813529125894883,5897.562690619988
0.3,-0.7521414757490947,5899.938618844996
0.304,-0.7816625777032669,5897.448742462105
0.308,-0.7738590667163879,5899.2810769345215
0.312,-0.7375239830612121,5913.386197883115
0.316,-0.6851946329865343,5898.2777843693175
0.32,-0.6307256838872561,5902.795322802422
0.324,-0.5863884350362628,5889.1901476651765
0.328,-0.5602946294237579,5901.642170091375
0.332,-0.5545842394882733,5901.1329471251065
0.336,-0.5647867484736943,5893.694573817436
0.34,-0.580852721563366,5888.691613421641
0.344,-0.5899888826040008,5900.352054223568
0.348,-0.5806055131764281,5898.3895123909015
0.352,-0.5460060752131743,5892.30237957685
0.356,-0.48647197930235386,5902.399585774867
0.36,-0.40900224451386663,5901.232215943768
0.364,-0.3246992852791094,5895.975794691496
0.368,-0.2446081658953305,5894.073876593052
0.372,-0.1756930733387697,5898.171664098777
0.376,-0.11885496786909272,5895.538423049601
0.38,-0.06991373985395688,5904.391287642012
0.384,-0.022960384221247396,5905.885142909401
0.388,0.025526005584351266,5904.196377794247
0.392,0.07363777587369548,5898.273244870396
0.396,0.11351010075211024,5905.67837325828
0.4,0.1336789044772813,5901.045960462876
0.404,0.12332246747986174,5888.614062572366
0.408,0.07650779243730296,5890.388220843163
0.412,-0.00532965478453931,5904.742815072578
0.416,-0.11352944453471664,5900.735272262997
0.42,-0.2345452740967227,5898.326293383283
0.424,-0.35304437015650836,5897.724568934812
0.428,-0.45435793688908876,5897.792955117779
0.432,-0.525954724207576,5916.422866619492
0.436,-0.5586781958205812,5900.748458986936
0.44,-0.5484842831633238,5904.583316092343
0.444,-0.4984496834031334,5899.985971347696
0.448,-0.41991242632305825,5897.914184611663
0.452,-0.33154740429294516,5899.392765046008
0.456,-0.25592888379380296,5907.8802138224855
0.46,-0.21418227219607147,5904.668832129828
0.464,-0.22019770537193892,5903.189448356516
0.468,-0.27623277447599315,5897.631936079615
0.472,-0.3714132752943629,5893.928593538255
0.476,-0.4837424151803358,5902.682669272792
0.48,-0.5851343325624542,5902.447341609076
0.484,-0.6481920748278961,5902.509111475724
0.488,-0.6530628525516378,5901.852000864568
0.492,-0.5924668656448403,5898.714071885316
0.496,-0.4731590273327626,5909.911870886024
0.5,-0.31333631246131066,5894.059353663712
0.504,-0.13743871327270937,5893.488163241115
0.508,0.029257236310360826,5891.924761897458
0.512,0.16467065598785036,5904.890987841795
0.516,0.2524408833245067,5900.365689382498
0.52,0.28346958620098966,5910.116174200563
0.524,0.256740019426762,5899.721321728843
0.528,0.17923501495178418,5893.97063558246
0.532,0.06472216504435778,5908.031513847564
0.536,-0.06850504361129013,5895.863476509576
0.54,-0.20049919693639037,5897.525815130568
0.544,-0.3126440947239841,5892.609061698013
0.548,-0.3904300934105365,5901.377121391979
0.552,-0.4258320902587395,5901.125745873317
0.556,-0.4189443943331285,5899.703727450511
0.56,-0.3782068947341902,5905.400063452448
0.5640000000000001,-0.31865933473009017,5901.7658546597695
0.5680000000000001,-0.2585255449535803,5907.40572285356
0.5720000000000001,-0.21536864494888933,5897.47131552577
0.5760000000000001,-0.2030290342038788,5900.541121815893
0.58,-0.22963773000427418,5905.384517827051
0.584,-0.2963105262250976,5892.486708615056
0.588,-0.39640177376021585,5911.551926139947
0.592,-0.516026794456536,5897.774185832389
0.596,-0.6368249295901702,5897.514885747984
0.6,-0.7408642771515319,5909.744703442154
0.604,-0.815890441909702,5895.438166790467
0.608,-0.8585011726030015,5897.021076559586
0.612,-0.8739060729785564,5901.652674368168
0.616,-0.8725646795607135,5895.267020168015
0.62,-0.8650498054490551,5891.940321937141
0.624,-0.8569736404808561,5896.608132684261
0.628,-0.8459784970254212,5908.669550546678
0.632,-0.822279153974242,5898.115642677491
0.636,-0.7727884357146523,5905.455029114846
0.64,-0.6871328164753338,5900.228383425652
0.644,-0.5630068504466562,5896.900594960633
0.648,-0.40870663323578976,5899.493883407752
0.652,-0.2418148193564624,5893.508321391363
0.656,-0.084457663863809,5900.617534662251
0.66,0.0429433411556966,5898.870187369518
0.664,0.12676812034548826,5898.446301828543
0.668,0.16226940430099432,5892.698612130945
0.672,0.15245731960142986,5908.22705330494
0.676,0.10496653118697127,5895.478294670018
0.68,0.02854176609772753,5901.486334327149
0.684,-0.06934934584860673,5900.441832619361
0.6880000000000001,-0.18294611267798289,5898.60489696536
0.6920000000000001,-0.30707847992218545,5910.6816466607015
0.6960000000000001,-0.43593168367318036,5891.876331032532
0.7000000000000001,-0.5628133538032323,5899.471162462724
0.704,-0.680654975428811,5903.469370176411
0.708,-0.7821708263190342,5903.508553831526
0.712,-0.8593087097099873,5904.5733252883165
0.716,-0.9028685623669955,5898.333284899602
0.72,-0.9035208040305939,5898.510815638138
0.724,-0.8546695090465721,5898.866200950272
0.728,-0.7562968870573533,5905.795392470262
0.732,-0.6178666406310893,5893.922562235954
0.736,-0.4582965506116944,5900.252560202815
0.74,-0.3022217248001874,5899.77038953874
0.744,-0.17361685042491884,5905.262960940165
0.748,-0.08923567998690073,5901.054160741887
0.752,-0.05454497488711117,5897.150522098086
0.756,-0.06371244256280761,5897.531340305996
0.76,-0.1032129226254152,5897.315997998322
0.764,-0.15696414464686242,5897.846220394055
0.768,-0.21070288474465598,5893.276269333326
0.772,-0.2543762402313095,5896.086324994077
0.776,-0.282522171396278,5901.7117492207735
0.78,-0.29324826394890163,5902.265399807622
0.784,-0.28663211872918926,5899.752003112842
0.788,-0.26342015500845395,5902.000576597055
0.792,-0.2246773578387775,5909.248228960013
0.796,-0.1724465614236729,5900.035871591488
0.8,-0.1108484259863626,5896.436967800567
0.804,-0.046786801494909935,5904.037522434401
0.808,0.010446495340793113,5906.6128059480125
0.812,0.05092781883015161,5899.381995018487
0.8160000000000001,0.06674806036274084,5909.074600354909
0.8200000000000001,0.05439477692073646,5907.444287791019
0.8240000000000001,0.01568128270700366,5901.717075157646
0.8280000000000001,-0.04314426718971151,5895.544461457575
0.8320000000000001,-0.11339631710203198,5903.883824358417
0.836,-0.1859423343646436,5902.199519135475
0.84,-0.252594850986087,5904.634148274135
0.844,-0.30697795001356176,5900.390290072145
0.848,-0.3450282111949083,5895.877456388121
0.852,-0.3650566525092734,5898.487264178221
0.856,-0.3673604553754957,5899.792351858295
0.86,-0.35372755009509854,5898.135948583702
0.864,-0.32725754859000833,5888.941764283117
0.868,-0.2924422519181612,5910.167244858206
0.872,-0.2549165147805705,5897.134600383433
0.876,-0.22043042437969484,5894.980571563684
0.88,-0.19334761614884308,5913.599423661677
0.884,-0.17553967153548433,5896.100492552086
0.888,-0.16638891557734775,5899.185729905323
0.892,-0.1639709906201363,5895.982875702953
0.896,-0.16688010506867795,5907.517639076954
0.9,-0.17584417164386285,5904.843597790971
0.904,-0.19432017107459895,5898.145244615268
0.908,-0.22766246382331348,5892.39506999802
0.912,-0.2810185576291507,5901.346932248759
0.916,-0.35654431561305133,5902.440825776359
0.92,-0.4508093653988859,5902.178142310421
0.924,-0.5534226866621829,5905.247875565672
0.928,-0.6476999629490373,5903.424443875084
0.932,-0.7134543539804054,5904.058445057877
0.936,-0.7311674317182976,5892.731202923748
0.94,-0.6865014024200594,5891.749017491429
0.944,-0.5743139693100591,5898.177520429917
0.948,-0.4014536089901728,5894.248355612317
0.952,-0.18741825573122534,5901.988852682907
0.956,0.037954011535548574,5896.2263096640245
0.96,0.23961001387925515,5900.327296409374
0.964,0.3837163383259324,5902.5342643219765
0.968,0.44349151922070207,5900.223102126412
0.972,0.4034637269285654,5901.58437000276
0.976,0.2623455881952138,5900.816522073781
0.98,0.03480974511848388,5901.563911325899
0.984,-0.24849525763498104,5903.314281164704
0.988,-0.5440700666794595,5901.83948665697
0.992,-0.8026258161126125,5908.649888297545
0.996,-0.9791030305004214,5901.478575352645
1.0,-1.0428523005923325,5905.895266675202
1.004,-0.9845784173116083,5907.270618817424
1.008,-0.8176993064773639,5898.881209124523
1.012,-0.5738851197044097,5915.507978245821
1.016,-0.2946744581811241,5898.71113429408
1.02,-0.022200140698680915,5903.829614588269
1.024,0.20832369622763566,5900.93186888728
1.028,0.37309841255273607,5902.257805032319
1.032,0.46129664466191295,5900.850557837412
1.036,0.47438719489720543,5900.139032351062
1.04,0.4239023339113931,5909.420412378988
1.044,0.32798694963666736,5893.860329465017
1.048,0.2070333727234816,5902.244435626447
1.052,0.07925092493858964,5895.354835184848
1.056,-0.04243965614214661,5896.902179770837
1.06,-0.15116328730336445,5899.864680227588
1.064,-0.2448097024198895,5898.257040308672
1.068,-0.3241920009736965,5898.859507869486
1.072,-0.3918670189264295,5893.63941779494
1.076,-0.45141336745702904,5898.537746184005
1.08,-0.5060784644069808,5897.165012014457
1.084,-0.5564233861883366,5898.571431726139
1.088,-0.5980579534102124,5897.384285648089
1.092,-0.6212029363886352,5898.748833765093
1.096,-0.6130064974650493,5905.414049346708
1.1,-0.5619033667932974,5897.433689594344
1.104,-0.46206564531237276,5900.265792455452
1.108,-0.3160204331132435,5900.483610047852
1.112,-0.13463696959528798,5900.16399256167
1.116,0.06506699446899321,5896.983566038295
1.12,0.2633296081397771,5897.978327540479
1.124,0.44145924691632044,5904.654756125499
1.128,0.5853984059304523,5891.660238752732
1.132,0.6880896617968859,5891.246463118908
1.136,0.7495717812703917,5898.23629481789
1.14,0.7745853383219032,5896.673001757135
1.144,0.7689648701616397,5887.622496736398
1.148,0.7368906835002388,5900.266642628562
1.152,0.6803468156823353,5898.862500691301
1.156,0.6004529413755337,5898.899220495648
1.16,0.4991095418889845,5907.975267737539
1.164,0.37964944240345877,5899.135313709701
1.168,0.24651513350991391,5906.414605708447
1.172,0.10483620036054443,5910.08101912483
1.176,-0.03959791075220466,5894.26371455793
1.18,-0.18018291698073058,5900.667802268396
1.184,-0.3094262710667403,5895.252673581404
1.188,-0.41892302224084144,5898.548544358255
1.192,-0.49945388947654373,5902.678189968387
1.196,-0.54164978270008,5906.318768471552
1.2,-0.5375817389670328,5889.984348520749
1.204,-0.48301454812396877,5901.970454956649
1.208,-0.37961813042531634,5890.284741006947
1.212,-0.2365038862578617,5895.554377988807
1.216,-0.0705925080170902,5900.061790623516
1.22,0.09469600400428856,5903.420127798984
1.224,0.23270057099397196,5901.024336069013
1.228,0.31836955760238583,5909.390868197199
1.232,0.3337250252342928,5909.744714770419
1.236,0.27254070375252915,5898.05176612468
1.24,0.14263897752782057,5891.395468834196
1.244,-0.035393323777214346,5895.464926054828
1.248,-0.23304459868932895,5899.3775429611405
1.252,-0.4207724407304948,5907.665032681381
1.256,-0.5746662386206064,5892.426879801517
1.26,-0.680873214847984,5890.554896243795
1.264,-0.736816083499927,5892.667123783799
1.268,-0.7493950316773083,5902.721118578075
1.272,-0.7311255853317498,5894.13611668915
1.276,-0.6954759867131712,5896.1106691635705
1.28,-0.6527838295571692,5898.94889177224
1.284,-0.6079640583794158,5900.391937902342
1.288,-0.5605899555509208,5904.372204607422
1.292,-0.5071388227565793,5900.19649646334
1.296,-0.4445794110898019,5912.367844114849
1.3,-0.3739770215579098,5906.018208749303
1.304,-0.30255036280219777,5900.097882006376
1.308,-0.2431117096907951,5903.820177367908
1.312,-0.21094432210074904,5899.4414764155335
1.316,-0.2191181481232183,5896.247004694904
1.32,-0.27362299140266017,5895.074787664102
1.324,-0.3697858458807368,5895.236168993628
1.328,-0.49132869755140207,5909.727822973885
1.332,-0.6128079428838235,5905.596350223697
1.336,-0.705033519478663,5898.441869763646
1.34,-0.741907166454659,5902.393264752064
1.344,-0.7065563396481434,5893.032552674054
1.348,-0.5950017491684678,5900.175073254098
1.352,-0.41671762231675447,5898.559581190407
1.356,-0.19259349212742563,5899.150742443797
1.36,0.04874611580833351,5899.588594777758
1.364,0.2755069097311456,5898.692958250839
1.368,0.45764528644595415,5899.009558012585
1.372,0.5715624444054913,5894.265210627535
1.376,0.6038840026695481,5894.56829522295
1.38,0.5537468356438643,5899.497554951817
1.384,0.4332421762293299,5889.314530149272
1.388,0.26575974649924605,5898.70552914753
1.392,0.08208064645310156,5896.849905991018
1.396,-0.08545681262421688,5899.61500606644
1.4,-0.2096216554060898,5903.397973284564
1.404,-0.2741172160827375,5899.319017812424
1.408,-0.27687779463037626,5900.130036391426
1.412,-0.22970002550522373,5903.1278997732215
1.416,-0.15411250282808733,5894.843305683936
1.42,-0.07466734946300789,5904.336674081286
1.424,-0.011874296104901875,5903.109899143313
1.428,0.022806487082560858,5897.490984400239
1.432,0.028381210570388584,5903.255351669821
1.436,0.012153047718411459,5890.967048167802
1.44,-0.014666819018660689,5897.883946664728
1.444,-0.04165668025161508,5902.233410418535
1.448,-0.06261115845330831,5899.91716285815
1.452,-0.07691242153510315,5900.532875255746
1.456,-0.08890747308597557,5900.306299830835
1.46,-0.1059687400658941,5899.276229446609
1.464,-0.13602518476955267,5901.705973958112
1.468,-0.18501238912757673,5895.52367955688
1.472,-0.25449690730597624,5902.234542972746
1.476,-0.3400747309361495,5898.535705858819
1.48,-0.43147727263720603,5895.080207463268
1.484,-0.5148120670710106,5900.512744156779
1.488,-0.5761756479304293,5906.817160622126
1.492,-0.6050600549139208,5900.215528914505
1.496,-0.5962031286550084,5907.513961973654
1.5,-0.5495573679238092,5902.385560394534
1.504,-0.4692248368673844,5895.991686585371
1.508,-0.36275059215502453,5899.440354976382
1.512,-0.24143567247601735,5895.062023003739
1.516,-0.12073310217375569,5904.356039321004
1.52,-0.01890617742789156,5899.93190727908
1.524,0.04697570593334225,5899.3158839476
1.528,0.06669171012184591,5897.384445391924
1.532,0.04176345249523541,5892.395623727758
1.536,-0.012923037841939494,5902.175311129482
1.54,-0.07223443946487886,5899.44220211256
1.544,-0.1081957799408658,5903.146389380565
1.548,-0.09901642374684579,5895.907628077161
1.552,-0.03596761407370515,5902.553722733245
1.556,0.07451071446214447,5901.991053948083
1.56,0.21355430273614556,5899.567856422818
1.564,0.35566043397279384,5895.211472445491
1.568,0.47529548407023947,5907.72309639767
1.572,0.5524631208509333,5897.789006386869
1.576,0.5759532099099665,5906.352201169092
1.58,0.5438964937760277,5904.219889994902
1.584,0.46224218615622,5898.622425687089
1.588,0.34221210191254964,5901.149159019419
1.592,0.19756766663543474,5896.897282866256
1.596,0.04217093562911446,5901.10616941928
1.6,-0.11189741381625422,5898.332652268991
1.604,-0.25560905926027044,5903.624452739373
1.608,-0.38374901907599007,5901.546725446278
1.612,-0.4951406666764416,5901.8047103433055
1.616,-0.5919841338828428,5901.747213242834
1.62,-0.677926007019013,5898.0938233429815
1.624,-0.7551729317091245,5901.3829549015545
1.628,-0.8220337693676808,5896.620056755669
1.632,-0.8725719545558495,5900.315246405768
1.636,-0.8989442057808426,5898.879858381851
1.64,-0.8953305832046424,5893.182131298202
1.644,-0.8614157776479542,5898.575984512866
1.648,-0.8035940002771105,5894.984417766092
1.652,-0.7331174866457567,5891.120228147265
1.656,-0.6618206097173122,5901.474150667509
1.66,-0.5972677948147997,5903.300633425342
1.664,-0.5395674695422588,5906.421732893033
1.668,-0.48137511898637525,5906.889167773514
1.672,-0.41113688369290025,5894.791194519711
1.676,-0.3182034907415908,5900.637086375338
1.68,-0.19774761303440716,5896.644894041459
1.684,-0.05364072075157098,5896.143001915787
1.688,0.10161205288920026,5896.120248456508
1.692,0.24954513126241618,5908.283610030804
1.696,0.3697370845347924,5893.013762123739
1.7,0.4437292108474,5908.088510332346
1.704,0.4580803554499281,5899.39457307668
1.708,0.406573544481156,5893.793184816485
1.712,0.2918872700640853,5888.118642103678
1.716,0.12665072055028093,5898.770845215379
1.72,-0.06692571485483376,5901.826724404893
1.724,-0.25983457293161943,5906.536255055767
1.728,-0.42146497986367815,5901.512000372788
1.732,-0.5257257711105872,5898.795849169129
1.736,-0.5560589850420553,5898.511306809594
1.74,-0.5080295062135028,5901.429857686881
1.744,-0.3893385809892156,5904.856607855584
1.748,-0.21789042013795482,5897.685305695111
1.752,-0.018756285702254214,5900.393670326128
1.756,0.17933277793798028,5899.4214677026985
1.76,0.3477047978873576,5898.778273798263
1.764,0.46156568107594914,5891.949995003709
1.768,0.5035643221307561,5894.652493521508
1.772,0.4664071375735105,5906.07133049109
1.776,0.35379736702418113,5905.215774340825
1.78,0.1794061911605035,5900.659430124664
1.784,-0.035705819237267705,5898.178809776742
1.788,-0.26625644922777797,5897.708972312879
1.792,-0.4856194511356669,5899.55313940576
1.796,-0.6681762519547934,5902.646826479941
1.8,-0.7914977713918551,5902.802614531862
