时间(s),电压(V),幅值(高频80K)
0.0,-1.245300661451851,5908.418235753775
0.004,-1.0813754977352381,5893.002029307127
0.008,-0.92044142780102,5899.502496742513
0.012,-0.7635861251537163,5904.728888888389
0.016,-0.6112582330369902,5898.962566459778
0.02,-0.4650762782185333,5901.11829014969
0.024,-0.3294916071280017,5900.559346461871
0.028,-0.21204275903425718,5890.638646301044
0.032,-0.1220571113103418,5905.186709575119
0.036,-0.06849108183308608,5905.681257625688
0.04,-0.05753408203886986,5900.101975222759
0.044,-0.09028803540973376,5901.564206095484
0.048,-0.16103819924966475,5896.8940120200605
0.052,-0.25699184233537475,5896.821546291989
0.056,-0.3600070967484425,5893.773742855584
0.06,-0.449837900373975,5916.604998453225
0.064,-0.5077835535872903,5901.196915742013
0.068,-0.5199236400583971,5893.28824400507
0.072,-0.47974944287461024,5905.35345362039
0.076,-0.3900235589246627,5902.548350972578
0.08,-0.2631190415914145,5905.930941006517
0.084,-0.11894441895727774,5899.829863703978
0.088,0.019473261765142157,5901.223274848205
0.092,0.13130992255192678,5895.37338058997
0.096,0.20230312186334126,5902.7247507694365
0.1,0.22709923330780304,5890.828511251575
0.104,0.20955207387508185,5896.902102487373
0.108,0.16120248639486848,5898.816711162052
0.112,0.09805235700890103,5911.276669313568
0.116,0.03611770574708119,5892.207991332391
0.12,-0.012916674429650624,5902.5185908004105
0.124,-0.04424655035014764,5899.165274604846
0.128,-0.059778760701006,5904.727579125818
0.132,-0.06577138717092493,5901.0246506815365
0.136,-0.06978238776526144,5900.146246719833
0.14,-0.0783373306978199,5901.195916322336
0.144,-0.09596462865761725,5900.117250926046
0.148,-0.12540821327884216,5892.529166306294
0.152,-0.16829127769270805,5900.531498423803
0.156,-0.22549116165740837,5901.2198698812535
0.16,-0.2969324628393292,5896.330176364732
0.164,-0.3810435342662173,5908.352263924783
0.168,-0.47437873599285385,5899.388872844949
0.172,-0.5717506775764505,5892.44503034629
0.176,-0.666798645673472,5898.020844500221
0.18,-0.7525891895595967,5903.97240388356
0.184,-0.8219021514207299,5899.4550557556695
0.188,-0.8673233732587551,5903.161209962925
0.192,-0.8817334935956335,5903.110552151893
0.196,-0.8596333527307812,5895.716063455372
0.2,-0.798984872240916,5895.980901736455
0.204,-0.7027202594223235,5898.964238225126
0.208,-0.5793014673594928,5905.488132496756
0.212,-0.44216988307653426,5902.028560886961
0.216,-0.30803185361080354,5900.688404408924
0.22,-0.1939292396574999,5900.080951180577
0.224,-0.11346161249734615,5899.943996189955
0.228,-0.07327611995736655,5907.05027414985
0.232,-0.07133052125777281,5899.095654547201
0.236,-0.09784861160602482,5902.608495930569
0.24,-0.13852786087464225,5904.067578062278
0.244,-0.1784474510458332,5905.160954247749
0.248,-0.20512484387744281,5895.07348529753
0.252,-0.2101149851714471,5896.3715141257935
0.256,-0.18952726226448238,5895.232434226634
0.26,-0.14415806755045324,5900.802612534298
0.264,-0.07962862925463893,5902.150833199998
0.268,-0.006436488005375727,5890.722875951526
0.272,0.06049844462554801,5902.424739988792
0.276,0.10334656446024304,5899.542484275974
0.28,0.10435722852638549,5903.495586795229
0.284,0.050142531453385916,5903.90237699357
0.288,-0.06379395096645109,5893.002522407771
0.292,-0.22978466320940732,5896.297513314417
0.296,-0.4271634662138967,5896.0559517302245
0.3,-0.6244387595366995,5901.461768309299
0.304,-0.7845928678188111,5900.026672456266
0.308,-0.8730128453414905,5906.753036652943
0.312,-0.8664206256288788,5902.382793106938
0.316,-0.7600481401857567,5903.615148898951
0.32,-0.5702397318216257,5906.387212512224
0.324,-0.331092767574558,5898.755436474134
0.328,-0.08603551640015272,5895.087012647591
0.332,0.12280078338027292,5898.216967939428
0.336,0.26389920084323365,5905.122282738552
0.34,0.32172420089369025,5903.828241452967
0.344,0.29733143348574087,5898.21130769978
0.348,0.20520220663877276,5899.80964696749
0.352,0.06821906324323224,5900.145378714101
0.356,-0.08745259307429479,5901.866215093689
0.36,-0.23664759874262709,5895.3327088237365
0.364,-0.35853193853144366,5898.37507416571
0.368,-0.43914691412079526,5897.49646793349
0.372,-0.47308568713967153,5894.820046610384
0.376,-0.463888875604233,5907.172569578641
0.38,-0.42278196606316004,5901.796191122105
0.384,-0.36582200236535584,5900.939500199527
0.388,-0.31006115194990214,5898.586380948018
0.392,-0.2696708981087737,5902.004001481998
0.396,-0.2529773598507078,5906.416754429242
0.4,-0.2610455464502553,5903.804962924372
0.404,-0.2879742544529319,5907.243943402021
0.408,-0.32268231874576037,5902.96421028632
0.412,-0.3518164485108875,5896.354762135296
0.416,-0.3633412441209501,5902.20431230174
0.42,-0.3501162439477248,5899.736562530065
0.424,-0.3123562386383482,5901.387464180849
0.428,-0.2578060332355984,5894.926170043673
0.432,-0.19916141506757143,5898.20686674604
0.436,-0.14945488661602316,5910.114310713476
0.44,-0.11707495427714823,5908.806689867543
0.444,-0.10234104098265681,5900.6003926090025
0.448,-0.09707174877300212,5902.8723583186165
0.452,-0.08751337273692542,5904.489783443936
0.456,-0.059625423396901016,5904.995850133565
0.46,-0.004574732085056932,5907.234078196613
0.464,0.0779255117734353,5898.495528260081
0.468,0.17971198027334148,5901.184642887841
0.472,0.2871986758042049,5898.532132941504
0.476,0.38560060461936074,5900.157438334137
0.48,0.46258911748524195,5904.734911931307
0.484,0.5103237294490791,5897.364913379969
0.488,0.5256411973548076,5899.187599999189
0.492,0.5090122055845718,5898.643788578316
0.496,0.46341538928024517,5901.307547421407
0.5,0.39397195124712675,5903.311849516537
0.504,0.3081801292611472,5902.158214194996
0.508,0.21586024072305793,5899.232790345101
0.512,0.12808025744911603,5903.579634220178
0.516,0.05504006687211272,5899.02914605341
0.52,0.003553655516007077,5902.558314884735
0.524,-0.024847301084899673,5891.990219167593
0.528,-0.03416952581486013,5897.411554085138
0.532,-0.03219628211065481,5897.780296345329
0.536,-0.027494631623796,5897.533487239814
0.54,-0.02679347684836847,5891.941101517282
0.544,-0.03393923019862752,5901.839161506409
0.548,-0.05033328755662411,5895.001796045207
0.552,-0.07577801490507706,5897.073371429929
0.556,-0.10876657897267873,5909.531483252886
0.56,-0.14613474080101047,5893.738054154206
0.5640000000000001,-0.18288717517966796,5891.136413674526
0.5680000000000001,-0.21322880994404747,5898.265798975348
0.5720000000000001,-0.23303154873582824,5899.177649716723
0.5760000000000001,-0.2426195391289537,5900.75191068611
0.58,-0.24799025229381255,5897.52892703189
0.584,-0.2591759642225042,5902.744108102957
0.588,-0.2861284811837809,5901.2147707301565
0.592,-0.33414053128151205,5903.431095502114
0.596,-0.4011500719852846,5899.859241798759
0.6,-0.4780677352621331,5903.564018785051
0.604,-0.5515876823340261,5897.781042422444
0.608,-0.60798845029089,5901.041622816874
0.612,-0.636496342147181,5901.056941149543
0.616,-0.6314628697728856,5904.402500196109
0.62,-0.5933174320956817,5893.241499727503
0.624,-0.5285376797998529,5894.867553691802
0.628,-0.44872257118609554,5892.451916595255
0.632,-0.3686866466568552,5901.1201945102175
0.636,-0.3036667587476714,5903.663601423845
0.64,-0.26614182676443116,5900.426528084866
0.644,-0.26305269255625735,5894.452142841956
0.648,-0.29417068839734717,5895.972436291822
0.652,-0.3520769078500201,5900.056769632551
0.656,-0.4238143802506477,5896.067804966766
0.66,-0.49381747148784516,5903.071941795156
0.664,-0.547318030490301,5903.539377266221
0.668,-0.5733016226497837,5901.348068271843
0.672,-0.5663332691504183,5895.833608082618
0.676,-0.5269849467583475,5887.469435491759
0.68,-0.4609447474698151,5898.961398350731
0.684,-0.37717675231600845,5900.369446878186
0.6880000000000001,-0.285719576628459,5903.275538635909
0.6920000000000001,-0.19564870266921597,5897.432493721726
0.6960000000000001,-0.11343316164945737,5906.085637751731
0.7000000000000001,-0.04184713182620872,5908.689032122387
0.704,0.020151596534001007,5892.154484089162
0.708,0.07615142572013353,5903.984451760408
0.712,0.1297826536582758,5912.775796672021
0.716,0.18191075409163726,5904.93896153277
0.72,0.22877385292908387,5900.746518805588
0.724,0.261931115648599,5898.08370546112
0.728,0.2701328931439004,5901.485518229318
0.732,0.2425676809180377,5900.624781251009
0.736,0.17250922517568776,5904.950025990943
0.74,0.060111372201172825,5894.572542614063
0.744,-0.08680158336029452,5898.050402566027
0.748,-0.2543819803123736,5902.135697414242
0.752,-0.42620239633205886,5905.124962784144
0.756,-0.5870278470273221,5897.867392149948
0.76,-0.7253530093795261,5896.582479433443
0.764,-0.8339201352782057,5904.090696181566
0.768,-0.908691321048177,5898.396870564142
0.772,-0.9476120218333546,5902.095350445496
0.776,-0.950326319806699,5891.952585498375
0.78,-0.9190065662237138,5905.11039759558
0.784,-0.8594276383396203,5897.049609126542
0.788,-0.7810342356398832,5901.776168442183
0.792,-0.6952979819491926,5910.729519009161
0.796,-0.6128298994394994,5906.037212550984
0.8,-0.5406515401517604,5904.807951407811
0.804,-0.4810191928502176,5897.30007263779
0.808,-0.43227151045449036,5894.27444635126
0.812,-0.39099834685329926,5898.906004054072
0.8160000000000001,-0.35420752067853156,5904.321890334137
0.8200000000000001,-0.32046861713299196,5899.825451267222
0.8240000000000001,-0.28989047773610266,5902.198494074628
0.8280000000000001,-0.2635271334642338,5893.963922628322
0.8320000000000001,-0.24294787249896102,5899.45620611072
0.836,-0.23027846963941478,5900.53887977037
0.84,-0.22837237370750957,5896.678840863839
0.844,-0.24038586177602464,5898.973718633076
0.848,-0.26830952211317777,5902.458541106308
0.852,-0.3108700825963397,5894.515385443747
0.856,-0.361963415463603,5901.839861912253
0.86,-0.4107401076629938,5909.147115299623
0.864,-0.4437573901849873,5898.183749062519
0.868,-0.4488364166748519,5894.777891769556
0.872,-0.41962683749137725,5906.0061238452245
0.876,-0.35928834763057366,5903.035270957992
0.88,-0.2814455853003608,5896.685680146127
0.884,-0.20720138157914014,5899.259304212723
0.888,-0.15864798599204774,5893.126788115685
0.892,-0.15131665316805049,5903.910702036433
0.896,-0.18891526281983465,5895.38859443633
0.9,-0.26253074796709597,5901.128776431099
0.904,-0.3540333883317015,5905.230022970108
0.908,-0.44161831883055347,5901.244231630315
0.912,-0.5052501462224596,5902.403770288278
0.916,-0.5307463263556212,5885.09530147267
0.92,-0.5122946077797277,5896.754525610356
0.924,-0.4535878853790925,5900.23563358593
0.928,-0.36742495051323515,5899.90548408185
0.932,-0.2732805687159681,5900.718422275761
0.936,-0.19275562097757076,5897.789225883476
0.94,-0.14388735406311695,5895.357274243289
0.944,-0.1361691935813039,5904.373047697731
0.948,-0.16807396666140267,5892.528183355545
0.952,-0.2279177293130016,5895.216701019845
0.956,-0.29764789032250294,5897.367155599897
0.96,-0.3582045504659927,5896.690303603082
0.964,-0.3947423786103023,5887.804432498336
0.968,-0.4001705412878622,5905.543195274045
0.972,-0.3760470383022061,5897.633640460731
0.976,-0.3307138624772632,5899.823395781511
0.98,-0.27550616583268756,5900.632547567822
0.984,-0.22059949715520205,5899.000431883358
0.988,-0.17208267123175305,5909.426493391297
0.992,-0.13098129511959603,5898.603382975434
0.996,-0.09389008367919599,5895.400444098927
1.0,-0.05452149409143161,5906.268157764483
1.004,-0.005837911717063206,5889.985484916793
1.008,0.05732066298810072,5900.581274968608
1.012,0.1355644167083438,5899.522360233776
1.016,0.2232454926616055,5894.927775385125
1.02,0.3087011485677093,5905.497388644484
1.024,0.3766661568523089,5900.287802929664
1.028,0.412163300415191,5905.971339912136
1.032,0.40469071248745586,5908.085137179876
1.036,0.3514859231418427,5910.214795948532
1.04,0.25893323208702745,5893.569639878969
1.044,0.14169952051351478,5887.362173083752
1.048,0.019752170425644526,5917.870486265665
1.052,-0.08609243074687259,5902.10727199018
1.056,-0.15901478623650347,5901.875842139315
1.06,-0.1901048335031623,5901.125419939555
1.064,-0.18013736531143473,5903.232607500949
1.068,-0.13857377722262884,5902.971087139417
1.072,-0.08008544221804786,5906.5324299709055
1.076,-0.01988980737053554,5902.213594262498
1.08,0.03035029842986501,5898.359849048039
1.084,0.06475970128770896,5904.6633251096055
1.088,0.08330211977950475,5893.200041566631
1.092,0.09020486349068088,5897.167093712434
1.096,0.09170714308554939,5903.785957336513
1.1,0.09398401656626568,5896.4040779245615
1.104,0.10170733243655315,5894.126741833026
1.108,0.11736580563611013,5909.755585701808
1.112,0.1413288737837169,5899.587475928193
1.116,0.1725230447240142,5904.236570824265
1.12,0.20936772816835672,5887.540273259628
1.124,0.250427180045025,5896.35330547927
1.128,0.29429558381143206,5899.190155080874
1.132,0.3386661675320863,5885.317825989075
1.136,0.37916882715692013,5901.883072142148
1.14,0.4089055251199853,5903.477045050916
1.144,0.41932360565145194,5901.838326519649
1.148,0.402304888257974,5899.618798508909
1.152,0.3526190888463708,5892.328291765076
1.156,0.2696798377276942,5895.632569957711
1.16,0.15796794672314238,5906.231514559445
1.164,0.026176345361473362,5900.14992468412
1.168,-0.11443084073928708,5906.069098801462
1.172,-0.25193658058197543,5898.236125363232
1.176,-0.37563639479849176,5902.403150364051
1.18,-0.47763470896030685,5907.221949088063
1.184,-0.5539421976463813,5911.870049480971
1.188,-0.604752610016876,5894.165285256493
1.192,-0.6336057894405126,5904.003269634494
1.196,-0.6455827785314081,5900.37069589801
1.2,-0.6453598289727711,5906.579684655681
1.204,-0.6361577775060715,5902.181751146592
1.208,-0.620039789632052,5897.377907119313
1.212,-0.5991306194454277,5899.407185314198
1.216,-0.5767658407728726,5903.489175104754
1.22,-0.5576199354250222,5894.583144926993
1.224,-0.5465380126549716,5899.759093612194
1.228,-0.5466800908207137,5905.160349119671
1.232,-0.5579667374216404,5895.178649134538
1.236,-0.5765006065710843,5899.833817994239
1.24,-0.5951086809763578,5890.212904813449
1.244,-0.6048249446186935,5889.802539153285
1.248,-0.597019567992238,5891.846359622292
1.252,-0.5658204602839729,5893.293446722501
1.256,-0.5103016391571883,5905.141684333235
1.26,-0.4356061920858424,5899.157543855976
1.264,-0.3521418405087704,5896.032186043184
1.268,-0.2727545135103202,5908.495075522889
1.272,-0.20904567161035337,5898.898199208566
1.276,-0.1686195002155795,5903.4574401154805
1.28,-0.1543366522968846,5902.251016486093
1.284,-0.16522809112328624,5907.847067922554
1.288,-0.19785250186051437,5895.839942711848
1.292,-0.24712838129058262,5898.721847772089
1.296,-0.30648495579091944,5906.545009795956
1.3,-0.36779092162068555,5896.285800596685
1.304,-0.42170041067396596,5903.233937911763
1.308,-0.4588470150654024,5895.392899765192
1.312,-0.471806258916764,5900.568762106722
1.316,-0.4572061741465822,5898.996206719764
1.32,-0.41712041970992964,5901.407289733684
1.324,-0.35902550047893816,5902.687710045542
1.328,-0.2940578852207937,5904.116593371168
1.332,-0.23394435851701123,5895.784570650595
1.336,-0.18760648950468808,5895.402333282706
1.34,-0.15876273644017622,5904.989611562529
1.344,-0.14557672545829997,5903.367626433458
1.348,-0.14249088831571738,5899.340119376698
1.352,-0.14331029329810113,5900.780693612144
1.356,-0.1440846749891392,5904.697538094745
1.36,-0.14462273413686752,5908.339813844405
1.364,-0.1481548036806981,5909.803923899653
1.368,-0.15934936024034296,5903.647766577425
1.372,-0.18151586021527888,5907.453239492037
1.376,-0.21420723285397944,5897.491440921208
1.38,-0.2522936592436589,5901.066984069487
1.384,-0.2870331461115735,5901.831433877208
1.388,-0.3089877815743394,5904.573089365985
1.392,-0.3118143471152045,5896.957990265837
1.396,-0.29517080356916714,5895.686843477485
1.4,-0.2649644908856908,5900.847375471492
1.404,-0.23042570719726896,5905.299941579961
1.408,-0.1994352350382357,5900.455318071029
1.412,-0.1748009208566058,5907.194356041036
1.416,-0.15375853067952183,5896.726931483024
1.42,-0.1310692937974464,5906.335311960812
1.424,-0.10390891059663675,5898.675318171472
1.428,-0.07559795121747818,5900.613789935745
1.432,-0.055816631347589,5896.642245094973
1.436,-0.05699483120510607,5901.371626582897
1.44,-0.08876441584136271,5907.308114875219
1.444,-0.1532617733586064,5904.569924488807
1.448,-0.24332061754258028,5896.324914426821
1.452,-0.34402085922269343,5898.551210547558
1.456,-0.4366897031071409,5908.0029685892605
1.46,-0.503795376815753,5900.411865566109
1.464,-0.5331990991069441,5904.601864966038
1.468,-0.5206708159962335,5900.439282860334
1.472,-0.47019861518059425,5896.688593347153
1.476,-0.39231719976146984,5901.725034926353
1.48,-0.3012996253232421,5892.880680584824
1.484,-0.2122740601263954,5899.190654853775
1.488,-0.13892854445192027,5899.166644015536
1.492,-0.09177721777355871,5911.934130081431
1.496,-0.07663117812948454,5902.631846144708
1.5,-0.09322766661945893,5905.373427815578
1.504,-0.13458340746892428,5891.02269617013
1.508,-0.18792840438919967,5899.923858303711
1.512,-0.23763303304153016,5896.811093209177
1.516,-0.26956116565339694,5903.15782605569
1.52,-0.27545075733104485,5906.749723276424
1.524,-0.2557105604351468,5895.894292696742
1.528,-0.21938829655639044,5897.358291461006
1.532,-0.18091840929128097,5901.417166120549
1.536,-0.15453185593417718,5902.315393115921
1.54,-0.14839689754078658,5897.146573633197
1.544,-0.16086565932246008,5908.620048931516
1.548,-0.1803701861123407,5892.312289634043
1.552,-0.1890752255480403,5901.17080039232
1.556,-0.16906462994597593,5895.403708298062
1.56,-0.10898200965284358,5903.493323009222
1.564,-0.008855465967871626,5895.182540793437
1.568,0.11849094795478146,5894.021403006658
1.572,0.24974463571860317,5906.076066338989
1.576,0.3563333575383737,5901.307373602717
1.58,0.41130306218897233,5890.042936948288
1.584,0.3963180849537619,5906.229648232095
1.588,0.3069105480599894,5909.905149352071
1.592,0.15412478180534275,5900.070127645769
1.596,-0.03836385755825362,5891.727639517388
1.6,-0.24088539735723655,5895.776275413764
1.604,-0.42578487757639094,5903.602286780385
1.608,-0.5738596722670785,5907.710228472188
1.612,-0.6771362522789559,5892.236625403657
1.616,-0.7376355955376995,5894.882701174896
1.62,-0.7634145458340093,5901.3740674179135
1.624,-0.7639036231787039,5898.651783296343
1.628,-0.7461839570187476,5905.041517035529
1.632,-0.7129829127770705,5901.396902298866
1.636,-0.6626159427586609,5902.978865152342
1.64,-0.5908236804218843,5897.808257790289
1.644,-0.49395793555144946,5903.888680141042
1.648,-0.3723937338856634,5910.208940130709
1.652,-0.2329235157229482,5901.500912130678
1.656,-0.08929162784319516,5905.142207059349
1.66,0.039370249367338954,5902.60489922384
1.664,0.13189357100002347,5906.412977930118
1.668,0.16952775271779238,5897.7621951944575
1.672,0.1406147473585727,5901.60524970382
1.676,0.044400446249585515,5906.181764061689
1.68,-0.10724811787750034,5896.277355398733
1.684,-0.29118035331832465,5901.525875950552
1.688,-0.47739248698858083,5899.742700376362
1.692,-0.6353688183504755,5897.910794074046
1.696,-0.7404059575377041,5896.521821505652
1.7,-0.7781912753693013,5901.034588967477
1.704,-0.7467858489160574,5896.260778869186
1.708,-0.6560876425749834,5899.357006753004
1.712,-0.5253806828416325,5894.616081566764
1.716,-0.3796290368883533,5899.134089361279
1.72,-0.24500861727848197,5902.4018852115405
1.724,-0.1441958434165818,5896.392493293169
1.728,-0.09224399123815148,5897.413177003819
1.732,-0.09403396573462151,5906.309809080365
1.736,-0.14384781021011342,5895.747125623357
1.74,-0.2268504530279545,5902.01173294511
1.744,-0.3219061018127766,5895.725816949174
1.748,-0.4053672562559927,5895.9184907681065
1.752,-0.45562972009974595,5904.80678116156
1.756,-0.45788400145280705,5899.300030965848
1.76,-0.4079535523433807,5899.463450386064
1.764,-0.3140227319631974,5908.374962821844
1.768,-0.19561562739835278,5901.070326620389
1.772,-0.08004609417571636,5907.522487213199
1.776,0.002778843378244436,5901.871368399474
1.78,0.026097682827442695,5899.547255242868
1.784,-0.028324370988756967,5886.845731571446
1.788,-0.16554916542010711,5904.20457284291
1.792,-0.37345302753262827,5899.236921133623
