时间(s),电压(V),幅值(高频80K)
0.0,-0.1183047661826733,5908.894465802514
0.004,-0.21116454738500037,5897.436776759975
0.008,-0.3066928177313845,5887.4324293259015
0.012,-0.4032781318604864,5893.896971924814
0.016,-0.49440758173435095,5897.106117520119
0.02,-0.5700081692420339,5898.7691894839845
0.024,-0.6200157144642654,5897.489941571407
0.028,-0.638362510239615,5902.379774397223
0.032,-0.6254026783578256,5902.1843924182485
0.036,-0.5877603670856368,5897.57246178936
0.04,-0.5359670417842897,5897.572651205368
0.044,-0.4811792852840738,5886.968689182446
0.048,-0.43236885034624534,5904.769641351605
0.052,-0.3948338916109451,5899.960273417551
0.056,-0.3700873097137282,5903.160016747701
0.06,-0.35655656468318325,5902.53510416769
0.064,-0.35043552771997,5900.039998120509
0.068,-0.34645718265858544,5894.69357855022
0.072,-0.33880571674943755,5902.871290257273
0.076,-0.32236115026377543,5897.719287520712
0.08,-0.29406256119163227,5897.645443982337
0.084,-0.25389073032411563,5898.255819744864
0.088,-0.20508866778695883,5903.997350615956
0.092,-0.1535938988280938,5907.489274139913
0.096,-0.10690580060642602,5893.578902204687
0.1,-0.07262154417171933,5900.927425689783
0.104,-0.05687662120187454,5904.458352982014
0.108,-0.06313412618563577,5905.226729391688
0.112,-0.09190787083714179,5905.995423161781
0.116,-0.1416127571878505,5899.289337861769
0.12,-0.20992497531020105,5901.177588027618
0.124,-0.2945819096219912,5897.391440990091
0.128,-0.3930301463701352,5895.960685993153
0.132,-0.5013466396227141,5899.4409983953565
0.136,-0.6134154901953336,5898.692011398049
0.14,-0.7209430800739658,5894.754401570947
0.144,-0.8140739842291079,5893.971586684889
0.148,-0.8820693442400129,5903.398272995363
0.152,-0.9139968584017981,5895.925236593905
0.156,-0.899936336406895,5897.329458252976
0.16,-0.8329985153000936,5894.057816599228
0.164,-0.7116412396796414,5901.1498626731045
0.168,-0.5413158878481522,5896.403367958513
0.172,-0.3348520199358141,5900.614606864292
0.176,-0.11155974471767124,5906.349760771896
0.18,0.10486530205916755,5896.457534378944
0.184,0.28964065893064445,5899.72876990292
0.188,0.42112403381335944,5898.650461340874
0.192,0.48512622823309764,5912.409027472514
0.196,0.4781291257083894,5898.293574583679
0.2,0.40832371498940784,5900.365812195316
0.204,0.29378406681242486,5894.862497349132
0.208,0.15781075158562483,5898.0041275126605
0.212,0.022617922906271327,5899.691447137839
0.216,-0.09634234968562179,5899.903691945825
0.22,-0.19304822251963413,5897.998356311022
0.224,-0.26964849320057444,5892.583689148768
0.228,-0.3324319302775649,5904.435380608088
0.232,-0.3873633195540712,5900.364100650577
0.236,-0.4371571517146632,5897.911434198243
0.24,-0.4805648950664778,5894.088773961369
0.244,-0.5133876905443672,5898.446700834512
0.248,-0.5303013478283042,5894.483598330531
0.252,-0.5267421473030043,5903.042416298966
0.256,-0.5003048262148833,5905.924818676906
0.26,-0.45117124741026937,5901.344740082272
0.264,-0.381381978094212,5886.128038452444
0.268,-0.293451740263763,5910.986034548124
0.272,-0.1894062755502811,5905.788965040948
0.276,-0.0711134101865623,5900.456387909924
0.28,0.058243293502704,5908.758696668918
0.284,0.19273564591760364,5907.015016396067
0.288,0.3235264995748696,5897.1999340211405
0.292,0.4401313085304301,5903.395200913336
0.296,0.5322192771641157,5902.368048512153
0.3,0.591009634326132,5901.978562824965
0.304,0.6099756146060585,5899.432800161068
0.308,0.5850832803788985,5902.794197471461
0.312,0.5148892636102735,5899.813720365857
0.316,0.4007661243429402,5898.285340497114
0.32,0.24746749173658047,5900.004356706281
0.324,0.0640565981730061,5902.47488595997
0.328,-0.13522871450556084,5893.047074596777
0.332,-0.3310503654112628,5895.303321392035
0.336,-0.5007259778143458,5907.994025251182
0.34,-0.6216385627666391,5896.187380526243
0.344,-0.6755961907606419,5901.074357952765
0.348,-0.6532648552816264,5899.325917430945
0.352,-0.5576867583816797,5901.193923338983
0.356,-0.40560123663382425,5902.468373005925
0.36,-0.22536491533248823,5909.890061326591
0.364,-0.051243802738892764,5898.128190661754
0.368,0.08459938652260608,5895.561419715496
0.372,0.15992880536145754,5903.917851140425
0.376,0.16755711785646019,5902.417199852393
0.38,0.11628163389466448,5898.571329035312
0.384,0.027439396793065673,5898.317388840104
0.388,-0.07203052310126429,5901.447390616681
0.392,-0.15802392608426136,5895.877740115582
0.396,-0.21618684499870852,5899.463598924859
0.4,-0.24439938728183813,5898.586235630155
0.404,-0.2499141979582338,5897.272040587987
0.408,-0.24308351835267905,5906.420104932665
0.412,-0.23123348052058823,5898.041530279681
0.416,-0.21564767615199687,5903.900248344934
0.42,-0.19264798771090563,5907.223331920114
0.424,-0.15781618080013837,5906.228983751752
0.428,-0.11113608158479817,5893.007077466399
0.432,-0.060382624319425635,5902.616670142057
0.436,-0.02072688007271749,5900.510767344158
0.44,-0.010290926228694184,5906.431174669632
0.444,-0.04342383358892854,5907.10864442384
0.448,-0.12463182883916869,5902.03149139741
0.452,-0.2458429354308529,5896.703571676455
0.456,-0.3881738256586843,5903.393161411023
0.46,-0.5272909656753676,5901.812444758763
0.464,-0.6399791520406354,5902.515819785303
0.468,-0.7095257948906605,5889.344795819792
0.472,-0.7286903253258122,5902.434923426618
0.476,-0.7001923611039942,5904.933300968143
0.48,-0.6350958796767034,5906.944009686645
0.484,-0.5495062686677562,5901.828365686761
0.488,-0.46024194957543835,5901.769631798325
0.492,-0.38055772911509816,5905.536184208142
0.496,-0.31708663871490117,5894.42094739139
0.5,-0.26879193638471366,5904.735288204863
0.504,-0.2281699171395121,5905.179096421792
0.508,-0.1843852860067183,5894.630313396088
0.512,-0.12748455628281247,5899.810167432226
0.516,-0.05249997499681873,5897.82742167707
0.52,0.037746831539137424,5904.51719701748
0.524,0.13210303000028042,5906.958648565073
0.528,0.21331954696243113,5894.005774773515
0.532,0.2627592855147482,5898.705379998493
0.536,0.26617206944317934,5902.053939656211
0.54,0.2183865511118829,5902.282566837993
0.544,0.12514001554071152,5898.702868868335
0.548,0.0016353364210116782,5903.350101027789
0.552,-0.13127646560622283,5901.9634663257375
0.556,-0.2519286960883617,5903.234632291555
0.56,-0.3425304796640181,5898.611574296615
0.5640000000000001,-0.3928410828147761,5900.515094075562
0.5680000000000001,-0.4020388237105264,5902.967793377001
0.5720000000000001,-0.378154778832601,5896.261397108237
0.5760000000000001,-0.3350595587088143,5894.716924978049
0.58,-0.28788765665225974,5888.950792036628
0.584,-0.2483390596602199,5899.724637239448
0.588,-0.22129812545968322,5897.975881967082
0.592,-0.2038740228847975,5889.858265036586
0.596,-0.18729631563143515,5894.805428901084
0.6,-0.16098360715384133,5894.993903285973
0.604,-0.11697069561865545,5898.119707352324
0.608,-0.052608816808325985,5894.346948515729
0.612,0.029510471005271932,5903.078715193687
0.616,0.12372100184807079,5908.691793021737
0.62,0.22368297254467184,5900.546736429465
0.624,0.3234297139811875,5897.154393017122
0.628,0.41685787475985187,5895.496863969308
0.632,0.49674496875350993,5897.3782469865
0.636,0.554609786481672,5902.831045732086
0.64,0.5820415441700317,5900.19656781686
0.644,0.5731825807076899,5901.098126384103
0.648,0.5272710449003846,5895.416413777592
0.652,0.4498519254925748,5896.360029676326
0.656,0.351819148151605,5903.492067750189
0.66,0.24669885840325279,5905.755579627787
0.664,0.14757721640778976,5901.463862015302
0.668,0.06494971723916325,5896.969855239808
0.672,0.00578005370310664,5898.429808386927
0.676,-0.026716856757081592,5900.424099779933
0.68,-0.033043969728676306,5891.935199129135
0.684,-0.017229353000083995,5893.011012696267
0.6880000000000001,0.013693669514767122,5897.4617089689455
0.6920000000000001,0.05077414218153331,5903.655685788062
0.6960000000000001,0.0849756971789959,5900.576617454009
0.7000000000000001,0.10951432210311181,5899.780632363197
0.704,0.12180289730196991,5903.008243129562
0.708,0.12391037341971595,5900.790977971335
0.712,0.12112557848404455,5897.532492663343
0.716,0.11924570470917095,5900.933327476344
0.72,0.1217671614200277,5894.990760999251
0.724,0.127974589340233,5895.086898350618
0.728,0.13243118411200816,5896.095344524049
0.732,0.1260936623560191,5905.077433590226
0.736,0.09911415696825203,5896.270168766534
0.74,0.04492023657591617,5890.764020790617
0.744,-0.0355544632929828,5902.848073524763
0.748,-0.13109897650718275,5905.045659917357
0.752,-0.2204479766327154,5904.390911157216
0.756,-0.27631181814315925,5900.221910327974
0.76,-0.2727167988227776,5904.994793739714
0.764,-0.1936539570631264,5901.277464827569
0.768,-0.04007487170856969,5890.982804532694
0.772,0.16749745944304475,5906.78172119179
0.776,0.39204246524157194,5900.8801128881
0.78,0.5881340022853642,5901.763987983454
0.784,0.7127393564664335,5895.756151350713
0.788,0.7356631446899553,5898.908277687269
0.792,0.6468533432547772,5899.804531501264
0.796,0.45880208439044856,5894.229341571686
0.8,0.2035492758420424,5904.640175892456
0.804,-0.0748987723327185,5900.834081467573
0.808,-0.33069685480542793,5898.76284848849
0.812,-0.526110571700941,5906.184756212232
0.8160000000000001,-0.6388497698096556,5904.165770956073
0.8200000000000001,-0.6652636323615508,5903.5761968176885
0.8240000000000001,-0.6188496196499723,5907.917010072066
0.8280000000000001,-0.5245971307213858,5903.182173979884
0.8320000000000001,-0.4109619777677812,5894.617979883084
0.836,-0.3021730825920619,5899.923154714852
0.84,-0.2133522221189893,5905.673991207744
0.844,-0.14957018448223583,5902.596773754207
0.848,-0.10827473330545864,5894.619369379594
0.852,-0.08343178497932371,5904.577195197259
0.856,-0.06957096825179578,5905.661657114677
0.86,-0.06440654600391812,5897.82236102862
0.864,-0.06935930465895586,5894.69489229905
0.868,-0.08800180247315802,5897.068208411656
0.872,-0.12318298564784548,5894.9145521855735
0.876,-0.17411074183314842,5903.640464334846
0.88,-0.23469330559138737,5900.747902968953
0.884,-0.2939574275276436,5897.338729286509
0.888,-0.33856397110779285,5890.226449182769
0.892,-0.35662687163815926,5898.880564154088
0.896,-0.34155891001437394,5899.427528460135
0.9,-0.2946291546904814,5902.574181134546
0.904,-0.22520110237169555,5901.7437617869455
0.908,-0.14827670337598847,5904.006242381116
0.912,-0.08005125789551476,5900.003550947869
0.916,-0.033156341849151755,5901.926130919693
0.92,-0.013374184906996864,5894.483966798885
0.924,-0.018848895624938387,5911.018367803058
0.928,-0.0418735566633968,5902.500497238412
0.932,-0.07255160768251807,5902.502031827272
0.936,-0.10294277584856994,5900.656459344511
0.94,-0.12998629513947,5901.453098831356
0.944,-0.15604117128722034,5905.148575199267
0.948,-0.187052517993178,5910.524912850747
0.952,-0.22928217962004815,5896.8402325815005
0.956,-0.28581702369987577,5899.071042738274
0.96,-0.35398209053563556,5902.422826345233
0.964,-0.42461073377806796,5900.060927197527
0.968,-0.483690194742034,5900.473306085048
0.972,-0.5160477064943721,5886.910857409561
0.976,-0.5098566956508074,5896.298433967606
0.98,-0.46046012562816335,5900.306873899799
0.984,-0.3724193884108138,5901.856396494
0.988,-0.2592880926632795,5894.692995838749
0.992,-0.14104900202000667,5903.304000085057
0.996,-0.03961088937521808,5895.321314577644
1.0,0.02665563768844029,5896.605903877127
1.004,0.0479006114163152,5902.866547184785
1.008,0.02573089982592869,5905.116928450823
1.012,-0.02711775458680558,5901.248887271817
1.016,-0.09061510074991891,5890.781494345021
1.02,-0.14362407568184668,5908.698073890317
1.024,-0.17026762685078656,5898.877508061823
1.028,-0.16427036602431794,5906.711246040915
1.032,-0.1298943573151266,5899.703874557524
1.036,-0.07934331384374207,5905.831816127682
1.04,-0.027858756456182777,5900.045767299547
1.044,0.011355323537980619,5898.426972234744
1.048,0.030378850805923684,5900.614507175107
1.052,0.027179223884703133,5904.264603293849
1.056,0.004159604624569231,5913.704217466489
1.06,-0.03408896901500433,5891.737868140399
1.064,-0.08277495579508377,5903.636220096435
1.068,-0.13806753253193466,5898.164301688012
1.072,-0.19723895564814176,5903.861191418496
1.076,-0.25794321291565475,5895.6200298635
1.08,-0.31714832582792174,5906.674848881296
1.084,-0.37037838448762633,5891.544031704355
1.088,-0.41173390240075447,5904.296414272347
1.092,-0.43481811498561496,5892.596556215587
1.096,-0.434362062687431,5901.77686147886
1.1,-0.40805679717346993,5897.375026894879
1.104,-0.35794167404194965,5898.612327628699
1.108,-0.2908007666085421,5906.630558374019
1.112,-0.21737309619282127,5897.355113866874
1.116,-0.15054771182716242,5901.557476751095
1.12,-0.10296500504388598,5905.495332187616
1.124,-0.08464314179623178,5901.390656403171
1.128,-0.10124261416565597,5897.047379494763
1.132,-0.15316641196817823,5906.333479019604
1.136,-0.23517827804373592,5899.556436060595
1.14,-0.33618930109892037,5897.2631685190045
1.144,-0.4394241355625,5903.691307374985
1.148,-0.5238003399268503,5902.748157341338
1.152,-0.5672985718525264,5897.636153072542
1.156,-0.5520938730107872,5897.88277325492
1.16,-0.4699039214213808,5902.6590665311805
1.164,-0.3254692447330233,5915.509569787354
1.168,-0.13672793707013162,5908.171836192089
1.172,0.06845273768514772,5894.069906879762
1.176,0.2579219287708669,5898.673910917378
1.18,0.4015266849831185,5899.767169557354
1.184,0.4763511201090471,5901.029275661193
1.188,0.47002607119156903,5906.017517797404
1.192,0.382223499066364,5903.394885155579
1.196,0.22484534646124751,5904.748511800776
1.2,0.020959653315670967,5898.1981937608125
1.204,-0.1980849353805604,5905.526864065687
1.208,-0.3978443696976344,5897.312452997672
1.212,-0.5477722729343432,5903.438437049391
1.216,-0.6283076984200927,5901.239085182467
1.22,-0.6357007909885366,5900.738257922805
1.224,-0.5826154609753685,5904.716813557843
1.228,-0.49389283134121936,5893.66709051879
1.232,-0.39861912640082364,5896.550253871187
1.236,-0.3210884198447925,5899.275309784856
1.24,-0.2737438740432331,5899.53691899785
1.244,-0.2544533892156154,5899.876752498525
1.248,-0.2488425116554243,5899.375520186787
1.252,-0.23662064750446674,5894.233004502561
1.256,-0.19959186427160436,5893.086778318482
1.26,-0.12866713684164888,5905.582450218897
1.264,-0.027686330425794603,5895.353583918767
1.268,0.0870368134811367,5901.677439655169
1.272,0.19118783173886839,5893.797888269879
1.276,0.2594576168530552,5899.577372641825
1.28,0.27284880496981045,5903.2458453084455
1.284,0.22402417003814182,5906.337849232945
1.288,0.11908339263272338,5894.562873357228
1.292,-0.024695863788116095,5900.182554941964
1.296,-0.18417502730450838,5895.674600610399
1.3,-0.3365933661307176,5901.506666726804
1.304,-0.4644447513944524,5908.106437466966
1.308,-0.557669387515158,5901.817972363387
1.312,-0.6132419599186276,5901.796809878921
1.316,-0.6333192607190314,5901.916137364446
1.32,-0.6233751829451298,5896.539578430914
1.324,-0.5910857377054322,5906.436864576082
1.328,-0.5456874805799764,5902.257412016059
1.332,-0.4970516782597268,5894.229763434578
1.336,-0.45413584247079736,5894.793331883124
1.34,-0.42327649976329274,5905.361601710358
1.344,-0.40723658430896403,5897.583769511291
1.348,-0.40561907677177456,5905.678537115486
1.352,-0.4163759247916522,5901.386790916579
1.356,-0.43738272717722987,5900.680958492017
1.36,-0.46707913097508474,5895.91579135954
1.364,-0.5039353960651032,5899.349289443022
1.368,-0.5453654499099113,5903.199008909958
1.372,-0.587117057727769,5902.434813320988
1.376,-0.6238504483481513,5898.6146472668925
1.38,-0.6506451739605431,5896.640519515846
1.384,-0.6643160660391018,5893.674239978939
1.388,-0.6635745773168507,5905.073931786959
1.392,-0.6480924304581593,5898.072886383283
1.396,-0.6173716200244522,5897.989565378705
1.4,-0.5703681449766633,5904.547170002766
1.404,-0.5062422997689264,5898.822808161955
1.408,-0.4258620109207954,5895.686662287863
1.412,-0.33316447480935363,5905.932828810602
1.416,-0.23549857846910008,5898.641433645505
1.42,-0.14264422120998688,5896.923823498383
1.424,-0.06490228095969029,5904.845426557043
1.428,-0.010932934565276357,5895.863677568898
1.432,0.014131206910214075,5910.022633465198
1.436,0.009909988295898007,5903.242178861616
1.44,-0.01903507488100633,5899.060237749912
1.444,-0.06416835430967575,5902.7947405311725
1.448,-0.11473818730018472,5902.35726471129
1.452,-0.15975994371649174,5904.566629341039
1.456,-0.18985560041212515,5891.326582594178
1.46,-0.19870922911476585,5904.26136649853
1.464,-0.18383629257244816,5901.606849942404
1.468,-0.14649522964070355,5903.66748365564
1.472,-0.09096867336435055,5895.241636797926
1.476,-0.02367784847706483,5899.343356850721
1.48,0.04762483013439867,5900.206672066791
1.484,0.11472982917882146,5899.802105600458
1.488,0.1700909879496197,5904.322860625597
1.492,0.20799303431444716,5914.349634944568
1.496,0.22528408647426318,5899.192947421364
1.5,0.2213281168573921,5892.863178230602
1.504,0.19715607624383655,5904.880330965011
1.508,0.1541114881684602,5900.9566867918575
1.512,0.09266105843964276,5897.284378331977
1.516,0.012240332042888801,5908.012684029203
1.52,-0.08739008691890063,5896.774553559683
1.524,-0.20367729989362707,5909.453462861634
1.528,-0.32888026987170715,5907.504448896182
1.532,-0.4491484657325726,5896.547683364443
1.536,-0.5459778477158843,5902.436699115591
1.54,-0.5999669964609174,5905.6891919969285
1.544,-0.595859153540824,5894.773976419349
1.548,-0.5273270623044403,5902.535977677621
1.552,-0.39990500927094963,5896.169289174421
1.556,-0.23086747076702255,5897.023867515793
1.56,-0.0457058096901972,5903.637593262709
1.564,0.12786635465764912,5897.040084777183
1.568,0.266239649531335,5895.615983386009
1.572,0.3542652020672692,5901.224442962722
1.576,0.3865578403748674,5898.673313440669
1.58,0.3662663736255355,5891.824025049413
1.584,0.30259665330192775,5902.248449705347
1.588,0.20818384038786963,5904.676588908736
1.592,0.09693763152167177,5894.506858010943
1.596,-0.017412430457195673,5890.602477829144
1.6,-0.12222703918446537,5895.853234796694
1.604,-0.20671884928477763,5902.123905846433
1.608,-0.2628233150365742,5894.208570308604
1.612,-0.2860916274979547,5902.169475548286
1.616,-0.2763570247054166,5904.360003404725
1.62,-0.23798108384558322,5894.639107237143
1.624,-0.1795181299213508,5897.754439011011
1.628,-0.11264989660194681,5903.585289515671
1.632,-0.05049717487462119,5902.340805015029
1.636,-0.005820520113806222,5899.312290960404
1.64,0.01036478634995757,5897.3891756859375
1.644,-0.010212770984192926,5892.653600110872
1.648,-0.07196988160060483,5888.565060674742
1.652,-0.1740015796295256,5902.335669629437
1.656,-0.30872001593506965,5899.777435912303
1.66,-0.4614257335010021,5907.330724310576
1.664,-0.6114561072956366,5901.82856084313
1.668,-0.735196366787721,5894.406197047266
1.672,-0.8107788233393272,5896.76577485472
1.676,-0.8235606697303011,5899.7846987781
1.68,-0.7707720321319039,5885.377827826688
1.684,-0.6636167371901112,5895.790187693096
1.688,-0.5256736658416976,5904.030024258454
1.692,-0.3875172922170093,5891.090998140804
1.696,-0.2789308197740809,5904.91232822126
1.7,-0.22135556942463297,5898.319656322865
1.704,-0.22327689541804993,5898.76225708324
1.708,-0.27978999062025495,5906.196905263606
1.712,-0.3756864502761547,5897.301531735273
1.716,-0.49033636797256663,5897.908978428853
1.72,-0.6026267352584151,5905.619120651253
1.724,-0.6947472997598685,5907.314534036746
1.728,-0.754346481232065,5893.650247875315
1.732,-0.7752639572547196,5902.6866142002455
1.736,-0.757294750309164,5893.21199586393
1.74,-0.7052340943522021,5901.876319717746
1.744,-0.6273474374878126,5903.191717749384
1.748,-0.5337172988716038,5901.578778490983
1.752,-0.43518848846014735,5902.2588157606215
1.756,-0.3433065260301127,5907.924078365116
1.76,-0.2707750447436959,5899.751627708323
1.764,-0.2311116955084015,5896.111654582212
1.768,-0.23599246705379473,5907.372701164086
1.772,-0.28959211013094205,5911.727235311144
1.776,-0.3808518555043427,5895.379783333
1.78,-0.47632675031663546,5907.481329030944
1.784,-0.5172826439940187,5901.420066507935
1.788,-0.4244693893550569,5893.753137540726
1.792,-0.11225377780241057,5898.583244882785
1.796,0.4892890603977372,5906.752204750249
