时间(s),电压(V),幅值(高频80K)
0.0,0.3695693738418425,5898.282507569624
0.004,0.04871303136048467,5902.339745431711
0.008,-0.2405485691845647,5907.309618630268
0.012,-0.4727148469806345,5899.2232913735015
0.016,-0.6344310598759556,5906.890540830643
0.02,-0.7240664243896928,5904.147260700313
0.024,-0.7477765726656452,5891.985799117763
0.028,-0.714774101603373,5900.502635079229
0.032,-0.6345975306064388,5902.455530957183
0.036,-0.5173529246922571,5906.976454409438
0.04,-0.3755487060097645,5896.594233780253
0.044,-0.22516295308808504,5895.018538884568
0.048,-0.08458272533624366,5901.3023415719
0.052,0.028168980593201526,5897.348601671197
0.056,0.0985468823569775,5897.363402828142
0.06,0.1178740824167953,5900.354023527525
0.064,0.08477998525246255,5895.018245216427
0.068,0.005858094246305248,5902.386644399824
0.072,-0.104631370076453,5900.795690583052
0.076,-0.22664565110493184,5892.199008287692
0.08,-0.3381373500146991,5901.9718712450585
0.084,-0.4200069434266975,5900.220122101068
0.088,-0.46075654730091375,5894.265880011162
0.092,-0.4594334452514524,5899.557524885221
0.096,-0.42595945922415834,5890.165518117414
0.1,-0.37849540244510677,5893.965813666528
0.104,-0.33824188114551346,5897.067595353851
0.108,-0.32310062773899245,5908.613301569538
0.112,-0.3423221206776364,5893.305040865251
0.116,-0.3939893818415088,5899.043853620225
0.12,-0.4660585008140543,5898.335105705139
0.124,-0.5403970530970807,5902.255850778848
0.128,-0.598343228621837,5907.1592931485175
0.132,-0.6259187420352358,5899.933869650372
0.136,-0.6170892019359742,5897.522879574411
0.14,-0.5743329939816054,5892.338769117241
0.144,-0.5068226014012133,5897.341623948281
0.148,-0.42724206716282964,5899.095902298953
0.152,-0.3484635688361875,5898.978878173846
0.156,-0.28101512864721107,5897.542132984102
0.16,-0.23168398185514064,5894.7095019140725
0.164,-0.20312596138305944,5892.440623604523
0.168,-0.19425663663708131,5904.362053009049
0.172,-0.2012339187999486,5896.967181192905
0.176,-0.2186957938034873,5897.063759885487
0.18,-0.2407817645185222,5907.2778459237925
0.184,-0.26165074763959223,5906.216105662991
0.188,-0.2756056597812895,5902.565041917305
0.192,-0.2772284239868173,5902.964323535917
0.196,-0.2619489693496582,5898.25162271266
0.2,-0.22721730316940011,5901.58631667943
0.204,-0.17401929672815827,5898.204776483626
0.208,-0.10805501698795174,5893.6527543854445
0.212,-0.03972855568787552,5906.829530226836
0.216,0.017602348289986632,5902.499566003408
0.22,0.05092802962617571,5897.518212597753
0.224,0.051420752258429805,5898.775364868039
0.228,0.01732838407591351,5897.713110855647
0.232,-0.04527591974816332,5902.251619233113
0.236,-0.12411213509797864,5897.679243936939
0.24,-0.20379571574304722,5896.034649367477
0.244,-0.2691319637957976,5898.936938108757
0.248,-0.30781196069222655,5908.64862028012
0.252,-0.31243290202396135,5890.774061915129
0.256,-0.2819201930123195,5900.361260000913
0.26,-0.22206416849795013,5894.314486370653
0.264,-0.14468272498610737,5885.817455552094
0.268,-0.06531619067863313,5908.657289059631
0.272,-4.815574978452083e-05,5900.280753769976
0.276,0.03759613719181304,5894.195770516041
0.28,0.03891534026471474,5898.8632509868185
0.284,0.0011504957279301583,5895.021337985235
0.288,-0.07249295792410061,5896.115768091232
0.292,-0.1736425247538472,5894.399544356174
0.296,-0.2899465262277391,5903.177410116282
0.3,-0.40627680806826055,5900.130119922242
0.304,-0.5059577428720377,5900.34270809195
0.308,-0.5724710496149022,5900.1012515765615
0.312,-0.5920388010414758,5908.682092192184
0.316,-0.5567838751726947,5898.849829646797
0.32,-0.46734520116065636,5905.366324699963
0.324,-0.33374047277539204,5898.800094793217
0.328,-0.17409915785171862,5902.19433623839
0.332,-0.011770776403240204,5903.51591335364
0.336,0.1285136251880721,5884.486476316068
0.34,0.22494345263092963,5906.966570323213
0.344,0.2627841562355065,5887.384990815585
0.348,0.23740033926310125,5899.154852896311
0.352,0.1551316239254356,5899.594409111191
0.356,0.03161401622846495,5893.487483500606
0.36,-0.1119205522135033,5899.058714879695
0.364,-0.2531576689663409,5896.940030299009
0.368,-0.37276083966191803,5898.3608489903045
0.372,-0.45716829647800855,5891.062728614506
0.376,-0.4999643484585479,5901.27749597183
0.38,-0.5021392361561504,5900.7913735413495
0.384,-0.47158763398162457,5904.517996283001
0.388,-0.4219477510102796,5897.848666008318
0.392,-0.3707289028524078,5903.944741069016
0.396,-0.33667165896501455,5899.484141950492
0.4,-0.3363273611325649,5901.185898764072
0.404,-0.38009200877755533,5895.481375813733
0.408,-0.46853323797107593,5898.567056025888
0.412,-0.5904866065725902,5905.272430841973
0.416,-0.7243856126972685,5905.688005236377
0.42,-0.8432163649048356,5897.654682647567
0.424,-0.9218190367158102,5907.398138097894
0.428,-0.9440945982224862,5895.668140216535
0.432,-0.907687657317068,5899.0535969311695
0.436,-0.8246358564145696,5905.4061488263
0.44,-0.7177007981952033,5900.847000177357
0.444,-0.613348403404713,5901.673195291648
0.448,-0.5335834461600187,5902.808596124631
0.452,-0.4896630523319335,5888.50986406111
0.456,-0.48021434493857007,5901.945713501692
0.46,-0.4941212506166903,5903.041248593921
0.464,-0.5160289356142393,5895.206376003173
0.468,-0.5314331559395501,5901.971820536131
0.472,-0.5296082167384596,5900.437323235374
0.476,-0.5046442253077187,5897.0844773229
0.48,-0.45579149916736267,5897.970088489372
0.484,-0.38765159806487887,5902.019203643162
0.488,-0.3095941038045399,5893.772969287929
0.492,-0.2335335197315185,5905.318726118309
0.496,-0.17017717459272544,5892.004095763853
0.5,-0.12511551715454822,5897.920452536803
0.504,-0.0966072665492529,5908.674902045344
0.508,-0.07632318479154125,5905.208182361572
0.512,-0.053057762970641235,5910.387474126369
0.516,-0.018093670724241263,5899.214741951961
0.52,0.029973313190439776,5905.360481288736
0.524,0.08315929904405465,5897.73219011505
0.528,0.12597469503391673,5897.37311059035
0.532,0.14079956255002277,5903.398726543934
0.536,0.11471152015928636,5896.937824965568
0.54,0.04495386600724816,5903.684379211525
0.544,-0.059330960503085506,5897.782826107604
0.548,-0.1798300207749497,5904.722098871406
0.552,-0.29485089532368,5893.486910525089
0.556,-0.3854721515380954,5897.946483904562
0.56,-0.4396981390895265,5908.796417999768
0.5640000000000001,-0.4538137840019205,5899.262148701681
0.5680000000000001,-0.4315479376133557,5896.525157506389
0.5720000000000001,-0.3819589978850482,5893.76722766626
0.5760000000000001,-0.31654054995666747,5902.019786694575
0.58,-0.24599575272048244,5893.108956565604
0.584,-0.17761210211100623,5899.698847172863
0.588,-0.11429797112559388,5899.68051050984
0.592,-0.05566424766387136,5899.676959858443
0.596,-0.0005838930107543333,5892.950158608881
0.6,0.04997870694526793,5895.164089376565
0.604,0.09125511879808129,5894.7741244776735
0.608,0.11507859910419253,5900.554827139806
0.612,0.11250442896134573,5898.936147450258
0.616,0.07773602402600745,5901.768017881923
0.62,0.011758105401906641,5899.513746903383
0.624,-0.07603869177911618,5898.951693160868
0.628,-0.16923352782715897,5891.8751075781365
0.632,-0.24835796685429504,5898.683926456964
0.636,-0.295970675030991,5900.305095689315
0.64,-0.30117515671227724,5901.782987191483
0.644,-0.2624664473770425,5895.068320100413
0.648,-0.18833463523411775,5905.491320661976
0.652,-0.09551818825742271,5898.958902820147
0.656,-0.005341885244327083,5904.9449697466725
0.66,0.06098086260005499,5899.42864405513
0.664,0.08703960687103035,5902.505815112093
0.668,0.06490767793350123,5897.413832563151
0.672,-0.002998660333897521,5908.155234659671
0.676,-0.10428662434727241,5899.988862649252
0.68,-0.21909536376424427,5893.788836929851
0.684,-0.3242907311162506,5899.428108816459
0.6880000000000001,-0.39859333658137014,5896.079704296076
0.6920000000000001,-0.427540418227511,5900.540172106288
0.6960000000000001,-0.4068930005470706,5895.038497161549
0.7000000000000001,-0.3432266457784018,5902.765357502407
0.704,-0.2512984718083856,5897.945990777347
0.708,-0.14916695506380587,5894.936818824434
0.712,-0.05312749160859294,5903.273863926466
0.716,0.02549451477467955,5905.770065475946
0.72,0.08079963560951188,5907.562097996966
0.724,0.1106768482885118,5899.212419870568
0.728,0.11479103814686559,5898.8503215288265
0.732,0.09383222096210164,5899.508091479675
0.736,0.05043238579727201,5895.277822876256
0.74,-0.009327140277288702,5903.127022126742
0.744,-0.07548281104426435,5897.990565035993
0.748,-0.13583496323154298,5892.634528302155
0.752,-0.17936027216803227,5899.553255465958
0.756,-0.19994140004737015,5901.339612123959
0.76,-0.19856723751330752,5891.835136873526
0.764,-0.18273780730695846,5900.76651434912
0.768,-0.1632214184244562,5892.218650232941
0.772,-0.14980768752389617,5899.594230586843
0.776,-0.148201803567101,5895.670974770537
0.78,-0.15930222655766627,5899.495880570861
0.784,-0.18058028812491503,5895.535891755596
0.788,-0.20826546762333847,5898.437622456587
0.792,-0.23895858462562494,5907.094239863383
0.796,-0.26996277141535785,5912.218656397158
0.8,-0.2986779100582944,5905.182380285095
0.804,-0.32218918606067315,5906.166468967987
0.808,-0.3379718332095149,5898.776574448695
0.812,-0.3454947893804253,5894.990202611058
0.8160000000000001,-0.347432342313003,5900.298290949571
0.8200000000000001,-0.34919219253833106,5898.442420086482
0.8240000000000001,-0.35660897148919746,5896.955988304717
0.8280000000000001,-0.3729838306041852,5897.777894350797
0.8320000000000001,-0.39709008823915654,5890.822723327188
0.836,-0.4230950857977326,5888.07620468644
0.84,-0.4422705006191626,5894.358329163032
0.844,-0.4456755994802915,5891.526201620085
0.848,-0.42689621017664753,5896.417435322209
0.852,-0.3840665735626066,5888.121254544482
0.856,-0.3205374020388343,5907.920290313849
0.86,-0.24388321694948023,5901.819558057672
0.864,-0.16365852043609944,5905.051683215684
0.868,-0.08899011184253738,5898.662767246595
0.872,-0.02707724276078995,5900.766090056457
0.876,0.01705301619793643,5896.013775102459
0.88,0.0399902118055745,5898.337166525223
0.884,0.039349640345097005,5898.00007336188
0.888,0.013692023865771799,5890.966971992396
0.892,-0.036867326201381695,5906.925141761197
0.896,-0.10944257431296829,5901.898205082883
0.9,-0.19695706513621483,5900.132760860869
0.904,-0.2874095920827627,5906.283879036875
0.908,-0.3649431252299528,5907.011888886833
0.912,-0.41324352715167517,5902.024550467964
0.916,-0.4205250048947816,5903.255779086234
0.92,-0.3842050836594085,5896.561321734695
0.924,-0.3130988486071914,5897.341901355494
0.928,-0.22579907877194982,5898.230724626171
0.932,-0.14546284457920916,5906.780557829625
0.936,-0.09271424701797946,5903.6438615091365
0.94,-0.07912925434956437,5902.926037453098
0.944,-0.10357882725763334,5899.314310547362
0.948,-0.15271216080665637,5900.913614613025
0.952,-0.2054136180435273,5900.1171027997125
0.956,-0.2397310620208059,5899.080987670426
0.96,-0.24006674596537286,5893.138257829011
0.964,-0.20242510507139222,5890.058426357164
0.968,-0.13603847114352463,5896.608996830955
0.972,-0.06067384739777111,5887.957559108974
0.976,-0.00029364382486327963,5906.086482931137
0.98,0.02488184595990839,5906.170126456134
0.984,0.005136258112179855,5900.047948678993
0.988,-0.05553682158235002,5902.964505546582
0.992,-0.14083810802167873,5901.353824799734
0.996,-0.22766707417513568,5899.724880625918
1.0,-0.2939297171424791,5897.186560753202
1.004,-0.3260043309173825,5900.920640501966
1.008,-0.3230967492048414,5900.490190834867
1.012,-0.29675999962596794,5899.930569277766
1.016,-0.26587739116169473,5902.88490859631
1.02,-0.24927630760146055,5895.249556336079
1.024,-0.25877398182975897,5895.838942232223
1.028,-0.29492874413140313,5904.000286974698
1.032,-0.3468393155417964,5900.407655123078
1.036,-0.39619131227227605,5901.724998792169
1.04,-0.4241579911093249,5900.67912569463
1.044,-0.41833258343644203,5897.731094144944
1.048,-0.3768856754484063,5898.619490158121
1.052,-0.3087550867273398,5901.383842690897
1.056,-0.23046130149194896,5901.947838886347
1.06,-0.16094661533129062,5902.916773016403
1.064,-0.11598117551529834,5896.159155168998
1.068,-0.10378990891453055,5896.56958641045
1.072,-0.1233665279681387,5905.089909174543
1.076,-0.16596963395502684,5900.535112034775
1.08,-0.2188837002612139,5910.687847414973
1.084,-0.26960637463850645,5910.675141931333
1.088,-0.30876437518851285,5906.378441206329
1.092,-0.3310581186468119,5905.503183031367
1.096,-0.3347134645603849,5896.533912480988
1.1,-0.32057809717650054,5901.25806094466
1.104,-0.29176222821160064,5899.838510950156
1.108,-0.25383338015154555,5906.415236437492
1.112,-0.21480483610137202,5907.67508025448
1.116,-0.18409835133360733,5896.462480768251
1.12,-0.17024274323893268,5896.617163732129
1.124,-0.17789893277121777,5894.263543335969
1.128,-0.20548824858477266,5894.846004098649
1.132,-0.24475829272972627,5887.549985256635
1.136,-0.2828158574159387,5899.631017477191
1.14,-0.3060091685701666,5900.219611301429
1.144,-0.3043086784721656,5895.219501609404
1.148,-0.2747173229405129,5900.143318636624
1.152,-0.2225824254211095,5891.882907528209
1.156,-0.1603970110131275,5901.3741205301385
1.16,-0.1045413753508706,5896.466694186837
1.164,-0.07097888494562954,5892.681319234981
1.168,-0.07100094189952987,5897.517954211508
1.172,-0.10797788409686224,5907.655662099195
1.176,-0.17592623453628758,5897.298223138368
1.18,-0.26041085159437277,5904.178727995478
1.184,-0.3417346344161426,5896.84969539696
1.188,-0.3996932290314771,5903.253050191945
1.192,-0.4186779476486394,5899.330202785684
1.196,-0.3917732931197252,5901.241924935691
1.2,-0.3226741295503741,5897.116527084595
1.204,-0.22467191673744977,5903.167710520765
1.208,-0.1167904336770283,5888.445442202737
1.212,-0.018350713368223075,5903.745852915288
1.216,0.05594934185199544,5895.910399678156
1.22,0.09872253867617962,5900.9082719977705
1.224,0.10990620209393896,5904.098578433785
1.228,0.09483299466458857,5892.652657375646
1.232,0.06151678690742769,5897.944371876892
1.236,0.01815717594605285,5907.208081031978
1.24,-0.02844233613298397,5901.042069784234
1.244,-0.07322183325797779,5897.749780411021
1.248,-0.11222222617305652,5885.753947026685
1.252,-0.14177526058156534,5911.195346201524
1.256,-0.15848247087218684,5906.051236403953
1.26,-0.16038238886569925,5893.1241879757845
1.264,-0.14872199713199585,5897.370487679046
1.268,-0.12900152840027887,5897.35515550614
1.272,-0.11008771077032271,5901.883657384956
1.276,-0.1012561830945605,5898.748632587545
1.28,-0.10837972765237175,5889.352766221686
1.284,-0.1312053150705166,5907.837585876339
1.288,-0.16319111929856697,5896.250956694147
1.292,-0.19393294497476748,5890.94904446959
1.296,-0.2128303344579496,5898.009644274408
1.3,-0.212376154824568,5885.484871605553
1.304,-0.19026568213025682,5904.207345622557
1.308,-0.15029008252217163,5899.173671707233
1.312,-0.10192708626113292,5897.651002120215
1.316,-0.0582519147096601,5903.503298330184
1.32,-0.03223386692623527,5903.880663772246
1.324,-0.03249759784387488,5893.598410899025
1.328,-0.06016682845495071,5899.238069340274
1.332,-0.10796551245963194,5909.860494187624
1.336,-0.16184257263252477,5896.120414634905
1.34,-0.20473154707342983,5895.743518752312
1.344,-0.22172594934041412,5905.821910888844
1.348,-0.20551277800428927,5892.591923709085
1.352,-0.1603079122538485,5906.438943610213
1.356,-0.1023969532353552,5896.2639285552805
1.36,-0.05622737256352828,5903.3077724037785
1.364,-0.046645536494250524,5887.716531169534
1.368,-0.08971042768791955,5902.343508514031
1.372,-0.18572200927048188,5894.960102795085
1.376,-0.317709340591958,5903.569831194684
1.38,-0.45633596402432075,5901.46601245108
1.384,-0.5691689701881529,5907.56993802484
1.388,-0.6304281022591608,5902.809229750188
1.392,-0.6276881347268517,5910.260318943647
1.396,-0.5639233440421636,5899.334820625962
1.4,-0.45529238382204595,5900.180306599147
1.404,-0.3261907700882422,5902.772322711161
1.408,-0.20330938020700823,5904.071279260148
1.412,-0.11012730416360722,5898.628007408564
1.416,-0.0627908717415164,5895.332335495219
1.42,-0.0679009147894274,5897.346796488673
1.424,-0.1223698902937953,5894.290854958389
1.428,-0.21509580013445198,5906.01374143615
1.432,-0.3297754536965839,5883.609077290878
1.436,-0.44805464696657854,5891.06818827448
1.44,-0.5524876383227826,5899.827072724399
1.444,-0.6290976717083653,5904.397178661286
1.448,-0.6693880011142928,5900.743190968571
1.452,-0.6715330067508333,5899.954623571703
1.456,-0.6403628621891012,5897.463691466629
1.46,-0.5857995673946411,5908.395117278006
1.464,-0.5198395320266592,5897.850853218743
1.468,-0.4529438401005386,5900.038002403282
1.472,-0.39117393514425663,5906.454396248289
1.476,-0.3351354371754353,5893.677296570205
1.48,-0.28105037370071745,5896.795347978707
1.484,-0.223507562924967,5893.652761809634
1.488,-0.1587489061262516,5895.920143404508
1.492,-0.08699916372987776,5902.103637514047
1.496,-0.01280318486155928,5903.731771357272
1.5,0.05652721555100768,5899.979295300716
1.504,0.11324692721612525,5902.499751712021
1.508,0.15101889195654342,5899.944052422273
1.512,0.1657437260391987,5898.133471620885
1.516,0.15586468848529866,5902.474955254426
1.52,0.12288796823289483,5896.781651047944
1.524,0.0720849752777257,5905.358353126569
1.528,0.012491800615582757,5901.107596319956
1.532,-0.044585578160197634,5900.586420043916
1.536,-0.08840099376781003,5896.775871842142
1.54,-0.11183225765501864,5901.562887861566
1.544,-0.11330729736518672,5912.638018892043
1.548,-0.09668471671911749,5902.7186400298015
1.552,-0.0690761357395301,5914.8609349281305
1.556,-0.03750788429056262,5892.297185188079
1.56,-0.005856813412908888,5905.699836958184
1.564,0.02657710432456997,5900.308354140841
1.568,0.0641562002085755,5896.0250241962285
1.572,0.11189945510462125,5897.312797425908
1.576,0.17150709323250174,5898.593833778249
1.58,0.23808326077215308,5906.36141403014
1.584,0.29927864695303014,5897.920665310634
1.588,0.3378339552938263,5898.161033011316
1.592,0.3369644714024713,5902.095920296697
1.596,0.2864846723186283,5905.7192853047545
1.6,0.18705731010048576,5903.9757689756
1.604,0.050770354113060565,5903.303730550409
1.608,-0.10211781654895244,5902.283334929377
1.612,-0.24884232765455358,5899.873216854388
1.616,-0.37000513458193296,5896.435689915197
1.62,-0.4537099399809155,5899.893535174055
1.624,-0.496966553996598,5900.419097562896
1.628,-0.5045440383329276,5903.760225403122
1.632,-0.486382128036122,5901.61867251268
1.636,-0.45489829453872954,5899.885147870346
1.64,-0.4229438507958112,5911.25717783538
1.644,-0.4023328929746111,5899.160158896312
1.648,-0.40247223086007344,5893.524750424359
1.652,-0.42878662410430923,5911.552135623576
1.656,-0.48111237784799077,5904.253037871773
1.66,-0.552702198179638,5899.621340127289
1.664,-0.6305760768911113,5904.08327511306
1.668,-0.6975499171023216,5898.791942169188
1.672,-0.7356841983999299,5907.360719549223
1.676,-0.7303925370090739,5897.739429346579
1.68,-0.6740957947668392,5895.596186916899
1.684,-0.568353620087386,5903.575677914265
1.688,-0.4241119424445215,5896.888051710527
1.692,-0.2606238207951091,5908.80196710093
1.696,-0.10379383869661186,5904.416154681027
1.7,0.016104479878475728,5897.569159464932
1.704,0.06831303237829635,5906.262813410576
1.708,0.028001094909692468,5897.325725273617
1.712,-0.11509430097617622,5903.529482842292
1.716,-0.3477434974146832,5905.438159009079
1.72,-0.6270835983065947,5905.809124075225
1.724,-0.8803950167930742,5901.774250706522
1.728,-1.0128652153048743,5906.62615696068
1.732,-0.923500132996505,5905.536476463681
1.736,-0.5269975609460387,5902.183424901031
1.74,0.22293618889203937,5903.207965468149
1.744,1.3150054215598024,5904.948569590754
1.748,2.672866956028393,5895.298244773404
1.752,4.163392299383985,5909.336116566959
1.756,5.621188357586787,5896.877515679301
1.76,6.884024297963829,5896.206664862696
1.764,7.828491631500584,5906.003711512681
1.768,8.39421598440262,5894.199467230196
1.772,8.589643915292958,5907.978703678483
1.776,8.479907320550796,5902.430156367256
1.78,8.1631801757832,5902.28814556809
1.784,7.744177328633493,5899.344256439908
1.788,7.312308815962917,5882.509870589316
1.792,6.928729350467204,5897.182280328874
