时间(s),电压(V),幅值(高频80K)
0.0,-0.7022883130420894,5905.79542240077
0.004,-0.3938453000073631,5908.893834861096
0.008,-0.12336370256772065,5898.188313020521
0.012,0.08204183275747118,5891.876108841198
0.016,0.20846471949259854,5904.719121326913
0.02,0.2554931320401435,5900.915225593339
0.024,0.23304535345015764,5903.260381188024
0.028,0.15717855858007923,5898.308122363699
0.032,0.0467042129090612,5899.228988572446
0.036,-0.07895241339147438,5893.559585941615
0.04,-0.20116582160204188,5897.734698527578
0.044,-0.3034810233768755,5900.745786382221
0.048,-0.3733809822733035,5899.846008721576
0.052,-0.40441696712027553,5897.008976834749
0.056,-0.3979288577169397,5900.714920809603
0.06,-0.36303539754607367,5896.837240965729
0.064,-0.31408082421411426,5897.4337946938185
0.068,-0.2663673436407527,5896.005680630524
0.072,-0.23237915887398328,5899.88449352821
0.076,-0.22019128617931674,5907.497074158432
0.08,-0.23367954596129342,5897.58031862027
0.084,-0.27277073790802364,5914.221538237832
0.088,-0.33281142825803206,5897.715651426968
0.092,-0.404058429104854,5904.232880383311
0.096,-0.4729491934423572,5899.106879963482
0.1,-0.525462063319485,5893.490978254721
0.104,-0.551107853422765,5898.074677802674
0.108,-0.545731576133957,5894.450512329054
0.112,-0.5123378100074142,5896.551314029188
0.116,-0.46014132023462784,5895.372321580937
0.12,-0.4021891744195738,5907.183778334266
0.124,-0.35187563036773706,5901.078592919022
0.128,-0.31918807603947236,5898.273055343532
0.132,-0.30810607485715713,5899.579317472545
0.136,-0.3163374880852581,5902.714551816433
0.14,-0.3374439619599577,5897.275997271891
0.144,-0.364185427062875,5908.994688999106
0.148,-0.3914480021129192,5897.404691750878
0.152,-0.41753911337092914,5900.579048984424
0.156,-0.443493163933859,5913.44830083325
0.16,-0.4709709854914657,5902.664273335174
0.164,-0.5000070505478279,5894.591533023065
0.168,-0.5277614307726496,5906.748026068005
0.172,-0.5486538567103202,5892.866981142253
0.176,-0.5556011955419405,5908.007133676229
0.18,-0.5419573054851795,5906.141592232055
0.184,-0.5037960597049066,5892.867072145997
0.188,-0.44203237205387147,5899.368769414616
0.192,-0.36361433927672204,5894.746433114218
0.196,-0.2809450783420328,5897.060512113619
0.2,-0.20911913514149413,5906.008641959815
0.204,-0.16151083696481955,5905.407529491175
0.208,-0.14528375224271542,5898.479956236843
0.212,-0.15878484815713714,5893.355908468448
0.216,-0.19205384781998622,5900.383514026361
0.22,-0.23016452404942575,5888.2946480580495
0.224,-0.2579760362370749,5900.074143865875
0.228,-0.26481903365789783,5896.702011611992
0.232,-0.24800692132811736,5892.453261058855
0.236,-0.21399946887681046,5900.473368626222
0.24,-0.17610003634515525,5899.725053417084
0.244,-0.1488230500212745,5897.6904264731065
0.248,-0.14112700114912802,5906.316365526326
0.252,-0.15179305681134306,5901.187561923389
0.256,-0.16927415220616476,5892.167478950839
0.26,-0.17610101537207667,5900.386526262316
0.264,-0.15594482121979417,5892.899489671031
0.268,-0.10055494568714946,5896.996772131543
0.272,-0.013956956653852265,5907.701091850818
0.276,0.08781638796175038,5899.399482137992
0.28,0.18171982543004497,5892.084890025201
0.284,0.2457479187474263,5892.40563786369
0.288,0.266660995144275,5900.775387267482
0.292,0.24375745952103184,5894.058838467493
0.296,0.1870253249394858,5909.036021611091
0.3,0.11118719689559893,5899.030240981345
0.304,0.029345519635006218,5894.804621597476
0.308,-0.05042259435730459,5905.459466093711
0.312,-0.12461609194118874,5896.493694880592
0.316,-0.19157950051653438,5895.368362877712
0.32,-0.24882975903654597,5896.028686238766
0.324,-0.2918581060699657,5899.2350583586
0.328,-0.31452961882803193,5894.632209845472
0.332,-0.3105835373151188,5903.765035412654
0.336,-0.27580390177973035,5891.241909724276
0.34,-0.21051288456450143,5901.404682084312
0.344,-0.1216667800598636,5890.510090087536
0.348,-0.023362028795771133,5896.410628549029
0.352,0.06520863481369543,5893.111491484465
0.356,0.1241562865856061,5904.759614099265
0.36,0.13815550051529718,5901.895832722935
0.364,0.10066500438872378,5906.552207494251
0.368,0.01593597815921426,5907.538854106165
0.372,-0.1013849235349379,5904.824135689603
0.376,-0.2288406227505635,5900.646902368352
0.38,-0.3406318078956761,5896.817519959894
0.384,-0.41327579403128495,5900.998426690795
0.388,-0.4311770816374991,5896.613866006637
0.392,-0.3905868841318675,5898.307758560654
0.396,-0.3007428985080931,5904.821807156847
0.4,-0.18175271722548414,5897.989719557267
0.404,-0.059795136205402576,5896.463054243713
0.408,0.03900791731047765,5902.636757527156
0.412,0.09458399645468364,5899.761196551706
0.416,0.09760011703524496,5903.319742704266
0.42,0.051784548392075545,5904.018110802992
0.424,-0.02711559191689546,5894.302326711996
0.428,-0.11593017345730951,5905.005428085309
0.432,-0.19090881878576985,5900.241246512422
0.436,-0.23442608675080415,5902.286819485347
0.44,-0.23932448870743672,5902.148524588255
0.444,-0.20982885289476708,5907.145283518928
0.448,-0.15934640331033692,5914.397120171623
0.452,-0.10638614382875783,5899.179561348097
0.456,-0.06998543538456696,5893.718625964089
0.46,-0.06564217729801285,5898.726957110515
0.464,-0.10230377822467747,5901.383438730136
0.468,-0.1807425048617352,5903.523873781991
0.472,-0.29357811933398115,5893.717156553281
0.476,-0.4270109397718485,5900.46656617945
0.48,-0.5638726002317189,5903.312857793407
0.484,-0.6871853288987972,5906.286883347786
0.488,-0.783392771203733,5891.175233346757
0.492,-0.8446499252247398,5900.4021836469865
0.496,-0.8697159849656361,5891.480668677263
0.5,-0.8632150320527966,5899.447657447768
0.504,-0.8335793069283222,5894.545434826065
0.508,-0.7904966989401163,5904.088024657659
0.512,-0.7425709996612148,5896.857213774299
0.516,-0.6954128287583374,5904.1765841488905
0.52,-0.6502448165998006,5896.127841617482
0.524,-0.6034143126845682,5908.599775908959
0.528,-0.5473764687995911,5891.893228947703
0.532,-0.4733326248922053,5905.588599803483
0.536,-0.3749121951631121,5899.662648944464
0.54,-0.25155066778213886,5893.976384672489
0.544,-0.11011806413074963,5899.808736271599
0.548,0.03587792575177879,5887.87492523221
0.552,0.16908683428824878,5898.568456549792
0.556,0.2721094664293572,5910.835162317526
0.56,0.3314107024886805,5901.071043592105
0.5640000000000001,0.34066549368018584,5895.535863907153
0.5680000000000001,0.3027986433827233,5902.732553028552
0.5720000000000001,0.2300297248292693,5898.666141349185
0.5760000000000001,0.1416437188297024,5904.047443312192
0.58,0.059770045906500924,5910.450152349046
0.584,0.004024217788420786,5900.176830397338
0.588,-0.013535057503781147,5900.636998542185
0.592,0.008639263088565071,5903.400076391096
0.596,0.06201005881351026,5895.270332196001
0.6,0.1317219669529118,5900.32724610629
0.604,0.20207428864475482,5903.733521788205
0.608,0.26118236059244143,5900.238175232067
0.612,0.30283891950150515,5906.140497905631
0.616,0.32531520649341045,5905.90024844938
0.62,0.3285876595008202,5901.941701456205
0.624,0.31214730926095297,5897.748386898229
0.628,0.274933247661201,5902.362424809077
0.632,0.21746676133350346,5904.093411984813
0.636,0.14470879748280402,5902.3895321678965
0.64,0.06747943828407839,5902.510489625116
0.644,0.0010594401076306475,5902.665922373652
0.648,-0.03865784918568786,5890.858374769568
0.652,-0.03974967408803695,5904.838797071089
0.656,0.0021694568297833733,5902.974762486249
0.66,0.08233429470917712,5896.759091927457
0.664,0.1874395557288857,5895.913823064161
0.668,0.2984173999187709,5898.1098527358
0.672,0.39481852238821696,5900.806175073112
0.676,0.45947075122448583,5888.486275528052
0.68,0.4817137514872892,5900.499685351274
0.684,0.4581219049509904,5904.230300367834
0.6880000000000001,0.39105475423669966,5893.216256845046
0.6920000000000001,0.286615781714378,5903.671453555325
0.6960000000000001,0.15359579623830308,5900.395865332744
0.7000000000000001,0.003684787079284792,5898.992995251871
0.704,-0.14818845284547705,5907.488361285796
0.708,-0.2848872447661812,5915.658714231943
0.712,-0.3901292178165556,5901.468685597253
0.716,-0.45289366223286054,5903.151952198935
0.72,-0.4713241960153879,5903.072440100293
0.724,-0.4538998527532722,5900.01374481896
0.728,-0.41658863668745827,5898.792385588832
0.732,-0.3767677424968475,5900.3891500845175
0.736,-0.3466212505591264,5910.0527677072905
0.74,-0.329096601827827,5898.425275646519
0.744,-0.3180992114807665,5900.599009413466
0.748,-0.30243491582855414,5910.205511614725
0.752,-0.27126133676880765,5897.492239788827
0.756,-0.21832111739118468,5891.490999244575
0.76,-0.14331942125344743,5901.144102047468
0.764,-0.05075166468612126,5898.32520149339
0.768,0.052199559006905406,5905.217742501229
0.772,0.15721987064825657,5904.497650529562
0.776,0.25549610249823174,5903.871391512126
0.78,0.3380608089031715,5898.445938282896
0.784,0.3966189485521303,5902.148905559861
0.788,0.4248644553420618,5906.063136225668
0.792,0.419467392395849,5900.48792128598
0.796,0.38000133224532523,5912.029458123875
0.8,0.30804890606743107,5905.687625053081
0.804,0.20648458223493033,5897.590315985106
0.808,0.07970469129710539,5900.0030872746565
0.812,-0.06532817335292798,5900.454534489109
0.8160000000000001,-0.2181671856731225,5890.447690392401
0.8200000000000001,-0.36517270044698574,5906.45123070391
0.8240000000000001,-0.4913948214496999,5900.870075943932
0.8280000000000001,-0.583408869654582,5903.900980597895
0.8320000000000001,-0.6320006222559269,5894.743028692873
0.836,-0.6338954128753682,5897.023323765571
0.84,-0.5922671081937573,5897.65493644723
0.844,-0.5161358203714845,5903.450199641992
0.848,-0.41892487347715546,5900.872830123082
0.852,-0.31643458917740097,5899.275556828942
0.856,-0.22437007872297574,5902.6683402937415
0.86,-0.15555447246993606,5897.536599744554
0.864,-0.11723438461570418,5907.027412877712
0.868,-0.10924011931210012,5895.012150215731
0.872,-0.1237831621453005,5904.701368352515
0.876,-0.1471397961024639,5898.120895314344
0.88,-0.16263551603866902,5901.333459337136
0.884,-0.15389171760261236,5901.822135649389
0.888,-0.10765086591167301,5897.69784773504
0.892,-0.016172966380639555,5900.228190108411
0.896,0.12061914743665393,5902.783386486366
0.9,0.2934826407084498,5902.087246196544
0.904,0.48341580424619107,5901.73800420469
0.908,0.6632843141395249,5898.832173370213
0.912,0.8019086474975089,5902.406882833738
0.916,0.8700803329909895,5900.878808929668
0.92,0.8470891219344868,5904.350316061684
0.924,0.7260803159738429,5899.1241350907
0.928,0.5168832680547865,5893.658390255885
0.932,0.24540851940283245,5892.633164232268
0.936,-0.050767904465899,5897.98015826297
0.94,-0.3300941793981445,5900.550421989655
0.944,-0.5561547282489417,5898.028560045982
0.948,-0.7053967366295993,5899.43367640904
0.952,-0.7709584170028816,5902.800760408745
0.956,-0.7616801720130513,5908.782545409609
0.96,-0.6973341134648612,5905.385291041882
0.964,-0.6023515798278969,5896.4114812081
0.968,-0.5003415454119743,5895.460195541587
0.972,-0.41060947803912456,5905.152643860368
0.976,-0.3465231069119497,5897.117851023553
0.98,-0.3149786081011387,5906.0402061695
0.984,-0.31658760192986973,5892.347192696863
0.988,-0.34666062612823584,5899.398565218428
0.992,-0.3969015966704955,5902.88878869662
0.996,-0.45726674432698644,5900.086999916898
1.0,-0.517410755051341,5898.951576405639
1.004,-0.5676939465709718,5891.882534945598
1.008,-0.6002837228812264,5908.594792446146
1.012,-0.6107460243385615,5892.8749802013
1.016,-0.5995683500388848,5905.741125278997
1.02,-0.5721728836019069,5898.84852593372
1.024,-0.5364092023425636,5906.736929799904
1.028,-0.49825650059378557,5887.660942280194
1.032,-0.45795592268441765,5902.905596830462
1.036,-0.4087282849279743,5899.791700437691
1.04,-0.3388719488275051,5903.362469252372
1.044,-0.23647506910689547,5907.859114069226
1.048,-0.0949829051855051,5896.126121444495
1.052,0.08237266035361818,5894.511978182602
1.056,0.28084661344748696,5898.220541249706
1.06,0.47583281731399246,5899.079437597593
1.064,0.6375248865019075,5897.51438309285
1.068,0.7373605671539174,5911.331602770944
1.072,0.7545247279470715,5889.793050012363
1.076,0.6807018082328393,5907.847420727324
1.08,0.5218112968959049,5898.54613077939
1.084,0.29663977457777885,5906.9295241460495
1.088,0.03335756496099232,5893.470011083168
1.092,-0.2349444060120585,5900.225574774476
1.096,-0.4750741039450374,5902.929019877249
1.1,-0.6585394076115538,5898.371236246259
1.104,-0.7656930412663223,5906.440469519994
1.108,-0.7883285717163079,5903.103416884011
1.112,-0.7300891771847184,5900.93638571853
1.116,-0.6048687353426868,5899.654177027709
1.12,-0.43419766400041926,5900.980693647779
1.124,-0.24457920336056563,5892.28879917555
1.128,-0.06487637388545207,5890.734317781033
1.132,0.07679664649095248,5899.858571490327
1.136,0.15692445096279894,5907.659667974084
1.14,0.16062456194064267,5904.159675226537
1.144,0.08480644225163618,5907.3239757601605
1.148,-0.06050503126257849,5904.870104680961
1.152,-0.25315161853590407,5899.776244930883
1.156,-0.4621298082878646,5910.8478166970735
1.16,-0.6529412259119544,5898.992656013405
1.164,-0.7944914300912655,5905.201854567977
1.168,-0.8663752634846924,5901.728126032667
1.172,-0.8645162982589107,5898.30569409392
1.176,-0.8027859039308285,5903.418824566907
1.18,-0.7091444638584731,5904.16838656742
1.184,-0.6169572200855153,5884.845183565024
1.188,-0.5543797918317074,5905.1217837869945
1.192,-0.5357074125426126,5900.637399960831
1.196,-0.5577297876772704,5899.923243658597
1.2,-0.6020265906278117,5908.000516309466
1.204,-0.6419379389255341,5901.187137641876
1.208,-0.6515493185894186,5903.410148692989
1.212,-0.6137674387684113,5899.261575134155
1.216,-0.5252033693152212,5889.223865523527
1.22,-0.3966856960766831,5895.256088653713
1.224,-0.2495701911386095,5910.11031796121
1.228,-0.10936425566755237,5899.240134499814
1.232,0.0010129089571674615,5902.7524084602655
1.236,0.06625258263119495,5907.762970417318
1.24,0.08102097401352018,5904.973095429816
1.244,0.049951251522433175,5903.586981194711
1.248,-0.014023786448711642,5895.958162656179
1.252,-0.09262969546026362,5902.543899613964
1.256,-0.1663071638015144,5902.721044551961
1.26,-0.21863155806422802,5902.588478977529
1.264,-0.23965370504477776,5898.9393401156485
1.268,-0.22679706819860937,5892.01455689351
1.272,-0.1831071735838925,5899.613720047041
1.276,-0.11418413960615417,5900.559056498302
1.28,-0.02582429590521644,5902.331434968257
1.284,0.07636767460688823,5905.97227266738
1.288,0.18570686379303264,5906.633120166394
1.292,0.2928767340607662,5900.5312029264
1.296,0.38539103949626785,5902.914949873628
1.3,0.4485879544394061,5908.987917226348
1.304,0.4680179120797987,5908.1214149669695
1.308,0.4327815759971425,5897.910098920154
1.312,0.33911879597960576,5908.166104204487
1.316,0.19318467379212392,5895.849890490769
1.32,0.01173399417725257,5903.794678104453
1.324,-0.18026743085922511,5892.013492113636
1.328,-0.355090651061142,5903.301291729974
1.332,-0.48929232502531866,5902.804961215864
1.336,-0.5698407969443255,5899.389524413998
1.34,-0.5969146816855347,5905.261047078512
1.344,-0.5822707953769455,5894.899485976609
1.348,-0.5439081583239462,5905.039942758783
1.352,-0.49933576620033104,5892.675718987365
1.356,-0.4603004031864683,5897.521992303369
1.36,-0.43092314480242255,5909.785917095667
1.364,-0.409436275050701,5900.474935329993
1.368,-0.39230703076744006,5895.159229554952
1.372,-0.37889032627092245,5906.39953977847
1.376,-0.3744645809977662,5902.589400189565
1.38,-0.3897401914226584,5899.347881915894
1.384,-0.436365387874272,5899.171559927755
1.388,-0.5202027249093282,5910.745053541562
1.392,-0.6356660624587663,5900.297605649825
1.396,-0.7640915345575019,5885.515167060328
1.4,-0.877264552817793,5896.580976391953
1.404,-0.9450106631461195,5891.861099638705
1.408,-0.9442001951406795,5897.503947600462
1.412,-0.8660697328795137,5913.671021253166
1.416,-0.7194598433327191,5894.307041573415
1.42,-0.5290151778469246,5895.167344530518
1.424,-0.3289145470793331,5893.315488059421
1.428,-0.15384439079190132,5913.906692610163
1.432,-0.029638336195684477,5898.876093534925
1.436,0.03368197577130662,5897.852624556876
1.44,0.04402299005151372,5895.343801490464
1.444,0.023440011090194723,5907.18773890136
1.448,-0.0001637258868136841,5904.2732315409385
1.452,-0.0023875068043568842,5898.468801485413
1.456,0.03094172674747226,5902.428388162219
1.46,0.10163781761578657,5899.324275951116
1.464,0.2013137598365239,5897.419283608353
1.468,0.31591210580860807,5891.694474775386
1.472,0.43025012103775306,5906.684510854888
1.476,0.5309012855356094,5908.735336579724
1.48,0.6069666248055612,5905.296992764507
1.484,0.6493797967440865,5892.263386954153
1.488,0.6499945489417539,5901.241335424155
1.492,0.6017003144939908,5897.997581431761
1.496,0.5001088845625141,5902.839059167844
1.5,0.3462523568138127,5903.33577512084
1.504,0.14897454816636552,5895.900648919154
1.508,-0.07428913850353182,5898.638894016962
1.512,-0.2990992754018874,5902.060185306934
1.516,-0.4979579158022621,5898.603907481427
1.52,-0.6457481146047501,5902.157971880454
1.524,-0.7250943857806365,5902.383587554365
1.528,-0.7298950637711413,5891.314083677534
1.532,-0.6658940048660186,5897.536504228881
1.536,-0.5483812861984018,5901.224611761215
1.54,-0.39821953123165066,5908.30454696701
1.544,-0.23766911607458713,5900.22928298412
1.548,-0.08693066585739027,5912.254038152244
1.552,0.03839854014391727,5893.210314949321
1.556,0.12900168749380506,5899.552257225814
1.56,0.1824460624481639,5893.129638153483
1.564,0.2023369780961102,5898.674335787673
1.568,0.1959884098761173,5892.897517348063
1.572,0.17118444761571006,5902.038028778055
1.576,0.13304550645165875,5893.533516659885
1.58,0.08211888739467886,5905.096732181363
1.584,0.014498282272718675,5908.483095954558
1.588,-0.0759384850328177,5904.623994588717
1.592,-0.19388352667083164,5904.30230759833
1.596,-0.3388005822295926,5903.248622245634
1.6,-0.5024089455253083,5901.910168551765
1.604,-0.6686281854350291,5908.505925984114
1.608,-0.8163874387303014,5917.310332243422
1.612,-0.9245816014006968,5896.745324095155
1.616,-0.9775247055285637,5889.113275137621
1.62,-0.9690642466210061,5899.941421292673
1.624,-0.9041771113552229,5904.286741744303
1.628,-0.7979015611648422,5909.778889041621
1.632,-0.6722452041069602,5898.331143390163
1.636,-0.5519296056841964,5896.810091164739
1.64,-0.4596176734105726,5900.800613939498
1.644,-0.41112647172168376,5896.169105916765
1.648,-0.41152701097966443,5906.630157014361
1.652,-0.4536300306417665,5892.741956186638
1.656,-0.5200765819576859,5898.782706151909
1.66,-0.5887228528609962,5901.485182888756
1.664,-0.6393316463314057,5900.949364482149
1.668,-0.6590825104432965,5901.915352974322
1.672,-0.6452038889156233,5900.123214304592
1.676,-0.6043368223668928,5898.078970915078
1.68,-0.549422367270159,5903.921475601348
1.684,-0.4955486201815653,5902.132493367605
1.688,-0.45600807935895943,5896.421928799754
1.692,-0.439175651346745,5899.248984683443
1.696,-0.44651542599575794,5900.222258133082
1.7,-0.47211846053861106,5901.307310841029
1.704,-0.5040510330611179,5900.668195876235
1.708,-0.5272895642078134,5896.071646410119
1.712,-0.5274950977198198,5892.48953617643
1.716,-0.49454965568562986,5898.922104786284
1.72,-0.42477038810280277,5899.715724914945
1.724,-0.321316828605217,5900.616118107236
1.728,-0.19336272297610552,5896.819954763398
1.732,-0.05519277975285831,5896.164434546694
1.736,0.07419056158487954,5895.808914314982
1.74,0.17158164294816064,5895.152910839988
1.744,0.21161539353461917,5901.609045269956
1.748,0.17160430882288555,5901.441030638818
1.752,0.039396126969186325,5898.211584251048
1.756,-0.17730257802134064,5899.773006842924
1.76,-0.44348580930495424,5897.176101372354
1.764,-0.6951524452136405,5893.240379134096
1.768,-0.8458415313131272,5894.81718991762
1.772,-0.8013110718446297,5901.895931648341
1.776,-0.47968558960601565,5904.501751695769
1.78,0.16737720152156113,5897.92216459169
1.784,1.1376663678995558,5889.345521436077
1.788,2.3705307283111163,5901.202159379548
1.792,3.7520528198009715,5894.441703093146
1.796,5.134636231862342,5907.76550510673
1.8,6.3676653470390985,5899.77976318624
