时间(s),电压(V),幅值(高频80K)
0.0,-0.7682935737718536,5903.533806945476
0.004,-0.43881535519348586,5899.802919283594
0.008,-0.15431933854640706,5897.083945617952
0.012,0.04501603242365762,5899.193369454802
0.016,0.12948544054544978,5897.984073394882
0.02,0.08490154460038897,5898.382021199161
0.024,-0.08314325596134031,5895.203166321667
0.028,-0.3474657213088007,5907.363775140603
0.032,-0.6621002981094517,5901.332833386555
0.036,-0.9707446103639656,5900.71326734232
0.04,-1.219178602471996,5897.697449395691
0.044,-1.3675525838769602,5898.253669920856
0.048,-1.3982746052108719,5893.424613721132
0.052,-1.3174281462781283,5904.395944208741
0.056,-1.1503131013259127,5898.908551822835
0.06,-0.9333100247439321,5894.908999877927
0.064,-0.7048022006756818,5895.412352192729
0.068,-0.4976415075239316,5895.893231823439
0.072,-0.3346087585431459,5903.9012952945895
0.076,-0.22690739333506446,5894.881692032774
0.08,-0.1747842902031337,5911.780790255032
0.084,-0.1693159717631619,5896.613004877686
0.088,-0.19493899776418383,5897.471046478853
0.092,-0.2328002302756253,5902.719913529413
0.096,-0.2648698237473128,5894.608458416687
0.1,-0.2779870000217988,5892.752414985695
0.104,-0.2664307396829563,5907.388906310838
0.108,-0.23205704187581638,5905.466317191392
0.112,-0.18225258487402193,5898.386977498344
0.116,-0.12686796195974664,5893.964909556303
0.12,-0.07533609672913714,5902.351987335616
0.124,-0.03471597987638512,5905.738665843198
0.128,-0.00902398014282366,5901.660108965545
0.132,5.91383437377615e-05,5907.877160553598
0.136,-0.008431309221653678,5899.145476064609
0.14,-0.03612737910953542,5902.944562799123
0.144,-0.08527728641276154,5891.979919766934
0.148,-0.15700756413810468,5908.2097807028895
0.152,-0.2489421382923464,5898.298023334026
0.156,-0.35382109911815807,5895.816854604849
0.16,-0.46020700326992137,5892.314690034628
0.164,-0.555156120732682,5897.3978074500055
0.168,-0.6277602256019249,5895.752499338735
0.172,-0.6721615754811429,5894.732776869696
0.176,-0.688829372943215,5896.34263953937
0.18,-0.6833579499813921,5898.148608653607
0.184,-0.6629431913930794,5895.27594496025
0.188,-0.6320410165664301,5904.384094144042
0.192,-0.5897144994945384,5898.988960154643
0.196,-0.5305595443922851,5911.031401024026
0.2,-0.44880812162096306,5893.352392769001
0.204,-0.3431486313510383,5901.786447007273
0.208,-0.21972971493642207,5899.974556743893
0.212,-0.0921974314689496,5901.123911648585
0.216,0.021125775640488682,5901.145786498105
0.22,0.10205232292770272,5896.317296849152
0.224,0.13773606206064376,5904.620965431174
0.228,0.12423981072205799,5902.117060188235
0.232,0.06701957234904195,5904.387131249165
0.236,-0.021583770371503993,5900.370706286876
0.24,-0.12633928352550208,5897.837109828955
0.244,-0.23276475250491072,5905.861461957789
0.248,-0.32925034774386874,5906.613352869814
0.252,-0.4074098704261154,5892.488438235223
0.256,-0.46104881998466285,5894.501081025479
0.26,-0.48466582621674903,5903.548645459159
0.264,-0.4727699970985833,5890.052068906268
0.268,-0.4210590357847595,5892.741711237583
0.272,-0.32950553748978256,5900.648166679918
0.276,-0.20607405411068075,5900.79971367162
0.28,-0.0688512231111473,5901.457091202027
0.284,0.055508295561725714,5897.712002994479
0.288,0.13764384875144725,5896.078128176023
0.292,0.15397582399299523,5892.49321656738
0.296,0.09432664928518167,5902.841058009096
0.3,-0.034798676236653496,5900.403210118617
0.304,-0.21269896054152512,5896.215386153253
0.308,-0.41130193521490355,5906.899316578137
0.312,-0.6030163921914631,5898.046657187866
0.316,-0.7663810560719174,5893.6330378116745
0.32,-0.887924907282807,5900.036532482226
0.324,-0.9606965450450432,5902.57278050154
0.328,-0.9813967017393219,5901.021445212126
0.332,-0.9484211148769969,5901.6024936414415
0.336,-0.8621923313247609,5898.834342009014
0.34,-0.7273827280603324,5895.020700912735
0.344,-0.5551612552409886,5901.864331721461
0.348,-0.36348664539244774,5899.876653208297
0.352,-0.17478216430703705,5902.865398216514
0.356,-0.011993798191149853,5900.820988879446
0.36,0.10526973802865913,5905.164125403275
0.364,0.1634035532077353,5900.254081433199
0.368,0.15617611731401626,5902.368927301388
0.372,0.08524791619832647,5898.531246448332
0.376,-0.03976137444524292,5895.050504428408
0.38,-0.20166481387630086,5890.898644754214
0.384,-0.3770408941449174,5892.13227974422
0.388,-0.5390800025439874,5897.759197770789
0.392,-0.6619476930105427,5901.999731798098
0.396,-0.725759522646768,5892.162016444
0.4,-0.7206708754309872,5904.504627264654
0.404,-0.6487688042848617,5908.17959189884
0.408,-0.5233280771702756,5894.607393827013
0.412,-0.36587910782240773,5898.774266066174
0.416,-0.2018047298032309,5903.309557888944
0.42,-0.05509875223164634,5899.707289311002
0.424,0.056754881276249815,5898.798662722848
0.428,0.12614611489818586,5906.566738390917
0.432,0.15535363568696142,5898.2633305185855
0.436,0.15304486361144173,5907.777665854312
0.44,0.12909302235004533,5908.56826883433
0.444,0.09049783537008323,5899.248946102431
0.448,0.040269132895189866,5903.247352589234
0.452,-0.02088793555818282,5907.324933669933
0.456,-0.09174954964647768,5902.857289439006
0.46,-0.1684503166231125,5902.015312365541
0.464,-0.24418288270724864,5907.712764651148
0.468,-0.3108701172603396,5899.8767460563895
0.472,-0.36196824200714584,5897.194872491388
0.476,-0.39491879611935277,5909.476905146572
0.48,-0.4120387658512633,5906.096171576044
0.484,-0.41967280491854475,5886.127922192743
0.488,-0.42629751869149285,5900.876246936672
0.492,-0.4404032158209638,5907.400300300462
0.496,-0.4686730244686961,5900.656880815022
0.5,-0.514686711235657,5894.602225062122
0.504,-0.5782496789178724,5893.796959170237
0.508,-0.6554469219814307,5899.6594724567
0.512,-0.739505371095007,5899.068021312105
0.516,-0.822344799142646,5898.00070076978
0.52,-0.896320168818753,5896.413706550562
0.524,-0.9554144072595724,5903.714828482602
0.528,-0.9953589053419226,5899.980182304736
0.532,-1.012780780844465,5896.965415810447
0.536,-1.0040982026177458,5899.427428549919
0.54,-0.9651601453260662,5907.131836910091
0.544,-0.8924130957843036,5897.261520050972
0.548,-0.7856306617938129,5901.210954351007
0.552,-0.6510878233861757,5895.109818835538
0.556,-0.5030942259259992,5897.361817017414
0.56,-0.36196821805951923,5900.285352063947
0.5640000000000001,-0.24820538111486332,5892.037754847529
0.5680000000000001,-0.17490056579259491,5907.016749188543
0.5720000000000001,-0.14196354966295718,5897.243409188646
0.5760000000000001,-0.1353557298643119,5893.1163683818
0.58,-0.1324302558891339,5905.387915117828
0.584,-0.11145729867879879,5888.862506497571
0.588,-0.06123349048898882,5912.538456791751
0.592,0.013400716710685528,5905.957134702314
0.596,0.09236627488569199,5894.740373433129
0.6,0.14700636331785877,5893.145492938996
0.604,0.15005394980184586,5908.195709110364
0.608,0.08550321696708582,5900.393745367087
0.612,-0.044797072743859474,5893.713338686059
0.616,-0.22006392270223873,5900.995855640267
0.62,-0.40568342012103176,5906.352451864663
0.624,-0.5630864019934233,5897.192118094503
0.628,-0.6610548910233843,5893.754995547378
0.632,-0.6843928948677807,5905.54007254838
0.636,-0.6369829189830322,5907.301953671747
0.64,-0.5387186930442956,5904.570723546904
0.644,-0.4182880245494171,5901.815998865384
0.648,-0.30487098839371013,5895.300013170625
0.652,-0.22126126135690574,5892.92095413093
0.656,-0.17968796010045016,5896.605360559928
0.66,-0.18071265499056935,5893.568499720609
0.664,-0.21509088155293293,5902.726943698572
0.668,-0.2679159080999592,5899.501284071406
0.672,-0.3236126460222534,5891.322382931939
0.676,-0.3700459747918896,5902.3281386383405
0.68,-0.40056940478895325,5901.342563266974
0.684,-0.41384153975367116,5894.64184403607
0.6880000000000001,-0.41207512978300587,5888.408827235704
0.6920000000000001,-0.39887228171963607,5892.375549636587
0.6960000000000001,-0.37788224701561984,5901.593188560372
0.7000000000000001,-0.3530340779144291,5901.649296545455
0.704,-0.33005179864133294,5895.881556412607
0.708,-0.3178485659229424,5896.747546136788
0.712,-0.3280522534979631,5904.2776979017
0.716,-0.3717846027682894,5897.473041627898
0.72,-0.45446305830483325,5899.248948704722
0.724,-0.5708851776170233,5898.168075622394
0.728,-0.7034026856726981,5904.573711014651
0.732,-0.82515023575678,5898.181427728501
0.736,-0.9080777446631333,5902.9205797285
0.74,-0.9328482494024248,5900.70423724799
0.744,-0.8961650339031552,5895.071126102286
0.748,-0.8119098000370867,5901.374161550939
0.752,-0.7052289891022502,5894.328806180681
0.756,-0.6020309209475009,5898.097823035386
0.76,-0.5187018829328623,5900.938201185522
0.764,-0.4568250154990863,5895.223290336593
0.768,-0.40497151377253077,5900.44106400142
0.772,-0.345877198308139,5895.21437230468
0.776,-0.2650071505561386,5903.866590778491
0.78,-0.15671365859555028,5898.361968953773
0.784,-0.02606219291323296,5894.427699048715
0.788,0.1134738343647287,5905.510724890238
0.792,0.24482627959101114,5896.735879248839
0.796,0.3526434324873305,5904.181292841367
0.8,0.4274255770261402,5899.348568166407
0.804,0.46734072741449656,5904.259366542577
0.808,0.4772616438633933,5899.691411213616
0.812,0.4656008446821138,5902.774033167349
0.8160000000000001,0.4404838026814639,5894.738927196122
0.8200000000000001,0.40695159868488306,5904.5194016192845
0.8240000000000001,0.3661378846848714,5897.898089958401
0.8280000000000001,0.31629573911250014,5908.855335123035
0.8320000000000001,0.2547910369916556,5903.859300102612
0.836,0.18009877013389425,5896.311727343294
0.84,0.09330998604122138,5904.272045477393
0.844,-0.0009081189262929196,5900.948677017091
0.848,-0.09399759653688622,5895.301880428717
0.852,-0.1742535468415789,5903.342946810821
0.856,-0.2290576185851526,5896.863644015776
0.86,-0.24845635307500993,5894.411828869362
0.864,-0.22900148118131372,5904.494446491169
0.868,-0.17611763564886432,5901.2295042360765
0.872,-0.10361108114569807,5895.740495811364
0.876,-0.0302853236193254,5900.283160944827
0.88,0.025020488963156454,5896.838149075606
0.884,0.048203162504588885,5897.746328142871
0.888,0.03301899377549177,5900.172994746464
0.892,-0.018290451398330732,5896.835063316084
0.896,-0.0968723243594852,5898.443055746403
0.9,-0.1906579463994489,5896.444202810975
0.904,-0.287720516980017,5898.837340742414
0.908,-0.37831951794831753,5899.7273001148005
0.912,-0.455273633751415,5893.52889949903
0.916,-0.5130929779717501,5901.266350711
0.92,-0.5466010383831007,5902.84578439623
0.924,-0.5499634525229836,5898.88372832545
0.928,-0.5172393468309529,5897.082402649854
0.932,-0.4450979525921998,5908.989268213097
0.936,-0.3368735830435442,5906.030700089711
0.94,-0.205641295423811,5891.0078544207
0.944,-0.07381938182149282,5915.545116228772
0.948,0.03169446039711633,5902.280125393952
0.952,0.08748065132833763,5896.628137039463
0.956,0.08144039800266636,5897.906602405868
0.96,0.01710480624525269,5896.855224630489
0.964,-0.08752144782458601,5900.774317806977
0.968,-0.20616690288253267,5899.327413796605
0.972,-0.3130354082469965,5904.223765986574
0.976,-0.390688102613224,5909.014836052156
0.98,-0.4344045045816536,5902.494577966664
0.984,-0.4520822334574438,5903.750784334832
0.988,-0.4603154900074614,5900.133665263196
0.992,-0.47818993645219005,5892.853535562066
0.996,-0.5206646414676533,5897.594319631158
1.0,-0.5933234622947089,5896.56191973919
1.004,-0.6898342689656445,5908.465714825376
1.008,-0.7927746653663928,5890.198930653353
1.012,-0.8776364023857607,5899.9690732401405
1.016,-0.9189409964411168,5896.3658047557765
1.02,-0.8967858748538033,5898.4210329631005
1.024,-0.8019944856430705,5897.617471000652
1.028,-0.6384006485554939,5895.210210009853
1.032,-0.4216586331166205,5901.16064039483
1.036,-0.17512063383316476,5907.9664334533245
1.04,0.07576143469086337,5893.736745621735
1.044,0.3087541742150818,5908.389514971261
1.048,0.508345550189328,5897.746693068901
1.052,0.6664452106297768,5900.924446247283
1.056,0.7802880536922717,5892.235983787854
1.06,0.8489501327389779,5904.29438291582
1.064,0.8708760981374579,5899.338162101407
1.068,0.8442917176825646,5890.100763858804
1.072,0.7703439755932081,5899.835873598016
1.076,0.6567793191281248,5901.126416284456
1.08,0.5194680446010016,5903.750486494057
1.084,0.38020589128707105,5890.302337977293
1.088,0.2610133155506785,5895.333325204001
1.092,0.17677066749902712,5889.839145558654
1.096,0.12904081769934456,5899.800015641066
1.1,0.103987593720043,5892.3124980089615
1.104,0.07611178224720455,5898.787335280549
1.108,0.017237234552039307,5900.936625011106
1.112,-0.09233654334687261,5890.877840844352
1.116,-0.25499450953009606,5902.686477804579
1.12,-0.4530836641918488,5901.951709603017
1.124,-0.6535526851589551,5893.636234429048
1.128,-0.8180148187019584,5895.5518690088575
1.132,-0.9140994521059375,5900.4182319900165
1.136,-0.9238261964318037,5903.846578285436
1.14,-0.8466069582446063,5904.097339391635
1.144,-0.6971540829705901,5901.999132327326
1.148,-0.5004512896608335,5893.714687009958
1.152,-0.2861314441733149,5893.757074861484
1.156,-0.08349622859010737,5903.065230795231
1.16,0.08272744836216851,5890.802495090485
1.164,0.19601238189436654,5898.430978901956
1.168,0.250605229809481,5901.556894632052
1.172,0.25215941771627276,5904.222040621951
1.176,0.21573101442354276,5903.320503396849
1.18,0.16123356243737416,5902.318690305238
1.184,0.1074708380766555,5898.747849924911
1.188,0.06667967528762825,5901.141578157368
1.192,0.04162164244619838,5898.565411915041
1.196,0.026325752308817493,5902.619574128188
1.2,0.00993902827330077,5903.037760237021
1.204,-0.018186898202510737,5895.557463616083
1.208,-0.0642456583872421,5900.244261732074
1.212,-0.1278512971186095,5903.00251681927
1.216,-0.20231217928372905,5887.916739972432
1.22,-0.2768843517388301,5911.936367631304
1.224,-0.3402032955289294,5894.859485941095
1.228,-0.3837694357194689,5893.765231960382
1.232,-0.4042250346831735,5894.740697385458
1.236,-0.40364631324241457,5900.202048157275
1.24,-0.3880661754278495,5898.150081991623
1.244,-0.3651310656507723,5909.625761238595
1.248,-0.34173495034498236,5899.567980765549
1.252,-0.3220773989165103,5904.0707036710455
1.256,-0.3063999829568095,5906.68486337268
1.26,-0.29071389273030984,5904.387840789308
1.264,-0.26783397117401003,5898.861817622486
1.268,-0.22971695168470993,5901.351191045479
1.272,-0.17056095234738838,5901.043023161814
1.276,-0.08973683160077056,5897.011201547486
1.28,0.006408252413336027,5901.459805400573
1.284,0.1046350150747376,5899.576882968312
1.288,0.1871844957994852,5910.809568326966
1.292,0.23616674612063876,5901.572401981772
1.296,0.23877930357633056,5891.582335475345
1.3,0.19154744296860132,5905.209175348178
1.304,0.10191375067794221,5895.654866521316
1.308,-0.013635370522041284,5893.707862653858
1.312,-0.13442687523147903,5896.895608709095
1.316,-0.2416644944879208,5898.214893182545
1.32,-0.3233050174289674,5909.371236334624
1.324,-0.375955020565723,5887.097438976314
1.328,-0.4035173592625307,5903.688186837787
1.332,-0.41377753049844546,5901.143950433614
1.336,-0.4147126765989405,5887.900033309515
1.34,-0.41195950115913055,5901.106204406863
1.344,-0.4080491918397579,5892.534944059594
1.348,-0.4031490036565713,5897.537950066773
1.352,-0.39642261496654124,5911.365428371553
1.356,-0.38701739778413313,5897.801751147126
1.36,-0.37419331191251226,5898.761919003835
1.364,-0.35683452551894934,5895.67598423707
1.368,-0.33298267333170356,5901.090694067795
1.372,-0.2999349442875977,5892.733116894
1.376,-0.2550844145820635,5897.9025370101135
1.38,-0.19729878272000612,5908.659074431978
1.384,-0.1283657449064157,5893.338730526276
1.388,-0.053911574540364764,5886.263335018139
1.392,0.016789523964520325,5897.060214110045
1.396,0.07248156574811597,5904.944896648573
1.4,0.10286892621813484,5898.90895901361
1.404,0.10188738634538984,5891.835373180645
1.408,0.06999811282507601,5908.843240142492
1.412,0.014525634089751304,5903.854096131643
1.416,-0.05224270272538217,5902.637599472697
1.42,-0.11671110164294296,5887.729811897873
1.424,-0.16810999053083373,5896.926518661564
1.428,-0.20141337198202944,5902.622106577067
1.432,-0.21784076511426617,5901.62775455415
1.436,-0.2229789348345568,5897.18035832729
1.44,-0.2236659595774288,5901.359039484733
1.444,-0.22518190071210042,5901.134471227482
1.448,-0.22991754128154654,5896.975135291518
1.452,-0.2377039025958518,5900.424904819856
1.456,-0.24693956824354776,5901.031961505847
1.46,-0.25537145281408624,5896.114981455086
1.464,-0.26006626750263484,5896.149247207172
1.468,-0.2570936063855626,5893.686945902653
1.472,-0.24190475995367453,5903.3025578751
1.476,-0.21092064000881822,5908.479466149759
1.48,-0.1637345746493435,5895.603502134625
1.484,-0.1045254660909521,5896.161909792035
1.488,-0.04154265662686727,5905.371536031355
1.492,0.015302737193812723,5899.707979944318
1.496,0.05762886210046563,5904.361427175655
1.5,0.08126192727494791,5902.097774658607
1.504,0.08753730051274472,5888.903423443766
1.508,0.08272332054182936,5893.212432500319
1.512,0.0754734166933649,5900.319754104678
1.516,0.07305891358697665,5904.456631400796
1.52,0.07800275666932863,5902.2669485309125
1.524,0.0867612534191668,5891.249984228294
1.528,0.09110779625805301,5893.290161295055
1.532,0.08154006208670737,5915.654402115106
1.536,0.05120954233228403,5899.573640703383
1.54,-0.0011270367921644825,5904.710208762294
1.544,-0.07014501814228753,5903.484589736774
1.548,-0.1453683003356748,5903.359103213473
1.552,-0.21452161474856088,5905.401282544839
1.556,-0.26734986194791566,5905.439324718317
1.56,-0.2979359440027503,5893.436281120254
1.564,-0.3043289544983727,5900.372642149959
1.568,-0.2860682188253526,5897.92722310344
1.572,-0.2416675268261341,5891.109715086942
1.576,-0.16813240169402643,5891.860695889702
1.58,-0.0631009555159511,5895.555543135113
1.584,0.07162246108731976,5894.232704151636
1.588,0.2272848677866639,5900.580566606463
1.592,0.3879435857744487,5898.914042118824
1.596,0.5333230117555926,5899.04616248406
1.6,0.643814800784052,5908.460885225199
1.604,0.7056272004056304,5900.639159985823
1.608,0.714153062848902,5898.4996354216655
1.612,0.6746411110942423,5900.287788779902
1.616,0.6003491353649789,5896.729334343045
1.62,0.5088958576507291,5900.277066030434
1.624,0.41767961961489675,5897.726342374384
1.628,0.3394757864220855,5894.936935447158
1.632,0.27958744847496014,5897.504836790483
1.636,0.23556972917170443,5898.6019258457245
1.64,0.19940825127310954,5898.632319607724
1.644,0.1609513265619039,5890.455287131122
1.648,0.11125188892355554,5892.218282195423
1.652,0.04504385868985543,5913.259230151639
1.656,-0.03800171158491878,5900.31910385435
1.66,-0.13348358798989024,5904.534988110008
1.664,-0.2338697871682242,5899.490330207178
1.668,-0.330892100231638,5905.255975837506
1.672,-0.4178862340964781,5903.807165335556
1.676,-0.4913068595339661,5898.925601542746
1.68,-0.5508368052927595,5899.324100488798
1.684,-0.5979688260552959,5900.01873353969
1.688,-0.6337931283972682,5889.198879253639
1.692,-0.6574097835394569,5896.231496994523
1.696,-0.6661219408989585,5898.193765566206
1.7,-0.6573691778828917,5901.806223265584
1.704,-0.6311330791674554,5900.988817085275
1.708,-0.5912367136566352,5907.878257964159
1.712,-0.544812079453614,5898.3673613624005
1.716,-0.5005370272961003,5898.514595891956
1.72,-0.46688478754986906,5899.656502336724
1.724,-0.45108148020616223,5901.744480832222
1.728,-0.4584580011707138,5900.745754737425
1.732,-0.4914913048678961,5901.741208645172
1.736,-0.5483364492104148,5909.844042026033
1.74,-0.6214930319649805,5897.595880524594
1.744,-0.6976695672597569,5899.553431978632
1.748,-0.7594834162366787,5894.661681272865
1.752,-0.788688745958369,5903.489569487326
1.756,-0.7700530623528146,5902.354901128315
1.76,-0.695127490189911,5902.625081111465
1.764,-0.5653127220682885,5896.759087088133
1.768,-0.39338101706147083,5892.787408870255
1.772,-0.20248325716397844,5900.14890981602
1.776,-0.0221945097098745,5900.321835753583
1.78,0.11780010148979282,5898.77898278441
1.784,0.1947769937903379,5898.794157833011
1.788,0.19880589447870015,5905.114135829517
1.792,0.13565572102479026,5903.567842286516
1.796,0.025772055091125883,5907.052892262871
1.8,-0.10077998400713724,5894.202231958951
