时间(s),电压(V),幅值(高频80K)
0.0,1.1802762398712254,5897.353568889548
0.004,0.6545367764111713,5893.353851896884
0.008,0.17751605897132325,5898.186769414024
0.012,-0.2082423198173705,5904.854910236125
0.016,-0.4755888010538662,5896.9466659435575
0.02,-0.6160156585211898,5893.689228821145
0.024,-0.6381249861119461,5898.750921255855
0.028,-0.5625791946097075,5900.453070879341
0.032,-0.4164620667590569,5902.771486492958
0.036,-0.229599394687741,5900.824417503113
0.04,-0.03300301239574146,5896.901213719056
0.044,0.14253073768794616,5896.493334995909
0.048,0.2694703109859846,5900.792752675427
0.052,0.32805766543308856,5909.495599240989
0.056,0.3104266547205105,5899.320153370747
0.06,0.2224385449783968,5903.753413813519
0.064,0.08241243616342839,5889.149690872762
0.068,-0.08298040085339253,5899.971362369159
0.072,-0.24462734342456757,5893.668787040894
0.076,-0.377049807512752,5900.96937378548
0.08,-0.46285561779778106,5897.408830744327
0.084,-0.49462035668963206,5908.969053806531
0.088,-0.4745894090875785,5904.145800770476
0.092,-0.4131949128088678,5907.110163732033
0.096,-0.32687368477217793,5896.388740618435
0.1,-0.2349890985359049,5896.417430805374
0.104,-0.15579739750468824,5902.665841698337
0.108,-0.10229254664430068,5904.6787798139485
0.112,-0.07948876859684312,5885.494529043992
0.116,-0.08443823237061221,5911.085549937905
0.12,-0.10899467259699616,5898.756300954125
0.124,-0.1438114266240003,5895.29730796489
0.128,-0.18145087440805074,5898.887327633482
0.132,-0.2173477461233497,5895.730797074694
0.136,-0.24896389397031463,5896.6631969328055
0.14,-0.27439321181846044,5895.503707813614
0.144,-0.29148151918935417,5904.763447814691
0.148,-0.2979673708511917,5894.375764981417
0.152,-0.2926638224273194,5901.02158063402
0.156,-0.2770067838442346,5902.306386662383
0.16,-0.2556853758680661,5912.580010440879
0.164,-0.2354614383334969,5889.5354476210005
0.168,-0.22262679997842083,5900.333567290171
0.172,-0.22055816721521523,5904.937049224995
0.176,-0.22862581825014083,5903.300761887329
0.18,-0.24272468653709886,5898.840832906187
0.184,-0.256866469353585,5907.05665391819
0.188,-0.2650658820631624,5903.334831340541
0.192,-0.2630045626760203,5900.302042807794
0.196,-0.2491970330840816,5899.137177003462
0.2,-0.22542184663684398,5903.978093578434
0.204,-0.19628677374886552,5893.714477899041
0.208,-0.16807912924675128,5900.527064297569
0.212,-0.14721844117287627,5895.611930375983
0.216,-0.13859192983137497,5897.753836309179
0.22,-0.1440414144805385,5898.759585348452
0.224,-0.16138789174715407,5898.70053732467
0.228,-0.18453180820066642,5892.740508804852
0.232,-0.2050474701697179,5883.749113662228
0.236,-0.2149790928681829,5898.723515034224
0.24,-0.20961563352949206,5898.797533580332
0.244,-0.18881968302595936,5907.945337703441
0.248,-0.15634373121194206,5895.068685460341
0.252,-0.11779904823438068,5905.861039961984
0.256,-0.07864743067300707,5904.698271801855
0.26,-0.04337377607176578,5892.096379975503
0.264,-0.016100121573665558,5898.779047750247
0.268,-0.001876948351677955,5911.777547747483
0.272,-0.007252040703276593,5902.569581898624
0.276,-0.03881980160240239,5906.509416589497
0.28,-0.09946112763125277,5894.3348698055615
0.284,-0.1836480131725935,5904.26917471251
0.288,-0.2745259082104951,5900.7830243971
0.292,-0.34525305761851915,5899.1297830107005
0.296,-0.3651719626897474,5896.787522964572
0.3,-0.30921171504430056,5903.3564821547625
0.304,-0.1676773425946892,5892.041249798093
0.308,0.04675649670211158,5893.505756488399
0.312,0.29771864189640024,5904.833283601703
0.316,0.5311755376955316,5901.933815006014
0.32,0.6883929138449735,5896.775554818284
0.324,0.7227713114919395,5900.284716386035
0.328,0.6153186747606874,5910.717600529025
0.332,0.3829593633070218,5907.803900505983
0.336,0.075755505653636,5899.855423193841
0.34,-0.23688270914452716,5911.2737676368615
0.344,-0.48648125198709635,5894.541383411372
0.348,-0.6250693732605916,5894.471884409055
0.352,-0.6371397718136319,5894.7834881439885
0.356,-0.5402700999172141,5904.144890564136
0.36,-0.37530500819705487,5893.1024325898825
0.364,-0.1909294437489643,5902.321038963441
0.368,-0.02884621891010821,5901.125883149787
0.372,0.0855705148484682,5895.319641649238
0.376,0.14517700106718923,5893.340801454171
0.38,0.1567502449841781,5896.180311610062
0.384,0.13398096462600123,5910.807074384187
0.388,0.09147564522874063,5904.979563683713
0.392,0.04162351995624014,5903.279110464267
0.396,-0.006072242440719861,5892.229712250475
0.4,-0.04471767834048369,5902.692317947372
0.404,-0.07014125824911523,5901.239139464199
0.408,-0.08180629062373419,5904.415869263844
0.412,-0.08383493595220914,5894.231953979051
0.416,-0.08487444448250576,5903.9242650848255
0.42,-0.0959424921157946,5898.319060397884
0.424,-0.12654101623072278,5907.65032498492
0.428,-0.18048177531975534,5899.546175480857
0.432,-0.25329552477072176,5896.960365573727
0.436,-0.3325122995747137,5902.947888647572
0.44,-0.4008725352935975,5901.882325250567
0.444,-0.44135447833368235,5904.152927049404
0.448,-0.44229053599296964,5892.0301388409325
0.452,-0.40097175416710706,5892.417863685555
0.456,-0.3248138785497056,5900.6082724843045
0.46,-0.2299311152218271,5900.563362884533
0.464,-0.137578982954127,5898.518525223699
0.468,-0.06943271707315524,5903.585569500604
0.472,-0.04300633588550309,5904.308719240717
0.476,-0.0683936416191298,5900.1668558674455
0.48,-0.14681555535139834,5903.886292591536
0.484,-0.27064581025050466,5886.690094786746
0.488,-0.424329053747323,5914.629040182803
0.492,-0.586028692578454,5894.033029060928
0.496,-0.7303813769057436,5892.565047813919
0.5,-0.832674039787056,5903.815608577784
0.504,-0.8739062128816251,5896.631257936625
0.508,-0.8452497164281962,5898.090427585782
0.512,-0.750357970069687,5903.478947274765
0.516,-0.6049053261789421,5906.073150978122
0.52,-0.4337566270537751,5893.60482217485
0.524,-0.2665387638826685,5906.901973138975
0.528,-0.13222942215610747,5903.474314835142
0.532,-0.05332716629375394,5901.841919274017
0.536,-0.040663199686389234,5899.887856254499
0.54,-0.09058208505781712,5906.140650130315
0.544,-0.18600246607962737,5901.292142095361
0.548,-0.30133627473062014,5906.601249480725
0.552,-0.4094453418875471,5896.193539753604
0.556,-0.4881725939612078,5899.338827943808
0.56,-0.5246952935038534,5905.32105216135
0.5640000000000001,-0.5170769369176517,5896.276243714718
0.5680000000000001,-0.47315403403014633,5896.768183111779
0.5720000000000001,-0.40723642851536807,5891.198129245388
0.5760000000000001,-0.33537173730693826,5900.862137670991
0.58,-0.27039280863127235,5899.098541845623
0.584,-0.2184882360293983,5900.365234660734
0.588,-0.17892165704287588,5902.667462895975
0.592,-0.14715275311981665,5890.267089480673
0.596,-0.11952635400845252,5895.330618657051
0.6,-0.09654941991947344,5906.4904193645925
0.604,-0.08269352261981797,5895.142289811363
0.608,-0.0830114331572942,5902.852063902409
0.612,-0.09887371672397154,5908.2437867145
0.616,-0.12545104499485307,5901.433764587694
0.62,-0.15220258274340495,5905.547256846555
0.624,-0.1658518395920039,5897.302942061499
0.628,-0.1544808991939605,5894.550213604324
0.632,-0.11150880502530891,5899.537421241023
0.636,-0.038517929772975336,5892.6505971514825
0.64,0.05409568894678326,5897.033584894994
0.644,0.14920115710283846,5912.988984547552
0.648,0.22721992575609132,5896.069923006074
0.652,0.2711594208879283,5906.806250865592
0.656,0.2707578793589343,5910.037895677298
0.66,0.2246623421571955,5905.169523441035
0.664,0.14038444757743349,5897.816728253544
0.668,0.03236192208752071,5895.829747387129
0.672,-0.08139208417828371,5900.212318303284
0.676,-0.18349986099096008,5908.029984227599
0.68,-0.26133825476410966,5900.750934430391
0.684,-0.3097015028550837,5892.618363206048
0.6880000000000001,-0.33098640779471383,5899.629581847497
0.6920000000000001,-0.33298963877947835,5898.108226625483
0.6960000000000001,-0.3253879926110835,5893.3222256172185
0.7000000000000001,-0.3161932422255404,5904.582959289154
0.704,-0.30916435221626926,5900.275538407669
0.708,-0.30276748368308376,5901.440960529498
0.712,-0.29089987880669393,5908.633762112874
0.716,-0.26517327203924246,5894.839660171606
0.72,-0.21812417217927957,5899.744975268315
0.724,-0.14638639548623364,5889.174674448447
0.728,-0.052750666133259835,5907.912228066044
0.732,0.05366681027852587,5901.517618739755
0.736,0.15920030591180942,5907.968421979032
0.74,0.24868063373504673,5898.487467317472
0.744,0.3088401456825406,5901.64111347193
0.748,0.3313620162287787,5899.02703421074
0.752,0.3150354740569939,5900.306807124994
0.756,0.26647804301177513,5910.403117098319
0.76,0.1990043479512414,5899.52482440586
0.764,0.1296974747741689,5892.674271618913
0.768,0.07541801222842753,5897.253299071726
0.772,0.048989989599001214,5898.122760560405
0.776,0.056783654298598656,5899.777808969853
0.78,0.09826923454954889,5896.898052102523
0.784,0.16719801454548414,5906.547649177489
0.788,0.2535130798369395,5891.912450681558
0.792,0.3452283975391712,5899.367301732241
0.796,0.43004588532513216,5895.825712926465
0.8,0.49686233567325805,5907.308185870701
0.804,0.5372975469955048,5897.956900092442
0.808,0.5470944043296079,5899.274662848743
0.812,0.5270123482243132,5896.818980075721
0.8160000000000001,0.4828213360942172,5898.028917200153
0.8200000000000001,0.42412829861852713,5899.987320116929
0.8240000000000001,0.3620240469884248,5902.90174525683
0.8280000000000001,0.30600844034975283,5907.592681023753
0.8320000000000001,0.26111700719832903,5899.978323868364
0.836,0.22625643005219864,5899.725822855824
0.84,0.1943979792882492,5899.701177792285
0.844,0.15469201151996737,5903.061024932949
0.848,0.09601599637417849,5893.208559629638
0.852,0.011093840861439212,5896.634654952884
0.856,-0.10000473166986876,5899.777457217039
0.86,-0.22843352267148928,5900.038991184153
0.864,-0.3582255119149813,5891.637547426958
0.868,-0.47060421205719405,5897.801562948068
0.872,-0.5490353892110774,5894.6459047104
0.876,-0.5829349494305265,5907.469507510495
0.88,-0.5691057728870839,5892.819629446092
0.884,-0.5112483720977032,5899.994471139407
0.888,-0.4184000772563512,5906.182877650494
0.892,-0.3030022335680205,5897.900196627496
0.896,-0.17892795396660635,5894.426498098557
0.9,-0.059533147148725506,5894.337333464232
0.904,0.04423461781971284,5898.554286407223
0.908,0.12543861512900822,5912.554378338414
0.912,0.18198682487276158,5894.600285578096
0.916,0.21619112933769702,5894.032288905955
0.92,0.23298070457300898,5894.905643577567
0.924,0.23743337576076587,5905.890943539791
0.928,0.2327337277221874,5896.309244597157
0.932,0.21947498173528052,5901.572400816597
0.936,0.19665443771227462,5899.567933224666
0.94,0.16405567477521515,5892.774494144476
0.944,0.12494810992740255,5905.440910568126
0.948,0.08747779030667513,5904.285681627995
0.952,0.06352614588972487,5891.367284382471
0.956,0.06517972159323604,5897.52157052631
0.96,0.10007432573050826,5906.893294955562
0.964,0.16693457287345004,5906.780059901663
0.968,0.2523694707123079,5900.848281111496
0.972,0.3302386466755677,5887.374422351585
0.976,0.3650423853214051,5898.8415629768
0.98,0.3198776720715137,5892.911454088765
0.984,0.16787019929386848,5896.013240401212
0.988,-0.09543099706699032,5897.994598461048
0.992,-0.4420156784419291,5891.702185665958
0.996,-0.8071578574077375,5901.2631328094085
1.0,-1.0936371167262926,5899.61357006507
1.004,-1.1855313888927153,5888.34142592737
1.008,-0.9704595971867686,5899.82401567708
1.012,-0.3666853614374613,5900.246816323259
1.016,0.6508711515566872,5894.014124641518
1.02,2.0333574038245747,5901.20653961823
1.024,3.6568932650712282,5898.203059650831
1.028,5.341575012226776,5897.16334883581
1.032,6.887668461000997,5901.088241288239
1.036,8.118823229713902,5897.743196170289
1.04,8.918832295319286,5900.624898230222
1.044,9.251168840745441,5898.960793985977
1.048,9.157266467848476,5899.516337961897
1.052,8.73670735330496,5904.152903427864
1.056,8.117560468247747,5897.329522619625
1.06,7.426599333234738,5901.678382012619
1.064,6.766850465133047,5896.285386676513
1.068,6.20561192974415,5896.103818419922
1.072,5.77229127859854,5896.714013445489
1.076,5.463498700019605,5890.404119628637
1.08,5.252471763132363,5886.971418534456
1.084,5.100208470653567,5896.716799782641
1.088,4.966136775243797,5901.65715246871
1.092,4.816665676766081,5906.65367498306
1.096,4.630579601563287,5895.521432082426
1.1,4.400965523578232,5904.25687323085
1.104,4.13408390268442,5908.600216505737
1.108,3.8460540342385907,5896.043062013205
1.112,3.5582787645743985,5902.278236304386
1.116,3.2923520834324798,5903.695782497166
1.12,3.0651504172111763,5906.712690249801
1.124,2.8850710845935503,5903.09459894514
1.128,2.7505123767560007,5899.348690625056
1.132,2.651103871327716,5899.166743186606
1.136,2.5711371244187884,5902.8172815586
1.14,2.493986107544261,5909.842061926198
1.144,2.406335734366682,5906.112769428844
1.148,2.301321734231257,5899.0521062293365
1.152,2.1799713562577487,5898.470556326004
1.156,2.0507132851481873,5902.566004590535
1.16,1.9271319260231354,5904.2026553578735
1.164,1.8244290621692596,5899.1953955133895
1.168,1.7553011654589592,5901.779098035558
1.172,1.726214406471413,5906.094463983765
1.176,1.735178881473319,5899.465582226794
1.18,1.7718314966436044,5896.880509040888
1.184,1.819859089354387,5899.481635647135
1.188,1.8608444006661624,5898.1054137224455
1.192,1.878201452029708,5897.9697560762415
1.196,1.8603607160503417,5903.762043219422
1.2,1.8030954760054112,5894.694086392293
1.204,1.7108808196056349,5900.805642591051
1.208,1.596601150624095,5897.058787835868
1.212,1.47887982305206,5890.763749357148
1.216,1.377292723700973,5909.241876819797
1.22,1.3069560935639344,5897.589411894436
1.224,1.2744076157815838,5897.865569444293
1.228,1.2761658054405893,5897.877422409811
1.232,1.3003208879192631,5900.34584442671
1.236,1.3303874592044973,5896.153430538028
1.24,1.3498676673408045,5898.583390095087
1.244,1.3459733170726038,5894.593473830265
1.248,1.3116458430169289,5881.91837859014
1.252,1.2458657095509111,5880.718752016723
1.256,1.152835241075987,5890.347491184504
1.26,1.0407332826273095,5883.066716224521
1.264,0.9204141703222042,5882.989964562781
1.268,0.8040071945886474,5878.3659510281705
1.272,0.7031781480490118,5872.687423725271
1.276,0.6269274573539269,5875.490095161304
1.28,0.579233384664641,5875.856743906584
1.284,0.5574258553137602,5873.839054477139
1.288,0.552360295881349,5880.12506071378
1.292,0.5508094029453946,5877.739177387481
1.296,0.5393434561167263,5880.970341283081
1.3,0.5082519466048262,5868.194198013903
1.304,0.45420548690918267,5867.068629573516
1.308,0.3809282668179452,5865.459084227666
1.312,0.2977199779326749,5868.61794209519
1.316,0.21631127796838662,5858.19073416173
1.32,0.14717762719471822,5866.331275905391
1.324,0.0965694163799363,5858.198130930849
1.328,0.06498285264527488,5850.187351598892
1.332,0.04712151984241647,5859.358615259676
1.336,0.03314601308902958,5863.168551400012
1.34,0.011162047916491691,5851.982131351796
1.344,-0.029106554413727927,5853.047850186342
1.348,-0.09214698407299095,5862.35025462564
1.352,-0.17354877492773177,5865.023120639794
1.356,-0.25960831564520565,5853.4132717910015
1.36,-0.3302571272944563,5855.684964286328
1.364,-0.36453592741048163,5853.16724520838
1.368,-0.3469355858692588,5849.735828282343
1.372,-0.27267776435263713,5852.161297788949
1.376,-0.15034028147196407,5852.454710799655
1.38,-0.0010710656394006368,5851.678651102632
1.384,0.1453699519149291,5835.46316603347
1.388,0.2567964902817847,5843.995708572006
1.392,0.3057169815445471,5843.69371076721
1.396,0.27587609296720694,5836.726795757282
1.4,0.16657914555818829,5844.613312216247
1.404,-0.006526539740717884,5839.26592044184
1.408,-0.21454908119389116,5831.228749246365
1.412,-0.4213523257836341,5826.108408512343
1.416,-0.5907020148946953,5835.5369083022215
1.42,-0.6930279704626507,5839.29764846187
1.424,-0.7109357310348433,5832.995271238118
1.428,-0.6428068154466214,5834.90436670123
1.432,-0.5036422600675308,5821.93121190334
1.436,-0.32251964547374923,5836.453863811595
1.44,-0.13686045583996406,5833.279124701544
1.444,0.015377897396011392,5834.749585139667
1.448,0.10384253012004213,5834.631532552125
1.452,0.11222945406911039,5821.049127565453
1.456,0.04121290859677104,5829.789212318276
1.46,-0.09304185880327806,5829.994342304756
1.464,-0.26419887180566554,5827.344160640366
1.468,-0.442914432042319,5823.441285419241
1.472,-0.6033334238551514,5836.4339498233085
1.476,-0.7270522842543381,5828.7504573870265
1.48,-0.8039463884003688,5833.587804562742
1.484,-0.8304732543302991,5829.626906280203
1.488,-0.8069813600531,5823.672990023116
1.492,-0.7359087516045698,5822.724768092944
1.496,-0.6220566081980937,5816.565574292064
1.5,-0.47450856765608557,5829.167796455671
1.504,-0.30832990187040915,5821.899226411441
1.508,-0.14398967824935,5829.816361438435
1.512,-0.0036695580510417926,5818.857959391213
1.516,0.09450173635826357,5821.765984008574
1.52,0.14194088078787373,5828.1121247426845
1.524,0.14252904789438636,5811.972612241848
1.528,0.1117674983974159,5817.265749902496
1.532,0.07233980011088564,5814.5052780325095
1.536,0.047369624976802624,5828.678447444431
1.54,0.05333337323826644,5817.728204567838
1.544,0.0946637194494652,5820.605645509491
1.548,0.16167375140883966,5820.2861603948895
1.552,0.23277489523604222,5810.979400730664
1.556,0.28091238266548857,5815.369488464847
1.56,0.2825332617050086,5810.132361188187
1.564,0.2259834751328845,5811.39891484971
1.568,0.11622705472563043,5806.4671802730845
1.572,-0.025696388240047042,5814.115420909562
1.576,-0.16818456798517503,5819.080081114747
1.58,-0.2779544935106993,5813.279104669487
1.584,-0.3298209172654672,5814.735895787171
1.588,-0.3142824426065799,5820.217845100822
1.592,-0.24007637764229225,5803.780257101502
1.596,-0.13055950612898112,5820.984313845386
1.6,-0.015321911982783742,5806.80416522565
1.604,0.07954909317548532,5813.24229174008
1.608,0.13871411586947568,5814.23585935117
1.612,0.15985160251518418,5809.236413616756
1.616,0.15093090447782126,5813.850619465013
1.62,0.12470813852268722,5812.5581775811
1.624,0.09347380545191901,5812.310448979646
1.628,0.06620806354428892,5805.197412283711
1.632,0.048496714214203235,5809.481596256174
1.636,0.043946046268031426,5810.391052157797
1.64,0.05526477683169888,5809.126731734648
1.644,0.08386851480465161,5812.289237595387
1.648,0.12822074274053166,5812.051839485525
1.652,0.18213900185565754,5800.882109930345
1.656,0.2343734439375105,5815.213908244315
1.66,0.2701440240839361,5815.495839721367
1.664,0.27451382120708495,5812.003468323492
1.668,0.2367236661985454,5816.775689996147
1.672,0.15409369433885645,5815.179999836203
1.676,0.03406850891344776,5811.822595283438
1.68,-0.1065314204414861,5797.732017547311
1.684,-0.2451821802281431,5806.741086067624
1.688,-0.3593503432019108,5813.444933030171
1.692,-0.43230695294842775,5814.156793664577
1.696,-0.45688865836602327,5804.874993356871
1.7,-0.43591911261534816,5812.676312821853
1.704,-0.37953472117296394,5816.895095208856
1.708,-0.3008929196525381,5808.298111012277
1.712,-0.21213603373637646,5811.424838928232
1.716,-0.12202844706117232,5809.285936754589
1.72,-0.03570721362715827,5805.988991382303
1.724,0.04396856550788063,5810.627148317451
1.728,0.11443787906439482,5800.956092854215
1.732,0.1717229915874597,5815.057680077675
1.736,0.20963126789597486,5809.749317378624
1.74,0.2202853201661526,5804.317998826167
1.744,0.19600486488682312,5806.665216831313
1.748,0.13203217229306782,5803.593491125829
1.752,0.02920046575716964,5815.613389869565
1.756,-0.10443348433652903,5807.026215088369
1.76,-0.2537316557213392,5804.3086214320565
1.764,-0.3986100703899151,5811.033828541474
1.768,-0.5177505386326066,5799.562145531116
1.772,-0.592977925281298,5805.294345370281
1.776,-0.6131534664031597,5810.888967993116
1.78,-0.5765053028240124,5805.995441879072
1.784,-0.49082174564178954,5806.432401048463
1.788,-0.3717127375938526,5807.602912468275
1.792,-0.2396100199840085,5801.621746489361
1.796,-0.11608783087470924,5811.092878834826
1.8,-0.019979917892078043,5809.1547110456
1.804,0.03597810759834542,5807.791510783146
1.808,0.047058151403375464,5810.3416516033785
