时间(s),电压(V),幅值(高频80K)
0.0,0.09223296509005116,5902.356231298205
0.004,0.12943763542374817,5903.422479524937
0.008,0.1515975431981599,5898.167325070847
0.012,0.14944235893297353,5893.095287285044
0.016,0.11953243682599515,5899.781406844515
0.02,0.064321602327711,5895.813504216309
0.024,-0.008599959474426358,5894.887474589256
0.028,-0.08752491577147099,5892.821343447549
0.032,-0.1584487815152564,5904.10213797699
0.036,-0.2082523392221859,5894.45509584097
0.04,-0.22849529894272766,5895.722016717092
0.044,-0.21797277274571641,5906.024407373736
0.048,-0.18275474120416083,5896.590458698343
0.052,-0.1341080340780897,5889.028847310984
0.056,-0.08564521299157751,5899.571235066257
0.06,-0.05057599762083896,5892.964094600746
0.064,-0.039201773853387564,5903.025364332922
0.068,-0.05683732245105298,5896.127985139715
0.072,-0.10267470482967073,5883.852659686892
0.076,-0.16980899860403095,5905.728382241578
0.08,-0.24602938337825098,5899.927916742228
0.084,-0.3150392855777127,5891.2495273397335
0.088,-0.35848439290077266,5897.5646676377
0.092,-0.35942545241415286,5903.077601141304
0.096,-0.3070577201851923,5891.835595899076
0.1,-0.2011766865846427,5899.7592279408045
0.104,-0.05424019047143731,5898.439611907081
0.108,0.11049202867208285,5893.379820672194
0.112,0.26462208262237835,5899.686459264245
0.116,0.38232529221554906,5902.384046695776
0.12,0.44763053366810773,5903.442853341504
0.124,0.45900729640693116,5893.733695783015
0.128,0.4296737118175227,5900.849880694132
0.132,0.3831254455717268,5904.355294124231
0.136,0.3451076117348392,5905.013258856093
0.14,0.3350657129554964,5898.795198016204
0.144,0.3605937671134321,5909.449038240447
0.148,0.41675364015460964,5899.361574518693
0.152,0.4894760550557606,5896.674812616801
0.156,0.5606108909785854,5900.843285869946
0.16,0.6124246102473978,5894.579041602354
0.164,0.6305671853776644,5899.181585393953
0.168,0.6054778752752228,5898.749186598859
0.172,0.5325273160395078,5895.415184947316
0.176,0.41139201808903225,5901.0408584172565
0.18,0.24540138368936007,5904.995354971292
0.184,0.041455959895796604,5900.896200508319
0.188,-0.1894550487121853,5897.185020504416
0.192,-0.4315811648261329,5901.621640973597
0.196,-0.6642278217882321,5895.691782046269
0.2,-0.8628352215958885,5892.136585147908
0.204,-1.0019961918269182,5898.835707498629
0.208,-1.0604475568051956,5901.034392331436
0.212,-1.0269676866326418,5891.83445691784
0.216,-0.9050742853646798,5897.713259906918
0.22,-0.7141723090527128,5903.476545834456
0.224,-0.48595279726578333,5901.317643531559
0.228,-0.25707201763436227,5903.663693147057
0.232,-0.06094747251315009,5902.245100664111
0.236,0.07846956679037072,5899.563832743155
0.24,0.14959196301317917,5898.420230111296
0.244,0.15299689229550162,5894.6505673756
0.248,0.09907372751555459,5894.074659790119
0.252,0.00453237901783035,5896.105715945674
0.256,-0.11129797786651223,5893.6177940987545
0.26,-0.22964773034562627,5902.853751150202
0.264,-0.3345832993622932,5907.407779515166
0.268,-0.4142879606082396,5893.657315555622
0.272,-0.46139264469194713,5900.226238621837
0.276,-0.4726026506038763,5903.303368338734
0.28,-0.44812063683662035,5900.978751582095
0.284,-0.3913261697015613,5901.571339189427
0.288,-0.3087612372017136,5895.89038436317
0.292,-0.21008638667556487,5903.109552832147
0.296,-0.10761403065935046,5905.510837576401
0.3,-0.015173776328670495,5897.833310397097
0.304,0.05378852807373826,5906.843769869502
0.308,0.08877096056064442,5903.283961036372
0.312,0.08494939011033231,5896.012230549185
0.316,0.04527691782550522,5897.315168486623
0.32,-0.01880961052542739,5896.81915154399
0.324,-0.08849113382352276,5901.46491424295
0.328,-0.14053240167833614,5906.71039466962
0.332,-0.1518751733353598,5900.4247685448845
0.336,-0.10527890794629348,5900.549917768538
0.34,0.005075586256620516,5898.793407978791
0.344,0.16962702843550828,5893.004486429848
0.348,0.36283909253602403,5906.031261016355
0.352,0.5470902819853075,5903.811149778644
0.356,0.6808897254375865,5894.530812755071
0.36,0.7295874116264901,5897.177259210856
0.364,0.6753359607057329,5902.603777826188
0.368,0.5227951599323422,5898.355478797204
0.372,0.29832870034730785,5905.310010234529
0.376,0.04275311965093748,5903.98788143792
0.38,-0.19985294876048126,5905.147210188122
0.384,-0.3932350950066285,5894.469761727568
0.388,-0.5162264006076456,5903.804415817522
0.392,-0.5646288847635356,5899.859194165422
0.396,-0.5486531055047973,5899.268739396967
0.4,-0.4880420615544586,5909.58693605551
0.404,-0.4066919985503339,5901.874867836134
0.408,-0.32773665954844483,5899.9188804420655
0.412,-0.2694730917643189,5903.438352242366
0.416,-0.24237616021504796,5901.547440665806
0.42,-0.24759433004452144,5904.079932841845
0.424,-0.27729811847788133,5889.406487604571
0.428,-0.31684851243281104,5900.664577623334
0.432,-0.3483493615737307,5910.256298557073
0.436,-0.3550091362688445,5908.397007265824
0.44,-0.3255078569444575,5891.319945783289
0.444,-0.2571686871974949,5901.30101545836
0.448,-0.15683099499883685,5897.558129944509
0.452,-0.039240329747569226,5906.1040169496
0.456,0.07619739649521855,5903.164322510348
0.46,0.16919738646922544,5900.713167858999
0.464,0.22227544737244412,5906.534995814275
0.468,0.22407219537091225,5903.623873462773
0.472,0.17206819971881857,5903.786221938846
0.476,0.07431804637272281,5901.903435736971
0.48,-0.05047199720057561,5900.717322593816
0.484,-0.17563042934829015,5909.792476923509
0.488,-0.2726520094774198,5911.6882513566425
0.492,-0.3196453864818539,5908.974823435888
0.496,-0.30907279782131925,5894.094560297182
0.5,-0.25143478135815617,5907.023141790169
0.504,-0.17299853709813354,5904.071281882553
0.508,-0.10797140155879492,5894.091922105402
0.512,-0.08768372829606777,5905.082377490609
0.516,-0.13053247356758632,5899.515259927044
0.52,-0.23614957008486423,5903.355866946997
0.524,-0.3856710291152337,5905.962068214662
0.528,-0.5477693890944093,5904.15020952096
0.532,-0.6880653752056706,5898.986613403343
0.536,-0.7784695853942761,5898.916041722998
0.54,-0.8034618724270995,5900.867671367078
0.544,-0.7619718738962294,5902.795442546521
0.548,-0.6652748714530012,5903.346277508701
0.552,-0.5322808699726336,5906.77595901126
0.556,-0.38382083227755437,5896.225412236653
0.56,-0.2374830100132157,5895.777344561368
0.5640000000000001,-0.10429374064927822,5903.000205847002
0.5680000000000001,0.012073699442722451,5899.309438358732
0.5720000000000001,0.11365652296267359,5898.071962876539
0.5760000000000001,0.20485719438471237,5900.746894506045
0.58,0.28860471206950605,5898.042087300462
0.584,0.36350221757610474,5905.083837755274
0.588,0.4231248921238313,5897.880499007961
0.592,0.4576676703990446,5901.474618273855
0.596,0.4571735680636474,5910.979766483466
0.6,0.4151363997962268,5889.73913775468
0.604,0.33128635931448897,5897.768330813232
0.608,0.21269705795504612,5898.641253136653
0.612,0.07300052015085208,5900.879134964651
0.616,-0.0698276264397973,5901.38331850911
0.62,-0.1963819158612205,5904.595495666444
0.624,-0.28887009536323993,5904.618701076071
0.628,-0.33395728371735284,5904.6059466984725
0.632,-0.3251514112424999,5900.731652792181
0.636,-0.26437233173879665,5904.753763434626
0.64,-0.16220472513059514,5900.585634961712
0.644,-0.03635166599930267,5902.472360210263
0.648,0.09177987673529696,5897.724312155866
0.652,0.2016901594836162,5903.756145091212
0.656,0.27830499531860087,5904.630907866908
0.66,0.31495147672014867,5900.916075972111
0.664,0.31369435640228294,5903.373588889263
0.668,0.2828136742710118,5904.152075158489
0.672,0.2323937203624154,5900.071320437762
0.676,0.16987862856888206,5899.380282012632
0.68,0.09750292929595643,5898.22737499673
0.684,0.012711251305041938,5898.198341011934
0.6880000000000001,-0.08862460661525119,5902.270567388823
0.6920000000000001,-0.20768235753920328,5904.9688077467845
0.6960000000000001,-0.33902994381101365,5905.877204797485
0.7000000000000001,-0.46967617042099125,5898.269783120884
0.704,-0.5814763934166516,5893.597569140858
0.708,-0.6560232462905521,5899.66948000691
0.712,-0.6800115665972297,5895.015432852111
0.716,-0.6488570749048227,5896.128560266803
0.72,-0.5672790054801736,5904.083290569146
0.724,-0.4471430124208575,5909.428298788481
0.728,-0.30404831357236084,5906.507039530839
0.732,-0.15426276250974127,5899.3391954311855
0.736,-0.012868460972626547,5904.645547514395
0.74,0.1070459287134785,5891.432273616111
0.744,0.19501795759304147,5907.813664511112
0.748,0.24443115937745138,5896.987009529672
0.752,0.2542681846944869,5904.033747194751
0.756,0.23057409449886257,5895.644563441168
0.76,0.1866118561125007,5899.949522724611
0.764,0.14093332624269242,5907.943536016995
0.768,0.11307721381779508,5897.470945674064
0.772,0.11751056074792032,5905.237650033288
0.776,0.15767798847515083,5900.772750815389
0.78,0.2228162188200794,5906.079190344947
0.784,0.2896202592006563,5898.6137834513775
0.788,0.3288780970554381,5896.173218154274
0.792,0.3148987027395801,5907.583234880565
0.796,0.23434027179953454,5898.785883662774
0.8,0.09146259472127002,5902.320757293168
0.804,-0.09177463647505617,5903.342866226028
0.808,-0.2809163539057747,5900.756295423636
0.812,-0.4384235295974694,5901.177667346074
0.8160000000000001,-0.5348900097512072,5901.802257675176
0.8200000000000001,-0.558534495380247,5906.571067906634
0.8240000000000001,-0.5193299614641562,5899.32582004045
0.8280000000000001,-0.4456887400639793,5897.556151935263
0.8320000000000001,-0.37450350525631415,5900.657813630885
0.836,-0.33822453483812015,5898.9379928479575
0.84,-0.35397554773521617,5909.793534092565
0.844,-0.4187344233727794,5896.9137464807545
0.848,-0.5119279902524102,5894.677447922624
0.852,-0.6037876216119139,5900.543176571194
0.856,-0.6657396655578781,5899.273107005772
0.86,-0.6787511106227058,5902.180765790242
0.864,-0.6369937974942917,5902.937963474072
0.868,-0.5465743541188124,5908.261117866296
0.872,-0.4211365767107776,5891.659559563366
0.876,-0.2769250382059798,5902.287277725101
0.88,-0.12912530287469762,5899.225148476608
0.884,0.010242312312476564,5897.35814435674
0.888,0.13345058751550185,5907.454103884957
0.892,0.2374501056468677,5908.866076484963
0.896,0.32318943516079557,5905.266716298165
0.9,0.3937269120681711,5901.7542404619535
0.904,0.4516989613190096,5898.61819873283
0.908,0.4971896127593988,5900.723486374203
0.912,0.5268688099942884,5888.765112497106
0.916,0.5345869692402764,5898.412433017173
0.92,0.5130013122751363,5896.853440717407
0.924,0.45571330319073416,5900.2778165944765
0.928,0.35967603957392263,5898.104237411762
0.932,0.22775914644332487,5899.886781241299
0.936,0.07096435921288087,5901.265912511497
0.94,-0.09094086226789319,5900.948526420629
0.944,-0.23186111929115263,5896.459409121388
0.948,-0.3253375264486534,5894.590697115625
0.952,-0.3523300500382757,5890.833808349964
0.956,-0.3073802682512849,5898.971239993926
0.96,-0.20019949906244316,5898.330041788114
0.964,-0.052346341401125734,5898.978463821064
0.968,0.10875793932704524,5905.002722389949
0.972,0.25562243873534674,5910.4533048988105
0.976,0.3646561820591039,5895.445793663615
0.98,0.4182886624582854,5905.662745902346
0.984,0.406156624358469,5894.689823626125
0.988,0.32624485811985293,5897.441868370694
0.992,0.1860197111408342,5892.773507304594
0.996,0.0026359116784299063,5899.031488893483
1.0,-0.19885699575303192,5906.564693222225
1.004,-0.389634607547061,5900.871835982703
1.008,-0.542908966316847,5898.021288986983
1.012,-0.6400341199169787,5900.228083538553
1.016,-0.6749353669056489,5898.19282564469
1.02,-0.6548797729625933,5904.474699686781
1.024,-0.5967956728432269,5900.824666214001
1.028,-0.5204723327287768,5896.038556545074
1.032,-0.44162838633268037,5896.76745567039
1.036,-0.3678240184332251,5902.013159375314
1.04,-0.298545742055512,5893.887053810679
1.044,-0.2285833558353784,5910.8790681004775
1.048,-0.15240110021212785,5896.507737620716
1.052,-0.06737409458120855,5906.146851674631
1.056,0.02487993094214674,5896.42987390163
1.06,0.11856295695077616,5908.047318851098
1.064,0.20443437461101557,5904.278688679598
1.068,0.27120102231872334,5895.410353181019
1.072,0.30799820193629274,5899.101881527088
1.076,0.30778773632303497,5902.87932246473
1.08,0.2703635206791375,5899.115909657268
1.084,0.20332590845031182,5900.198278327114
1.088,0.12031132142855709,5901.037083341127
1.092,0.03709391702904768,5887.868755794334
1.096,-0.033047789881362,5904.167515453914
1.1,-0.08321717185409842,5900.226468422412
1.104,-0.11481121646620455,5896.116712146389
1.108,-0.13672798859508256,5899.945977253273
1.112,-0.16194353686065746,5892.443807804994
1.116,-0.2024525744455054,5896.311164742592
1.12,-0.2642853711171754,5894.639352392633
1.124,-0.3445335653732292,5893.132840574939
1.128,-0.4316968600015367,5893.6032687225925
1.132,-0.5091997942428248,5908.289771097429
1.136,-0.5604084710282345,5887.43555530168
1.14,-0.5729838310140138,5890.976082320039
1.144,-0.5412607585260403,5893.8678165257
1.148,-0.466723053069694,5893.318255178751
1.152,-0.35742633162453596,5899.333945349528
1.156,-0.22704768914859516,5895.59589509701
1.16,-0.09363459425084746,5902.298094652041
1.164,0.022286505865353117,5901.423207149703
1.168,0.10058087952601218,5900.815787676228
1.172,0.12523259628187736,5898.0724416327785
1.176,0.08798619944601362,5903.319242540727
1.18,-0.009522625438751105,5901.57134672349
1.184,-0.1560158682590794,5911.273421007096
1.188,-0.3328964208533073,5896.608377888154
1.192,-0.517631794379083,5901.903827773588
1.196,-0.6872586410626668,5897.559635804297
1.2,-0.821412091627324,5886.521331155603
1.204,-0.9045305278983079,5893.199207688959
1.208,-0.9271204907538053,5898.014315707433
1.212,-0.8862313412368816,5896.126976823522
1.216,-0.7854360608488452,5911.1966022521965
1.22,-0.6345772229683522,5902.177428666764
1.224,-0.4492884927119872,5898.379786886232
1.228,-0.24992391542276865,5895.808341521976
1.232,-0.05948902373191276,5907.765527184071
1.236,0.09931802173178252,5898.159088911277
1.24,0.20741389592723167,5903.579652498635
1.244,0.25248564424479686,5900.269733938692
1.248,0.2314452251489654,5903.082091266024
1.252,0.1512826638185369,5907.47057130353
1.256,0.027546990067594757,5901.662826414768
1.26,-0.1192904908850764,5901.298571207472
1.264,-0.2681612082465039,5896.9988612176985
1.268,-0.40067988135534355,5900.163563156634
1.272,-0.5024952709530104,5905.733693356058
1.276,-0.5631413370443622,5899.670206706641
1.28,-0.5755748748590107,5898.751014514099
1.284,-0.5363710172398908,5896.151086505412
1.288,-0.44682096569616736,5905.590141735461
1.292,-0.3145985957046365,5898.324407050806
1.296,-0.15536607876790748,5904.444436742852
1.3,0.006672400977316761,5903.436862793151
1.304,0.14065255134270704,5900.53315265119
1.308,0.2144031919316379,5904.796604107406
1.312,0.20272846893160926,5898.77110622387
1.316,0.0961319515092528,5903.395804063411
1.32,-0.09318063177302736,5892.899815030878
1.324,-0.329905124706569,5905.385366162879
1.328,-0.5585754702046303,5904.40437646786
1.332,-0.7093326801783978,5903.866819792073
1.336,-0.7056421409153839,5891.362785224091
1.34,-0.4746729487454914,5897.33386738111
1.344,0.03856920923947124,5899.079963950983
1.348,0.8546501899186861,5897.674238959887
1.352,1.9458684699019502,5904.781210269733
1.356,3.2324157373310793,5896.831726242812
1.36,4.593367280740674,5914.5848265963
1.364,5.891020193645464,5899.631468379624
1.368,7.000567942094785,5901.767013396415
1.372,7.834739772589556,5892.639544728113
1.376,8.35611605189624,5894.8213060518365
1.38,8.575478871259966,5894.928032220325
1.384,8.53925937755367,5886.995651201881
1.388,8.311667819016554,5903.908807454516
1.392,7.957552207071355,5902.279435437016
1.396,7.530594273409463,5901.455267611878
1.4,7.068731926408273,5897.044015281249
1.404,6.595858691021907,5892.50096481963
1.408,6.1269408616972605,5905.435699159815
1.412,5.673282341043404,5896.099060387872
1.416,5.245678392043739,5901.916340017189
1.42,4.854834941909684,5896.465157563579
1.424,4.509751229775653,5894.715754878594
1.428,4.215444926090354,5893.965255462574
1.432,3.9715360031851406,5907.893932668186
1.436,3.772698346403625,5904.366001574022
1.44,3.6108254086643297,5893.620718513126
1.444,3.4776257542224744,5897.041900262116
1.448,3.3661803838767104,5898.499296310918
1.452,3.270872309025398,5896.349558257197
1.456,3.186253156536327,5903.462117261421
1.46,3.105981215437752,5894.009294246798
1.464,3.022722458713411,5901.65804760579
1.468,2.9292251167902394,5903.172865266008
1.472,2.8200952974805396,5895.474716289044
1.476,2.6933717625286495,5907.2555327264245
1.48,2.55109191354962,5907.7027361131895
1.484,2.3986882662970515,5902.098359934869
1.488,2.243665608666934,5901.718318309831
1.492,2.094015983921066,5896.84267165064
1.496,1.9565034693996823,5888.287337743228
1.5,1.8349611420003566,5903.994787538138
1.504,1.7291303248773082,5898.5596351264885
1.508,1.6347055893551525,5897.216140732412
1.512,1.544771297943837,5908.923493886744
1.516,1.4521366327374912,5910.50918866338
1.52,1.3517398845477828,5911.257278192303
1.524,1.242312678996087,5896.082624415712
1.528,1.126653979388015,5896.742211056159
1.532,1.0102976966860553,5900.141912256256
1.536,0.8991775147059292,5897.584853307619
1.54,0.7975042643052609,5902.813007406519
1.544,0.7068280202227981,5900.283334699898
1.548,0.6264571183340231,5901.663308991319
1.552,0.5547733698097448,5908.634162667995
1.556,0.49076203517396644,5898.475504088723
1.56,0.4351657446547961,5901.614327042505
1.564,0.3909221789498687,5894.909968385377
1.568,0.3627654277168171,5888.765903224698
1.572,0.35602669483579963,5896.6069871482805
1.576,0.3748736540874104,5902.247466605323
1.58,0.4204384296493674,5893.175159120651
1.584,0.4893817396568731,5891.8289101342025
1.588,0.5733845886057694,5898.284147839288
1.592,0.659788576211525,5883.593440725044
1.596,0.7332504697622528,5894.415125167803
1.6,0.7782146012728625,5889.916160621293
1.604,0.7821363246621591,5894.986746142619
1.608,0.7391041273158488,5890.367700211111
1.612,0.6528550129837348,5888.391465853032
1.616,0.5379336066534943,5888.081649099272
1.62,0.41817840214534135,5890.087636350787
1.624,0.32238226083446947,5879.2365952369655
1.628,0.2776150542354298,5884.925874073519
1.632,0.3015206565467824,5885.386814869765
1.636,0.395881887413433,5884.626636453081
1.64,0.5441051882150167,5878.233899027283
1.644,0.7141906081100914,5876.253477992192
1.648,0.8665603559723378,5878.201651554961
1.652,0.9641614457103946,5888.930851320383
1.656,0.9815968028711549,5881.1904788734455
1.66,0.9107485732770259,5871.955065130172
1.664,0.7617629217141128,5877.548436920928
1.668,0.5595924426317678,5865.765974690927
1.672,0.3372031089950806,5879.072712521179
1.676,0.1271255736459743,5877.729253725152
1.68,-0.04659757788910863,5876.840307671453
1.684,-0.17387467422523245,5875.210348737936
1.688,-0.25964718070196835,5868.159502442609
1.692,-0.3201157215781542,5877.069387813137
1.696,-0.37553188514124985,5875.502119796522
1.7,-0.4422803666652458,5878.834958977948
1.704,-0.5267876817356898,5867.161866545124
1.708,-0.6225915513870978,5871.430635022192
1.712,-0.7109467751742499,5881.555729331256
1.716,-0.7649751623618928,5871.608540029729
1.72,-0.7567574420109069,5858.42527195948
1.724,-0.6655808161812895,5872.09816762337
1.728,-0.48475009455385265,5868.708843568355
1.732,-0.22480459530843777,5865.68937952706
1.736,0.0876523213402313,5877.8975680560825
1.74,0.41484667348535276,5873.167318607171
1.744,0.7148485253195485,5864.124632243763
1.748,0.9489928727210132,5869.7205971684525
1.752,1.0884730042157607,5872.606851608296
1.756,1.1192422814884293,5860.622776689497
1.76,1.044338455244085,5857.936084344004
1.764,0.8828786947998782,5868.209863652432
1.768,0.6657169795283725,5860.417554952158
1.772,0.42872921202129677,5861.536952278593
1.776,0.20524967995464116,5866.95540945861
1.78,0.019231404856226,5856.699140746584
1.784,-0.11938146521793276,5870.429115412342
1.788,-0.21564946051811956,5861.802427178512
1.792,-0.2861216134506217,5852.336863106537
1.796,-0.35146247704337064,5854.999388561744
1.8,-0.4278712826022063,5855.0147346001895
1.804,-0.5209259210446147,5853.554054728593
1.808,-0.6245041122945351,5852.097326604084
1.812,-0.724913051028779,5858.9178606215255
