时间(s),电压(V),幅值(高频80K)
0.0,0.8404998854099897,5902.9572437329
0.004,0.6499064683495678,5900.256228874316
0.008,0.472445380148575,5902.942268418031
0.012,0.3203259900872622,5904.898181785127
0.016,0.19904264043503636,5895.910180594665
0.02,0.10590602971768419,5900.088475204008
0.024,0.03163650698755413,5907.627297369312
0.028,-0.03526809687738187,5916.482179603921
0.032,-0.10348781112948648,5904.078789733146
0.036,-0.17588498138143493,5902.108188721602
0.04,-0.25003533741365286,5908.190664827456
0.044,-0.321599124220214,5900.165329699293
0.048,-0.3882879193102696,5901.504778509081
0.052,-0.4519805044545555,5905.650712935807
0.056,-0.5176194317756967,5893.6997142591
0.06,-0.5893640465133904,5894.606982876337
0.064,-0.6661432877766167,5902.365103182122
0.068,-0.7392708501873773,5886.268611525895
0.072,-0.7938709171136862,5901.241968157811
0.076,-0.8139617094174555,5900.745851210243
0.08,-0.7890592293800783,5897.486895247765
0.084,-0.7192777249152918,5906.464912865681
0.088,-0.6167502707402643,5892.287250965877
0.092,-0.503016969086658,5902.427801914301
0.096,-0.40349071713958756,5901.167272270771
0.1,-0.340724965189058,5902.815614486656
0.104,-0.3283222560345574,5901.787181077956
0.108,-0.3671883604700213,5891.517804549592
0.112,-0.4452850298946442,5899.685190771823
0.116,-0.5408821390454347,5895.539167655607
0.12,-0.6279296788872524,5900.568964787578
0.124,-0.6815019659507278,5895.663230042036
0.128,-0.681917230333914,5898.573153709529
0.132,-0.6175097087586523,5900.064370387893
0.136,-0.48678518702632095,5896.646479920879
0.14,-0.3001659089841009,5893.970797551848
0.144,-0.08045353145961669,5897.98737582477
0.148,0.1392456775955242,5897.508020363953
0.152,0.32065518185830166,5896.997979654894
0.156,0.4278187963335893,5905.712493822499
0.16,0.4353035196084309,5905.262543197504
0.164,0.3350278394425521,5893.920152999014
0.168,0.13959298787682184,5901.386908919986
0.172,-0.11944115413467632,5906.690408261668
0.176,-0.3983965925198901,5899.305124338246
0.18,-0.651464052154242,5896.462204121781
0.184,-0.8405982236899663,5896.274061011559
0.188,-0.9425370577450284,5901.007996157814
0.192,-0.9518619981779084,5906.679465990367
0.196,-0.8805735119434484,5905.871040426737
0.2,-0.7551325306952482,5896.964280022986
0.204,-0.6115177614776945,5901.368772706072
0.208,-0.4884505567468536,5891.504199027119
0.212,-0.4192090974592941,5899.22167194361
0.216,-0.42338768228174656,5902.053535122863
0.22,-0.5009337516280956,5895.481977695192
0.224,-0.630932982037938,5900.462770745693
0.228,-0.7763988738915594,5900.714627822983
0.232,-0.8941282362876753,5899.282518537048
0.236,-0.9466060495819616,5892.529519842799
0.24,-0.9120780001091788,5899.726373774376
0.244,-0.7896503948443898,5901.973404426119
0.248,-0.5981793265162273,5903.585407794528
0.252,-0.36989470460914853,5898.813680638274
0.256,-0.14133297253141486,5902.367795251444
0.26,0.05527267410445557,5894.750063821772
0.264,0.19755499586168612,5904.365460652545
0.268,0.274410928457437,5901.943003223397
0.272,0.28398668849218084,5902.628934065153
0.276,0.2304206140988286,5900.971846270286
0.28,0.12166829097020761,5899.602954008144
0.284,-0.030545706376968556,5907.481296818349
0.288,-0.2095411936120783,5899.586317963944
0.292,-0.3934274992940081,5899.789584005469
0.296,-0.5576095335567449,5900.651778731512
0.3,-0.6800474495760958,5895.35594600817
0.304,-0.747166979312826,5903.748942262401
0.308,-0.757564929650102,5896.505466864977
0.312,-0.7217883317781966,5907.277807210623
0.316,-0.6584068679351827,5899.654083612238
0.32,-0.5879799474090814,5905.067349921446
0.324,-0.5270621427227973,5905.290829593103
0.328,-0.4843556689842183,5909.526498041414
0.332,-0.46028929266976454,5901.722353187239
0.336,-0.44954675055245225,5893.670812839126
0.34,-0.4444038510134944,5896.858952180415
0.344,-0.4367182206280598,5896.283823593201
0.348,-0.4182249759218005,5898.116027710583
0.352,-0.3806274637092879,5892.783416655348
0.356,-0.31701312570927886,5909.896934012147
0.36,-0.2245784366725321,5900.786391425743
0.364,-0.10721131457414665,5904.138087143945
0.368,0.023658731928726983,5895.65544464744
0.372,0.1505808740466952,5907.128775821773
0.376,0.2535494166076629,5900.195310803901
0.38,0.31449715346324514,5896.72757515895
0.384,0.3218608924205757,5893.621429540082
0.388,0.2742534269521586,5902.714929163857
0.392,0.18217178681660656,5896.133338679338
0.396,0.06676933853938237,5898.904846828095
0.4,-0.04461377263378591,5891.767045950523
0.404,-0.1252962865151567,5898.797423080737
0.408,-0.1565872839407429,5907.029764442893
0.412,-0.1334239804333165,5897.693278276707
0.416,-0.06648552576059578,5900.461478778379
0.42,0.020380860289000036,5896.692187831163
0.424,0.09738010261017713,5892.634171823675
0.428,0.13863219261763537,5898.839474276596
0.432,0.13091363362897512,5903.095100919194
0.436,0.077572188217246,5895.904887825545
0.44,-0.003843283097177828,5899.293732055861
0.444,-0.0886862964364833,5901.324532854892
0.448,-0.15355563405615996,5890.789240136997
0.452,-0.18239645137807467,5901.551635596117
0.456,-0.16858405588066486,5893.306611066744
0.46,-0.11354060296722233,5902.683318692234
0.464,-0.023963338043839377,5896.574953671797
0.468,0.0903683024493872,5904.314097018118
0.472,0.2175026125779038,5900.926085268005
0.476,0.3434547433656239,5900.615666707044
0.48,0.4525458177987818,5891.309029517256
0.484,0.528605114617577,5904.152147672295
0.488,0.5569660871868389,5904.872158744993
0.492,0.5265951537862317,5893.507034433748
0.496,0.4317339538497434,5909.624816934113
0.5,0.27304149047723714,5898.94979731155
0.504,0.05873363454515178,5897.729388759355
0.508,-0.1940365137707735,5907.368773648533
0.512,-0.4583194415898304,5895.465606354124
0.516,-0.6986911755061209,5903.907289411423
0.52,-0.8762226011612667,5904.262853524001
0.524,-0.9570444263973314,5903.101678649834
0.528,-0.9222067002510819,5896.816241863861
0.532,-0.7747481081413241,5905.709377069487
0.536,-0.5401643615537681,5897.0485181843405
0.54,-0.2594764259458985,5900.341227986475
0.544,0.021917637701209178,5891.726821042474
0.548,0.26458695929393783,5893.912035950254
0.552,0.4411568328462598,5897.361404844137
0.556,0.5378234747595527,5904.0681834848
0.56,0.553031353673994,5904.463002327437
0.5640000000000001,0.49517392685707823,5897.797036218503
0.5680000000000001,0.38022760941533046,5903.203292678068
0.5720000000000001,0.22927527368029924,5891.10244070772
0.5760000000000001,0.0655042928410407,5894.989140588335
0.58,-0.08940929988375826,5901.8686954649565
0.584,-0.21894462265151443,5896.456577197284
0.588,-0.31440119105654857,5912.333992309182
0.592,-0.3757525402153482,5904.606970515338
0.596,-0.41046455819549993,5898.042315429095
0.6,-0.4306737801236798,5898.100199583699
0.604,-0.4494583251769783,5909.665178580057
0.608,-0.47704623998685836,5899.901552730891
0.612,-0.5178536625004349,5890.248323039553
0.616,-0.5691654498807197,5897.968203544359
0.62,-0.6218664173424359,5897.005632638835
0.624,-0.6629242271077895,5902.806069372579
0.628,-0.6787079566257842,5899.556939894952
0.632,-0.6581044203060457,5894.702884830367
0.636,-0.5947325938930903,5897.171435295341
0.64,-0.488025329126256,5891.794478485297
0.644,-0.34330725783363614,5902.122315758887
0.648,-0.1711281709294436,5903.177516694867
0.652,0.014014095993879356,5902.050080013295
0.656,0.19559762503818875,5899.569171323093
0.66,0.3575670908596896,5903.709427396556
0.664,0.48692407587204395,5887.934743931851
0.668,0.5757204350542614,5904.370588747619
0.672,0.6219084477379742,5891.657559115353
0.676,0.62879894850636,5901.296591448903
0.68,0.6031668214532423,5906.112988947573
0.684,0.5524507123969848,5899.867008419576
0.6880000000000001,0.48197899335642264,5900.248434104063
0.6920000000000001,0.3933978803093141,5907.829595270966
0.6960000000000001,0.28524480114703493,5906.655596414255
0.7000000000000001,0.15579045749279496,5897.454547725818
0.704,0.006942818148098418,5896.142039895223
0.708,-0.15303934788487186,5895.751186676938
0.712,-0.3098359083248483,5895.835543411011
0.716,-0.4462754502132068,5902.144034809947
0.72,-0.5467281298536913,5903.173995629593
0.724,-0.6008348369285033,5917.827528340419
0.728,-0.6055963715044609,5895.751509404461
0.732,-0.5655496229731564,5895.899910250801
0.736,-0.4911600136769309,5900.067240556685
0.74,-0.3960396041497025,5898.078736617868
0.744,-0.294022818864999,5895.08447720508
0.748,-0.1970538045479039,5897.079434313337
0.752,-0.11420463429598413,5898.894806697288
0.756,-0.05142841979823675,5902.540772709827
0.76,-0.011427463522799016,5897.165482664594
0.764,0.006621678391852003,5903.11863509411
0.768,0.007196193481428301,5902.932398627435
0.772,-0.002208048479541809,5903.508323105293
0.776,-0.01295756839049537,5893.392250248017
0.78,-0.018216939361353254,5899.764706013044
0.784,-0.01586237481386988,5896.894828847347
0.788,-0.009889223423066753,5898.735102299067
0.792,-0.009324544740552393,5902.093201242781
0.796,-0.024825095462113585,5899.737129544092
0.8,-0.06425632725278646,5892.852181944151
0.804,-0.1289027424990838,5905.185163010154
0.808,-0.21156124479619595,5894.83396724487
0.812,-0.2972418740640391,5893.240336873093
0.8160000000000001,-0.3667122021536833,5892.475779328218
0.8200000000000001,-0.40220729014060724,5899.298361626895
0.8240000000000001,-0.393396996419995,5892.9607913205
0.8280000000000001,-0.3411719601074522,5898.49232228827
0.8320000000000001,-0.2576373003698779,5898.397633937403
0.836,-0.16235389638872988,5903.330513270939
0.84,-0.0762826209711447,5892.9018784434975
0.844,-0.01553285741469784,5900.813316804972
0.848,0.01301396585119885,5899.783642320534
0.852,0.012777521998714474,5902.374249508842
0.856,-0.004888241837367449,5897.392384028263
0.86,-0.025214190032607855,5890.5744293073385
0.864,-0.03475214346802623,5898.727703466055
0.868,-0.024826018063827535,5902.777274055281
0.872,0.006766608828523941,5904.124663856951
0.876,0.05536228921065598,5903.7779014323
0.88,0.10981503847692296,5892.978628970614
0.884,0.1538909860268818,5900.976523324448
0.888,0.16955163924765942,5903.053070782487
0.892,0.14237132171570147,5894.134001343542
0.896,0.06755023852071815,5898.769209258573
0.9,-0.04642502929303472,5902.474232345528
0.904,-0.17898383395053458,5901.4207584112
0.908,-0.30378492127240553,5910.418864861719
0.912,-0.39767135331328796,5906.537544096563
0.916,-0.4482071716231508,5893.572944445469
0.92,-0.4563031706145227,5906.931772171514
0.924,-0.43305257871402475,5901.229502565055
0.928,-0.39297531765096977,5905.269221771523
0.932,-0.34736765175251916,5888.460679047878
0.936,-0.30065707403042413,5904.4618514345175
0.94,-0.25063744856799974,5903.521564984363
0.944,-0.19169879713172416,5908.44464241327
0.948,-0.11927184490960213,5900.18137398347
0.952,-0.03354921467843025,5898.239753185724
0.956,0.05898118447591078,5901.928845550308
0.96,0.14657938759455028,5903.5812793053465
0.964,0.21500646791975497,5915.692794653637
0.968,0.2505649169241214,5900.108160616222
0.972,0.24260999364928326,5897.035854175467
0.976,0.18564208199976076,5896.410907978615
0.98,0.08111340258292674,5895.96500933965
0.984,-0.06164255099041928,5884.236186960553
0.988,-0.22622190125263364,5896.7837872190885
0.992,-0.3919273098171092,5901.875946737182
0.996,-0.5377976848079342,5914.788939591748
1.0,-0.6465736017801944,5902.225714034247
1.004,-0.7072850258490432,5910.725351584448
1.008,-0.7158782659081843,5898.496209858057
1.012,-0.6744843776066276,5894.429700547851
1.016,-0.5906413596233799,5891.311592817766
1.02,-0.4772208733189477,5901.1821868037705
1.024,-0.3524950558742797,5897.802955618287
1.028,-0.23908889957236495,5903.559723515005
1.032,-0.160973128821914,5898.664961545253
1.036,-0.13847050574854913,5892.193897684523
1.04,-0.18207064158132288,5894.470592297468
1.044,-0.2868893414572213,5899.676604029813
1.048,-0.4304809252839396,5893.298371296865
1.052,-0.5762452061307515,5893.040307766809
1.056,-0.6824401233533781,5903.566562519884
1.06,-0.7140204894614715,5906.441583810622
1.064,-0.6529749020194047,5896.228700574388
1.068,-0.5034274982526544,5906.848496641082
1.072,-0.290022719911607,5903.089854327151
1.076,-0.05067935710980971,5902.25407323654
1.08,0.17358373720963444,5904.711768094861
1.084,0.348809274255448,5902.454022020484
1.088,0.45589628745593036,5905.450197993808
1.092,0.49431504032046286,5902.33463931117
1.096,0.48065398341058824,5905.217524352855
1.1,0.4420391563449407,5898.709608363034
1.104,0.40621188402140673,5904.935261374752
1.108,0.391592621876067,5900.776343954839
1.112,0.4009123529948955,5903.61886595343
1.116,0.42065065120276424,5900.076726293747
1.12,0.4262837128119589,5897.154785913056
1.124,0.3913076570856309,5895.672489393264
1.128,0.2968796885595196,5904.782148874373
1.132,0.13883467944378888,5908.820928619774
1.136,-0.0702390002563264,5899.8091758622495
1.14,-0.30430368388128526,5907.829012826062
1.144,-0.530878125368922,5906.376617246199
1.148,-0.7189448736797934,5896.797430184481
1.152,-0.8453364337266485,5896.670477234568
1.156,-0.8983154841029617,5895.853060093491
1.16,-0.8780581843522696,5906.918965321095
1.164,-0.7944719521663707,5895.968310272244
1.168,-0.6634196946114151,5904.166976064297
1.172,-0.5027883059402676,5896.347382047308
1.176,-0.3296902946424375,5893.450906609295
1.18,-0.15954575386920178,5905.507220079277
1.184,-0.006990944772767074,5899.786456810853
1.188,0.11243664071625704,5896.4440771749705
1.192,0.18160199085189815,5907.422549609681
1.196,0.18354267553997533,5897.440009711087
1.2,0.1058603976798816,5901.489708522914
1.204,-0.05353290170639811,5895.443545994023
1.208,-0.28112550313083173,5900.98450048838
1.212,-0.5443997926928964,5899.9343805742665
1.216,-0.7912042920265882,5897.731523995564
1.22,-0.9527273841381284,5900.892302833569
1.224,-0.9509637382328446,5905.468005820981
1.228,-0.7110043277888359,5902.759221888146
1.232,-0.1770810146283155,5906.235732525592
1.236,0.6705579143570682,5910.010695570813
1.24,1.8026682952436124,5896.127117990096
1.244,3.1375222983413487,5902.905803155115
1.248,4.550914951082726,5901.886013727023
1.252,5.898854627870556,5904.403577190964
1.256,7.046231579020011,5898.532757517025
1.26,7.891987674138441,5902.5263328004185
1.264,8.383738565396133,5901.014811681849
1.268,8.520144061667047,5903.59172690359
1.272,8.343688445505592,5890.145110050301
1.276,7.928007689333731,5901.933789486295
1.28,7.363121255028025,5897.293934929603
1.284,6.740596749837761,5897.2976398500505
1.288,6.140093081983826,5901.191078093748
1.292,5.619008115064904,5892.1087279430585
1.296,5.207186239792549,5893.463384216648
1.3,4.907830663062654,5904.718136589312
1.304,4.703864458139011,5908.317585113512
1.308,4.567100623100515,5899.64911925542
1.312,4.467055159128836,5896.757307341926
1.316,4.377306286362214,5902.130103197413
1.32,4.27890461123033,5900.659586044398
1.324,4.161366877305843,5900.929427304874
1.328,4.02205950322264,5898.369526272602
1.332,3.8646426504951035,5898.497528221744
1.336,3.696966748814798,5894.637218609734
1.34,3.5286091035053735,5898.843156664733
1.344,3.368277401430816,5906.410106909078
1.348,3.2215309023360525,5896.786734328583
1.352,3.0894424278224233,5906.084664611579
1.356,2.9687152084395003,5899.893525949409
1.36,2.8533376830955235,5896.124398373517
1.364,2.73727974103541,5904.305689912236
1.368,2.617243716984216,5894.506578171062
1.372,2.494338454727524,5900.982710721396
1.376,2.3739157624125062,5900.1030953812
1.38,2.263539724314603,5900.400764327163
1.384,2.1697526082036016,5895.186081847585
1.388,2.0947207308209763,5887.351997381019
1.392,2.0340708286538427,5885.224984180743
1.396,1.9773151084722336,5898.475518756322
1.4,1.911792027540573,5906.286186930662
1.404,1.8294288332993673,5885.480819990863
1.408,1.7332948357569795,5895.271624915406
1.412,1.6397635933765926,5894.823132549996
1.416,1.5737652840645575,5899.546195349817
1.42,1.5583878912054359,5895.128595967648
1.424,1.6034390090221606,5899.7154698087015
1.428,1.6984212585061675,5896.308569212551
1.432,1.8134162765457371,5898.2058011445615
1.436,1.9078524813922944,5894.690501810027
1.44,1.9438274023206563,5901.700265050527
1.444,1.8989102722815348,5892.879794458154
1.448,1.7736777393837684,5901.2173158935175
1.452,1.5914490319927475,5904.873453157131
1.456,1.3908609103254352,5894.888739351127
1.46,1.2144706882564305,5897.512901072475
1.464,1.0973037191580677,5888.720495724499
1.468,1.0584487183861755,5897.044931311441
1.472,1.0975565589217864,5887.165808640399
1.476,1.19677252373529,5887.946100014305
1.48,1.3269362789897015,5887.8717630538495
1.484,1.455383073271544,5879.869789688492
1.488,1.552608582216854,5887.157315890303
1.492,1.5964728197145843,5883.089071608213
1.496,1.5741606576369946,5892.735387979115
1.5,1.4826954647466313,5890.607219631086
1.504,1.3284847695056656,5877.539339919161
1.508,1.1258546446966708,5880.9718301975545
1.512,0.8944060735786163,5883.032472535073
1.516,0.6554464689317941,5879.4186468418
1.52,0.42834356375239385,5882.948373345866
1.524,0.22785322815421236,5876.798421964714
1.528,0.0630354050861769,5878.428616770429
1.532,-0.06242129851570408,5868.66537401964
1.536,-0.14923482362884555,5870.075366549922
1.54,-0.20166421300989645,5871.6142758831
1.544,-0.22688394950888746,5866.421468865637
1.548,-0.23411023831784092,5873.366589314249
1.552,-0.23290525546231275,5865.926480828788
1.556,-0.2306540804342406,5860.646280786199
1.56,-0.23007455245899924,5864.547320380729
1.564,-0.22812193131111339,5857.856956120304
1.568,-0.21719198791518907,5857.003713364681
1.572,-0.1882566559820397,5865.522793825381
1.576,-0.1344754691514118,5871.197903827931
1.58,-0.05379522604719993,5866.330764270133
1.584,0.05002508236821111,5855.708189426165
1.588,0.16755536916853955,5860.949691790587
1.592,0.2844088859876362,5861.807416890681
1.596,0.38252616931288724,5866.275137414417
1.6,0.44252259956242684,5853.676118188325
1.604,0.4473030056990879,5859.975329381335
1.608,0.386346258302689,5854.212568691048
1.612,0.2594517746848337,5855.930447728854
1.616,0.07861425552532054,5852.792563742928
1.62,-0.13297508199540312,5849.026146772775
1.624,-0.345064369198642,5855.35870274423
1.628,-0.5268765247803271,5845.33218438393
1.632,-0.6543780829624596,5854.779643097246
1.636,-0.7161732008638367,5847.876707733775
1.64,-0.7161877458132072,5845.406039018394
1.644,-0.6721737578646655,5847.915350929354
1.648,-0.6101896090657938,5843.36552331429
1.652,-0.55635321353064,5850.050951073462
1.656,-0.5282232383249243,5855.305178261525
1.66,-0.5288101162554416,5840.984126355313
1.664,-0.5457661628525193,5846.375937452087
1.668,-0.5564131590323093,5850.373320492081
1.672,-0.5366864101598232,5841.526320988158
1.676,-0.4703024922617761,5837.202253696748
1.68,-0.3545823349422968,5844.186580612029
1.684,-0.2011841790401594,5846.533164316064
1.688,-0.03225059101507017,5849.341354826785
1.692,0.1261056374183308,5833.877824145392
1.696,0.25077733400003005,5843.217922529513
1.7,0.3272042002322218,5836.544812430312
1.704,0.35203411488588493,5843.795960887903
1.708,0.3323330555520318,5835.0213657678
1.712,0.2820879957719641,5831.748874183774
1.716,0.21769595841809908,5839.156836581066
1.72,0.15419377170174609,5844.749257364736
1.724,0.10344952445650141,5831.384615007768
1.728,0.07459333973990702,5834.546783602986
1.732,0.07561697079878249,5840.454585014718
1.736,0.11409069456186256,5838.251613738148
1.74,0.1954977069862442,5837.55434620174
1.744,0.3196792786802975,5825.547023622733
1.748,0.47763409220162445,5833.140524244521
1.752,0.6509132591127318,5841.4102242611325
1.756,0.8143349954460903,5836.402141793426
1.76,0.9411029390582795,5827.82375233912
1.764,1.0085839290502903,5829.342543125208
1.768,1.0029833065430755,5843.78172074073
1.772,0.9216796951086681,5829.520826709858
1.776,0.7729329511034685,5833.399021094452
1.78,0.5737722780209754,5834.854367878895
1.784,0.3473404222105613,5829.217621770616
1.788,0.12025273508716168,5825.901241711958
1.792,-0.08063774828758714,5825.939841437981
1.796,-0.23272309387766293,5838.764236879908
1.8,-0.3225909759411517,5831.561170265069
1.804,-0.3493429086999795,5838.426204543382
1.808,-0.3245083250176511,5829.191390787956
1.812,-0.26842385369557464,5824.0830278707845
1.816,-0.20454809782636196,5832.51339814215
