时间(s),电压(V),幅值(高频80K)
0.0,-0.7682082025859596,5911.475403378802
0.004,-0.3053280279301297,5898.1668384117065
0.008,0.10141197512087025,5901.13999015016
0.012,0.40244172111114185,5893.801580988718
0.016,0.5651641387215619,5908.184661086292
0.02,0.5770011206640301,5914.103761271556
0.024,0.44544195099162553,5897.294059985935
0.028,0.19636468841884613,5900.696663310723
0.032,-0.12916967744518867,5901.186964759808
0.036,-0.48022532805857293,5894.2685696780445
0.04,-0.803459742921306,5904.748775725313
0.044,-1.051553328927908,5906.623006131023
0.048,-1.1906449673617094,5901.560355206269
0.052,-1.2050857676302582,5895.214878145379
0.056,-1.0987106286109294,5895.588224069976
0.06,-0.892829725672352,5899.60667771276
0.064,-0.6219598328803475,5899.261544056732
0.068,-0.3285231892259246,5896.460618205936
0.072,-0.05716293000761787,5896.642082950747
0.076,0.15136409933831,5894.533168434176
0.08,0.2666832733022236,5897.469100503156
0.084,0.27479574606787815,5891.146685382142
0.088,0.18173057502435497,5892.47661917386
0.092,0.012801906991860094,5905.369643110173
0.096,-0.1934102744087385,5905.221845868812
0.1,-0.3948995917807884,5899.730834700692
0.104,-0.55646269321035,5907.7570149762605
0.108,-0.6568259696016664,5899.384710814626
0.112,-0.6908930844633645,5905.150277022497
0.116,-0.6673874684518185,5899.851902432196
0.12,-0.6035304023568626,5904.60312074371
0.124,-0.5189831686497621,5901.414288516464
0.128,-0.43111319427241157,5895.502239910835
0.132,-0.3526401433951503,5897.565154037887
0.136,-0.2912563048536356,5903.39831655822
0.14,-0.2498222574036957,5899.988562469199
0.144,-0.22600611162954556,5905.895645225815
0.148,-0.21162206976247216,5897.473234326824
0.152,-0.19319709235432833,5893.405189266638
0.156,-0.15508119468735185,5902.748592772408
0.16,-0.0847152957148784,5910.20131588607
0.164,0.02194352612797592,5903.009016215539
0.168,0.15704833232875742,5902.09853298033
0.172,0.30091449127928416,5892.814149327604
0.176,0.42595329954615874,5911.203102800272
0.18,0.5039713083007037,5900.314223049731
0.184,0.5149042071631784,5899.361358431166
0.188,0.45373892064116733,5900.927973098597
0.192,0.33251064865910956,5896.7334767866
0.196,0.17636962321053135,5902.604288064208
0.2,0.015549339781004845,5897.842287349481
0.204,-0.12330257701475651,5896.817088261537
0.208,-0.22340379239377567,5896.477036338936
0.212,-0.28043614886510526,5892.323889772628
0.216,-0.30173147904515696,5899.326097025441
0.22,-0.3028437094372017,5892.036960385295
0.224,-0.30222539724430814,5894.529387423524
0.228,-0.3150097835108147,5893.46566170117
0.232,-0.34773283141682104,5902.089902582235
0.236,-0.39617942556489527,5899.12173687356
0.24,-0.4474064051670868,5904.7158869593
0.244,-0.4848553454604935,5904.167917030518
0.248,-0.4939435424372195,5897.635051948633
0.252,-0.4657417219743563,5903.995908362916
0.256,-0.3979169034011928,5900.803586011896
0.26,-0.2937332309560744,5902.235170895173
0.264,-0.1606638179539536,5905.23860375565
0.268,-0.009934727578335113,5909.3656640178615
0.272,0.1427569144395848,5911.383484365546
0.276,0.27660053787677386,5900.667770468092
0.28,0.36721935907748154,5902.750243193973
0.284,0.39168454317903545,5894.872952967992
0.288,0.3359209468407017,5892.400429115127
0.292,0.20125583752383266,5893.4922142462265
0.296,0.006605189238472556,5905.043434753529
0.3,-0.21528819643841368,5894.186442288483
0.304,-0.4263233613974296,5898.078504437283
0.308,-0.5929419525858187,5902.916979612438
0.312,-0.693895096133062,5899.975258963656
0.316,-0.7235678260271361,5902.914110688759
0.32,-0.6904978123535863,5897.645288948654
0.324,-0.612448642871449,5904.234620960822
0.328,-0.5103036744154483,5899.1511602046085
0.332,-0.40296011077148036,5893.346862511196
0.336,-0.3044955981741909,5902.3925296656535
0.34,-0.22362046165223756,5888.889466836833
0.344,-0.16448329334826006,5890.6440025690745
0.348,-0.1277362735403533,5910.195278650035
0.352,-0.11126799014147784,5908.558807086628
0.356,-0.11060741442533845,5904.240587483558
0.36,-0.11929958247978326,5897.668493361599
0.364,-0.12955343637339753,5900.176823888752
0.368,-0.13322750643337328,5905.794068678678
0.372,-0.12291531457031558,5897.464244277163
0.376,-0.09290776944312322,5904.306011259604
0.38,-0.040158885141370906,5898.153713144957
0.384,0.03450194496891668,5893.67580639123
0.388,0.12510941463050357,5893.329366186603
0.392,0.22006317423432095,5898.038289937795
0.396,0.3033477642822219,5897.90654860067
0.4,0.3578683761491241,5897.014841467428
0.404,0.3703350879707859,5901.697352015551
0.408,0.33622447502309966,5906.705399232424
0.412,0.26282535506260785,5885.943358595656
0.416,0.16862607754753323,5899.804358199218
0.42,0.0785990319215819,5898.714270141055
0.424,0.016724278158454068,5897.41142286753
0.428,-0.0017362782403803551,5901.59021156755
0.432,0.024399961358701542,5896.014684648639
0.436,0.0812139576336623,5895.338059770035
0.44,0.14376051682298518,5903.599594983391
0.444,0.18417657995929843,5894.057006382234
0.448,0.18095067519613953,5903.6842228150745
0.452,0.12589815165193838,5897.543968171522
0.456,0.026552293447624803,5897.2365378390205
0.46,-0.09624552760776374,5904.641699784622
0.464,-0.2141810240810286,5901.57354907132
0.468,-0.2988578418862697,5899.99467402267
0.472,-0.3290586875078486,5901.41605624643
0.476,-0.29646180951128726,5901.586826826037
0.48,-0.2086028052350944,5897.404090820473
0.484,-0.08813682153917567,5910.90231046682
0.488,0.03198529082026839,5897.43484032424
0.492,0.1167554832077309,5903.174001722914
0.496,0.13877391161860222,5900.233509418502
0.5,0.0864800858743527,5902.972804221154
0.504,-0.03182368694263123,5897.474872458907
0.508,-0.18983804999896603,5892.92070655236
0.512,-0.35075893016704657,5896.718851623513
0.516,-0.4778226682586141,5900.3559039885895
0.52,-0.5438973716621555,5888.426510640466
0.524,-0.5368134661709638,5902.751434699705
0.528,-0.4595651492235578,5893.831257352685
0.532,-0.32675411550989725,5897.771200171655
0.536,-0.15942483956981704,5893.916863938734
0.54,0.019871103404960434,5908.609258072286
0.544,0.1906515581855898,5900.610955274371
0.548,0.3364201391682238,5907.137836719772
0.552,0.4452497977549373,5895.518823680561
0.556,0.5095267088928414,5897.434843618852
0.56,0.5252709662147153,5890.4054868855965
0.5640000000000001,0.49145356796347345,5891.721178312723
0.5680000000000001,0.40973264262051734,5907.346211162971
0.5720000000000001,0.2847903633454947,5898.775964556588
0.5760000000000001,0.1250014382957477,5906.073910828627
0.58,-0.05719491459536689,5896.397396546045
0.584,-0.24583196157412124,5901.4433442649615
0.588,-0.423067924860314,5898.918199914266
0.592,-0.5716808687829946,5913.031979457781
0.596,-0.6778572632182466,5907.200427770669
0.6,-0.7335785565871874,5891.555934250002
0.604,-0.7378372165872832,5899.786615991593
0.608,-0.6961616126080364,5904.240012936652
0.612,-0.6185728781207749,5901.445319203999
0.616,-0.5167502820920103,5900.039994561873
0.62,-0.4014453874739405,5902.785119545033
0.624,-0.28099835420492786,5901.437881501273
0.628,-0.16129350388101024,5896.952266881996
0.632,-0.04682591669681471,5895.835014390932
0.636,0.05794343615245453,5903.812442424472
0.64,0.14776484845385998,5905.967573452559
0.644,0.21668386686122285,5899.066050902178
0.648,0.2589537756004909,5906.608252550907
0.652,0.27048600864883826,5900.83595531072
0.656,0.2503466487140206,5899.694994205854
0.66,0.20152394887846195,5899.47903153876
0.664,0.13029593214846083,5903.079910243525
0.668,0.04430426696302478,5895.392771068373
0.672,-0.04968507185673899,5896.362763023634
0.676,-0.14715480514125914,5905.318830797335
0.68,-0.24571740948137674,5903.318993782222
0.684,-0.34372350535300583,5889.989085998927
0.6880000000000001,-0.43847657304332516,5906.133359972206
0.6920000000000001,-0.5250661128531642,5896.0438438565225
0.6960000000000001,-0.5963861407631738,5901.3785262235615
0.7000000000000001,-0.6442860905318822,5892.951025927347
0.704,-0.6614620351124283,5904.156138785779
0.708,-0.6435772540528818,5907.992450521226
0.712,-0.5909010274246987,5902.686760293935
0.716,-0.5086448171413013,5900.325869909388
0.72,-0.40563349497977547,5890.62521955574
0.724,-0.29188890773291803,5898.0553541720265
0.728,-0.1763403738893778,5898.545726831944
0.732,-0.06562853282328772,5894.012178511243
0.736,0.03585939322546691,5894.844095484176
0.74,0.1252304727354894,5890.124884553691
0.744,0.20022852055798063,5899.521266167648
0.748,0.2586695831226452,5899.4246932784245
0.752,0.2982255539433123,5903.393805924308
0.756,0.3164352290643937,5897.947933796004
0.76,0.31102604866100964,5897.692931085743
0.764,0.2809284162089271,5904.966293229737
0.768,0.22810480364305669,5901.581594341492
0.772,0.15943352965844237,5893.4092258128485
0.776,0.08722782557032838,5900.39481018266
0.78,0.027344860809657,5904.109848487636
0.784,-0.00491533361158036,5901.988844223372
0.788,0.00027817398916216217,5905.815771181305
0.792,0.04335681819585811,5901.198197807493
0.796,0.1137637251222803,5902.3087006570495
0.8,0.19133267954241093,5907.646256541185
0.804,0.2506085249482526,5895.68440840553
0.808,0.267420154765303,5894.419992546514
0.812,0.2261743854118693,5898.815874601875
0.8160000000000001,0.12559471849298667,5890.155199022654
0.8200000000000001,-0.01934835483663069,5893.692295737809
0.8240000000000001,-0.18041736538914188,5898.3036456998425
0.8280000000000001,-0.3232584879353851,5901.286739107077
0.8320000000000001,-0.41635433409121125,5902.0952989885
0.836,-0.4387694247492071,5906.866230019014
0.84,-0.3843578888853783,5896.6165904747
0.844,-0.2617867302049246,5895.474892704776
0.848,-0.0914784203573632,5896.865514198527
0.852,0.09867545037294419,5893.63702802495
0.856,0.2776339159119375,5902.937014495443
0.86,0.41560769903565514,5897.377442094888
0.864,0.489007843389956,5896.896855467075
0.868,0.48552788521960877,5903.113355799244
0.872,0.4077190918590404,5904.437845028113
0.876,0.27310029461894986,5889.496779277328
0.88,0.10992065566722635,5895.6485029269925
0.884,-0.05033558372271479,5900.162844852703
0.888,-0.18101419386749312,5903.934853346737
0.892,-0.26615590319577775,5901.785875095448
0.896,-0.3026738870077329,5902.050982200532
0.9,-0.2987995173922443,5900.941188892265
0.904,-0.2696767511736391,5907.924923052309
0.908,-0.23165978315693248,5893.323534145533
0.912,-0.19734328780049193,5901.385201689413
0.916,-0.17309055048233285,5899.924450429173
0.92,-0.15968438059993165,5904.3641779699765
0.924,-0.15533438472323596,5895.321658245799
0.928,-0.15925485145724827,5896.3440138089145
0.932,-0.1736953464713438,5902.163109960062
0.936,-0.20303318660585778,5892.812987654887
0.94,-0.25036514013432315,5902.066900026157
0.944,-0.3138620250852542,5901.419683673969
0.948,-0.3853850782455569,5901.06145622282
0.952,-0.4522342315459741,5898.830658449869
0.956,-0.5008792317842854,5902.185900171822
0.96,-0.5206708388472115,5899.292187822091
0.964,-0.5060010828178466,5911.128042476286
0.968,-0.45647252718768777,5902.918310794359
0.972,-0.3758037072294738,5899.655147810745
0.976,-0.2708437578384898,5886.466291382487
0.98,-0.1515356123102743,5901.046853583909
0.984,-0.0312821029018628,5894.30059292249
0.988,0.0737639209065288,5902.770774114897
0.992,0.14755532584332295,5904.015411605017
0.996,0.17872536413477932,5906.744214760123
1.0,0.1649485872299046,5904.115798264503
1.004,0.11480111609479834,5901.772217360453
1.008,0.04593036192204189,5899.802619201132
1.012,-0.019944735148038736,5907.524200803113
1.016,-0.06344859258081897,5902.720539170613
1.02,-0.0732983873802132,5904.505869177945
1.024,-0.04966541022696773,5900.00963144698
1.028,-0.004143557688784007,5899.400639144056
1.032,0.04370756812793007,5898.9889508993365
1.036,0.07216165679791824,5897.481853394561
1.04,0.06355552588453085,5899.36632270395
1.044,0.008986394971601695,5901.589027416016
1.048,-0.08972654348819442,5897.570512067341
1.052,-0.22088300670744518,5906.595343518424
1.056,-0.3656951239470901,5907.445574897137
1.06,-0.5019383773356436,5899.142811499357
1.064,-0.6077718569136914,5904.218662801539
1.068,-0.6655368979405787,5898.138092249395
1.072,-0.6653301764263067,5911.162676880696
1.076,-0.6076464479703865,5902.127104843435
1.08,-0.5040287435827203,5900.966698260524
1.084,-0.37497562505118137,5906.24436378801
1.088,-0.2453126315973888,5899.441698089952
1.092,-0.1383964522956129,5895.508081735465
1.096,-0.07115599506868038,5898.140023545697
1.1,-0.051477744855383534,5905.89479385961
1.104,-0.07813249530095376,5894.3086014748815
1.108,-0.14240161161988113,5903.783176420682
1.112,-0.230371806349732,5896.842536767935
1.116,-0.3251683292616235,5899.648705765514
1.12,-0.4088057137435724,5906.057718248194
1.124,-0.46388327696248094,5912.247255845065
1.128,-0.47583161415982567,5905.238546798686
1.132,-0.4362255305896337,5889.433817037439
1.136,-0.3466610882620753,5899.243361820958
1.14,-0.2215400232219322,5898.291186542005
1.144,-0.08776326724497431,5901.436733834566
1.148,0.019761199637415485,5893.494391621704
1.152,0.06620541995581486,5903.293286030045
1.156,0.026413741817398997,5902.554170070005
1.16,-0.1068035849991947,5890.208035525463
1.164,-0.3183441351980954,5892.297242123086
1.168,-0.5721448966348024,5895.638108212987
1.172,-0.8182243729378881,5897.977402527114
1.176,-1.003811973282319,5897.741535785054
1.18,-1.0858156962926873,5900.923652906332
1.184,-1.0414234669373117,5905.601461583013
1.188,-0.8738535256732234,5901.549808757256
1.192,-0.6114032831375331,5889.749689889628
1.196,-0.30002904474297964,5907.321777397471
1.2,0.008020066704852632,5895.695797925288
1.204,0.26573944582603826,5900.470729966746
1.208,0.4398392503074918,5901.235425347591
1.212,0.5147106509041367,5901.843983473559
1.216,0.49219045393222505,5894.035949490458
1.22,0.3883317219080963,5900.846695126189
1.224,0.22865305115101126,5902.698974277648
1.228,0.04324299806918883,5903.104789056672
1.232,-0.13737632632273988,5900.683259348901
1.236,-0.285418453353808,5905.8199610216425
1.24,-0.37835962899702547,5893.2284645274185
1.244,-0.40125305790851085,5894.278296697376
1.248,-0.3489020021535583,5901.186381114546
1.252,-0.22734698766450517,5898.051057722709
1.256,-0.053733963036348587,5899.846444065713
1.26,0.1460403570324367,5902.729599944832
1.264,0.3415537122190838,5891.368982368729
1.268,0.5027999914330807,5898.7161488184565
1.272,0.6047660962099536,5895.381122319454
1.276,0.6313025521268116,5909.471166980323
1.28,0.5783319889250278,5897.274948733949
1.284,0.45586956949575685,5895.049409033611
1.288,0.28753408691987903,5898.5045195708335
1.292,0.10645910831217496,5900.081483304232
1.296,-0.05199040381206861,5902.093619944658
1.3,-0.15852573238335582,5907.370664430711
1.304,-0.19629665099390228,5899.992615385517
1.308,-0.1631386995312829,5892.141807665032
1.312,-0.06958784688028921,5896.0754684129
1.316,0.06547004450724468,5896.99297274822
1.32,0.21912551895529261,5901.2474564520935
1.324,0.36743571727220253,5903.085307739597
1.328,0.4871798118633523,5896.150285597136
1.332,0.5570264722280948,5895.757757714394
1.336,0.5585392826994716,5900.81681607998
1.34,0.4773480303340949,5909.329200525619
1.344,0.305148454615715,5909.706352322828
1.348,0.04336087778451525,5900.555518273556
1.352,-0.29134708152479605,5903.153516851047
1.356,-0.6608399288077775,5898.026534465952
1.36,-1.0013095814501345,5903.169949813536
1.364,-1.2247296981248708,5903.89961494603
1.368,-1.2290735830079602,5897.239604038257
1.372,-0.9179976975994669,5906.877365773095
1.376,-0.2269462521169164,5900.594515405884
1.38,0.851205715873274,5904.553767694745
1.384,2.250153069437754,5897.341647029068
1.388,3.8321111511677524,5901.494919931125
1.392,5.41114460507324,5908.250459714382
1.396,6.793418666353286,5892.346883500033
1.4,7.822319598993464,5898.570059739073
1.404,8.413440572551027,5899.345115988589
1.408,8.568292294519777,5905.702183768327
1.412,8.364117929784122,5898.968767457413
1.416,7.92569010667175,5896.558891272744
1.42,7.389704420007321,5902.898761189146
1.424,6.872424641793275,5899.423218721471
1.428,6.448108562825251,5904.568818167143
1.432,6.141634926698112,5903.105823630499
1.436,5.934922904958659,5900.8716629358605
1.44,5.783498400694772,5897.898954209966
1.444,5.637198253777179,5905.851326788608
1.448,5.458290818473814,5900.96292107565
1.452,5.231868708496129,5901.065257570848
1.456,4.9666834362371155,5896.455770903108
1.46,4.688067256841928,5902.534789995357
1.464,4.426818782434338,5899.177374278615
1.468,4.20835421888525,5895.355615434501
1.472,4.045335273345671,5904.313381151321
1.476,3.935234839041691,5897.725782747531
1.48,3.862653549103515,5901.282598274463
1.484,3.804905646371178,5909.985973892312
1.488,3.7386042876583883,5898.759848541788
1.492,3.645080183372118,5895.172126817811
1.496,3.5135251265094505,5904.5900250440345
1.5,3.342005127191582,5895.200764006018
1.504,3.1369992318581357,5904.776018742125
1.508,2.911780048634733,5907.329259585451
1.512,2.6834847959436496,5896.389948289077
1.516,2.4688541410285594,5904.897389518635
1.52,2.2794248540264497,5902.473860706202
1.524,2.1178493001887975,5901.5253432216205
1.528,1.9771622058489648,5892.554049406854
1.532,1.8438480900106122,5904.665146791627
1.536,1.7038240607177797,5902.882192177212
1.54,1.5488957458740666,5898.290153945552
1.544,1.3809392517265378,5902.838413909437
1.548,1.2121660392269171,5906.572067865301
1.552,1.0613893207245315,5909.0531546204265
1.556,0.947498963883175,5905.762472311051
1.56,0.8823732166305693,5899.58346648872
1.564,0.8659510517624908,5906.953301338688
1.568,0.8855976139810231,5894.808141799276
1.572,0.9203071948231596,5897.268598344236
1.576,0.9483261036140995,5894.521460673431
1.58,0.9551027372092361,5896.934004107723
1.584,0.9379943555467491,5901.886644904844
1.588,0.9056031246580857,5895.209312974025
1.592,0.8723557174161887,5906.515047371154
1.596,0.8512328897857021,5897.242162299768
1.6,0.8481358519472724,5892.664583754886
1.604,0.8602412352333173,5890.249577141651
1.608,0.8785793275044872,5890.493316017633
1.612,0.893023598571832,5896.619332579782
1.616,0.896996368142329,5886.07520113518
1.62,0.8898184892840412,5892.636616047982
1.624,0.8760558193620455,5892.745333636787
1.628,0.8625460889625215,5880.2151897220965
1.632,0.8546035028887998,5883.014041177599
1.636,0.8530399235569406,5871.842474496856
1.64,0.8531280546585402,5875.231086405854
1.644,0.8458349298585754,5879.28331955309
1.648,0.8209512773527381,5876.220850532208
1.652,0.7711400162029193,5879.595040924858
1.656,0.6954818601362424,5876.899305963941
1.66,0.6011349894060564,5879.292510551327
1.664,0.5022762212814266,5872.055466199501
1.668,0.41625876658571553,5870.2835562723785
1.672,0.35789294663584836,5875.433504213114
1.676,0.33389326475053843,5868.487747541479
1.68,0.3400379356713718,5870.536424310408
1.684,0.36255712228499876,5862.931850303496
1.688,0.3831054129231042,5856.1408181533125
1.692,0.3849478525833344,5862.006449484018
1.696,0.35782474230709604,5864.680147990851
1.7,0.3001084022801328,5858.670925390185
1.704,0.21828826848712024,5859.634041003713
1.708,0.1247064090794868,5861.170222769983
1.712,0.034588544730845196,5858.092411445919
1.716,-0.03699191686178199,5850.488616184541
1.72,-0.07801652305664518,5862.080339390265
1.724,-0.08213643484352563,5864.561312726086
1.728,-0.05055638638091152,5849.403878640233
1.732,0.007479532438959547,5851.4951322958
1.736,0.07619458994054604,5855.093757392344
1.74,0.13693882489203635,5852.846191386078
1.744,0.17329277390892422,5844.46679557414
1.748,0.17590729551189344,5845.200229475812
1.752,0.14504544192791255,5863.159519798851
1.756,0.08961427178223415,5849.69927507579
1.76,0.02303960593808722,5847.430558860239
1.764,-0.042196824340416716,5847.594081539474
1.768,-0.09895390547260108,5855.518665276607
1.772,-0.14705140644878986,5851.815400991703
1.776,-0.19190355491490804,5841.578130588407
1.78,-0.24113498929146077,5850.068952538115
1.784,-0.3004613175062366,5846.534254514751
1.788,-0.3701053676332856,5842.625607304671
1.792,-0.4431492635987027,5845.25527927774
1.796,-0.5069191269346428,5844.6253806487175
1.8,-0.5471373937143983,5844.50470171668
1.804,-0.5529180746115115,5848.709194395951
1.808,-0.5202538136101014,5842.694148284296
1.812,-0.4527924964960065,5834.304620775639
