时间(s),电压(V),幅值(高频80K)
0.0,-0.8940195806440137,5896.813974939847
0.004,-0.6695020946236989,5900.943439645252
0.008,-0.47329150904584244,5904.724168222882
0.012,-0.3285310768350701,5898.855491523448
0.016,-0.2488825970282793,5895.827048342087
0.02,-0.23590865228540106,5909.18664258614
0.024,-0.2787435471605139,5905.719281187198
0.028,-0.3566634443480412,5900.823687442872
0.032,-0.44446513710762703,5901.632081675458
0.036,-0.5191584590925113,5910.158261391479
0.04,-0.5654875019011104,5895.373784934391
0.044,-0.578316412610105,5893.053851639676
0.048,-0.5616242864032462,5891.094020034885
0.052,-0.5253392271854009,5901.41735888781
0.056,-0.4815762995874154,5895.887671515343
0.06,-0.4413682541109204,5898.962283717424
0.064,-0.41247288710137975,5901.936609268199
0.068,-0.39850407413959615,5899.544969972436
0.072,-0.3992275348617458,5903.307654107801
0.076,-0.41140089446706446,5896.9740979484295
0.08,-0.4294280854709621,5896.088670961831
0.084,-0.44568665822042786,5901.043376161341
0.088,-0.4512883687547844,5894.68157971057
0.092,-0.43814314270720156,5902.185577005611
0.096,-0.40199366285619287,5897.357093485504
0.1,-0.3446694614035645,5907.231478957531
0.104,-0.27382149846042136,5897.894419732657
0.108,-0.20004621843463843,5903.56675828161
0.112,-0.13304182548089638,5897.237409395193
0.116,-0.07872014534581952,5899.682954301816
0.12,-0.03815375729476028,5903.856178084112
0.124,-0.008192423742054571,5895.612690416479
0.128,0.016741034350587464,5902.663807635355
0.132,0.042248202332033115,5896.811770620527
0.136,0.07186293289299191,5900.68697505989
0.14,0.10633851348479045,5907.169786153156
0.144,0.14465476658264437,5893.794320241271
0.148,0.18577306521008946,5890.822487688465
0.152,0.22941954244677387,5890.716235486519
0.156,0.27482032235071463,5905.2323228906325
0.16,0.31802654748572096,5906.491595394119
0.164,0.3499273535141009,5898.8942434753735
0.168,0.3570081832299547,5903.285927892998
0.172,0.3253408905089157,5905.707246052608
0.176,0.24632082678041164,5897.9406690648975
0.18,0.12152988646580845,5907.241572304891
0.184,-0.035643959399948556,5902.571677429968
0.188,-0.20258401620611538,5907.216593469353
0.192,-0.3533148281195262,5904.806102559871
0.196,-0.4653208623574987,5900.414643351432
0.2,-0.524640121818549,5902.677961060602
0.204,-0.5275652846053474,5904.779267209799
0.208,-0.47907313851905103,5897.701815644183
0.212,-0.3894924653175989,5899.49036746575
0.216,-0.271086755955752,5898.254463595039
0.22,-0.13551586821982495,5899.021518606446
0.224,0.007518139841644677,5900.982246010455
0.228,0.15039637240892195,5901.762498386467
0.232,0.28663276906607227,5898.817065267581
0.236,0.40936773186738024,5899.323951713241
0.24,0.5101712080494656,5909.228546696134
0.244,0.5790630151390126,5898.484959779403
0.248,0.6062620573994579,5895.94373261475
0.252,0.5853650872736835,5900.5321341764975
0.256,0.5167353939840262,5896.751398256093
0.26,0.4094593914808276,5905.8897046538095
0.264,0.2807033892511522,5896.709900655156
0.268,0.15238505687488327,5894.271971369644
0.272,0.046116630837007226,5898.471953852563
0.276,-0.022010321961461594,5904.414812946075
0.28,-0.04514386014164825,5893.6989147838485
0.284,-0.02674648498459832,5900.31421059662
0.288,0.021107506107496884,5895.797441977311
0.292,0.08129939479129165,5900.053088172546
0.296,0.1357139373676512,5896.091878785183
0.3,0.16867176345603405,5901.403272561292
0.304,0.1693297589827062,5899.008713144416
0.308,0.13311616754228292,5896.127906538788
0.312,0.062229227855811295,5888.796918786803
0.316,-0.03505438585124163,5899.697274931888
0.32,-0.1464389935773739,5895.472665129455
0.324,-0.2586105751495448,5899.452243823952
0.328,-0.3601407185587401,5894.030982318591
0.332,-0.44323835401403966,5903.37848556058
0.336,-0.5039073997583975,5905.63343524172
0.34,-0.5408397481649515,5900.631765819691
0.344,-0.5538161886257497,5910.935730286689
0.348,-0.5423668160484851,5903.442392976231
0.352,-0.5051796112216179,5900.878472244953
0.356,-0.44053263628208716,5908.864182004886
0.36,-0.3478671216149997,5891.682650509429
0.364,-0.23024018568827842,5915.2587859002615
0.368,-0.09670296512833568,5897.065553148431
0.372,0.03691424275811699,5903.449162205986
0.376,0.15007669083452443,5899.302543841068
0.38,0.22248952624756693,5895.189750515005
0.384,0.2403355606306509,5898.69557079045
0.388,0.20133289448333444,5890.207936459663
0.392,0.11644284139289521,5892.763823973692
0.396,0.007333420461137322,5905.076881272155
0.4,-0.09966447631700301,5897.233246839709
0.404,-0.1810370942956187,5907.041787935894
0.408,-0.22245769300847637,5906.678913210335
0.412,-0.2221226608480622,5903.988830396553
0.416,-0.19044306579390732,5903.246124446944
0.42,-0.14663385158964584,5897.227997333245
0.424,-0.11326761778071338,5901.977950093751
0.428,-0.11003739635453978,5900.021574817554
0.432,-0.14819434762273723,5898.121289714579
0.436,-0.22724438311633277,5905.9303717192215
0.44,-0.33507096533144126,5899.300648148466
0.444,-0.45161239575341766,5902.62046890582
0.448,-0.5549245643282097,5890.656415922501
0.452,-0.6274478152251158,5903.515687505618
0.456,-0.6601210082596428,5901.946415090907
0.46,-0.6529381948337568,5894.232037037578
0.464,-0.6122543618982313,5900.894669851376
0.468,-0.5466573217730665,5900.233365395864
0.472,-0.46364163048873613,5897.9560327042345
0.476,-0.36846047512557595,5906.011295503568
0.48,-0.26505026343123456,5896.813253724334
0.484,-0.15783851383356298,5904.387698551499
0.488,-0.05310950314611583,5900.389811749733
0.492,0.0408430928561488,5897.614909846906
0.496,0.11482372284003348,5895.151022233401
0.5,0.1605246829597106,5888.088794082593
0.504,0.1721219763850929,5893.498343581638
0.508,0.14712606072672746,5896.736506016652
0.512,0.08667673351324483,5903.933800394027
0.516,-0.004179265909523982,5896.179397920612
0.52,-0.11616301763878098,5904.619603797635
0.524,-0.23603654415600975,5894.89035834693
0.528,-0.34816964874494194,5896.904258448791
0.532,-0.43733668692054817,5895.998051085158
0.536,-0.49181861384632625,5899.775769832863
0.54,-0.5056744632290257,5911.601321155993
0.544,-0.4795912133524362,5900.637775914333
0.548,-0.42048469182202847,5903.566242044748
0.552,-0.34030513183714367,5903.203601202396
0.556,-0.25411547465291573,5910.816412094297
0.56,-0.17713181726557586,5900.036282930872
0.5640000000000001,-0.12086477465512116,5899.299977037201
0.5680000000000001,-0.08963044758211856,5915.63370980548
0.5720000000000001,-0.07935171426674016,5896.412275911981
0.5760000000000001,-0.07975750577705913,5899.0610879482765
0.58,-0.07913816292159256,5892.2516033053225
0.584,-0.06922768166353707,5901.45898699054
0.588,-0.04784114916896021,5902.282085764911
0.592,-0.0184994338062094,5909.699787070587
0.596,0.011909865916420903,5900.257704786246
0.6,0.035719642711870024,5891.138107381322
0.604,0.046249138665907165,5898.479211241584
0.608,0.038661999981971854,5904.78180193297
0.612,0.010338457711420295,5899.01998652899
0.616,-0.038796586605338336,5911.696134173221
0.62,-0.10580813979509836,5900.486910246615
0.624,-0.1843876415748106,5901.340312256011
0.628,-0.265137584852885,5898.776872292037
0.632,-0.33693971755444985,5906.712349975694
0.636,-0.38931733906219335,5903.575393603971
0.64,-0.4150419527498424,5894.695768293415
0.644,-0.4118560095892157,5902.722737786422
0.648,-0.38250425793277737,5905.833069338931
0.652,-0.33325670645529587,5888.413646890642
0.656,-0.27201865590036817,5899.465620398525
0.66,-0.2071139090126799,5909.4239516931975
0.664,-0.1469009515794716,5897.904108197649
0.668,-0.09946192025474729,5890.868455532467
0.672,-0.07159043038424139,5899.467995006508
0.676,-0.06717097228601872,5894.386632030775
0.68,-0.08589836343396978,5900.32878764953
0.684,-0.12326253706094234,5898.825356130373
0.6880000000000001,-0.17183183676511346,5904.09737643643
0.6920000000000001,-0.22298620322680118,5908.194291389446
0.6960000000000001,-0.26820034722313957,5899.209979162648
0.7000000000000001,-0.2997001173514527,5898.652952396712
0.704,-0.31104451257486915,5906.393087870083
0.708,-0.29819449458033614,5901.958529986962
0.712,-0.26089862523642215,5890.833201127085
0.716,-0.20356035110890153,5899.176685299644
0.72,-0.13491511697940192,5902.647706353049
0.724,-0.06657507966153745,5899.738574031661
0.728,-0.01094695461667714,5907.503196640077
0.732,0.02105359057722565,5903.438028058125
0.736,0.02223231454475004,5895.103832411555
0.74,-0.009035848314075204,5908.335869894596
0.744,-0.06781503555474355,5900.067451292915
0.748,-0.14292343745988428,5893.5604395791215
0.752,-0.21877697757838832,5903.12680816591
0.756,-0.27858586876770003,5901.435625542935
0.76,-0.3082052366582322,5898.966944879535
0.764,-0.2995676292143924,5903.381454599693
0.768,-0.2527696668817915,5902.232473160654
0.772,-0.17640377861143056,5896.780546908289
0.776,-0.08606134281320157,5898.85183479979
0.78,-0.0010457354034623225,5904.221505162887
0.784,0.060252657606561684,5901.35865170733
0.788,0.08513123154667013,5907.975839663003
0.792,0.069921708170612,5902.612676415395
0.796,0.020680007458593615,5903.18738055004
0.8,-0.04911586959562299,5905.695980847621
0.804,-0.12307911963746793,5905.240820253047
0.808,-0.1869216379082442,5890.388274287842
0.812,-0.23203426668398747,5904.476787972769
0.8160000000000001,-0.25645482104560957,5901.142786045084
0.8200000000000001,-0.26328648166337826,5899.90396340196
0.8240000000000001,-0.2577283521176541,5904.863791594574
0.8280000000000001,-0.24434345484037098,5904.436039519659
0.8320000000000001,-0.22578814267578184,5896.012081595097
0.836,-0.20318754587448473,5899.4453300361465
0.84,-0.1773732818047047,5897.2479556017415
0.844,-0.14990144093391491,5906.807646194565
0.848,-0.1231428171325283,5901.592395015131
0.852,-0.0994377192284487,5898.3369685411135
0.856,-0.07998013105354125,5891.079865791668
0.86,-0.06436652254903866,5901.027305140392
0.864,-0.05137873662092174,5896.729912593144
0.868,-0.040779968215887114,5904.568151748921
0.872,-0.035163304896007386,5899.809071759281
0.876,-0.04057006253523467,5893.601388353665
0.88,-0.06495254778330117,5903.67506039316
0.884,-0.11464744501388191,5900.064724110548
0.888,-0.1903276273982924,5893.423093572502
0.892,-0.2845133503857849,5896.104066180419
0.896,-0.382169094047115,5903.9293637672135
0.9,-0.46451004671432283,5910.317203920258
0.904,-0.5146552887654884,5903.785812660645
0.908,-0.5228974975636096,5899.796923558226
0.912,-0.4895073460780892,5906.1529017643
0.916,-0.42408501509096197,5896.532341462572
0.92,-0.34194529917408467,5900.595064829115
0.924,-0.25915677782237645,5901.255379605774
0.928,-0.18820572672599636,5902.446420426863
0.932,-0.13578683743996484,5893.171162763603
0.936,-0.10322572326230374,5905.7147829954165
0.94,-0.08893719706718634,5897.831292978377
0.944,-0.0914894560257365,5904.721737299478
0.948,-0.11158810581292378,5897.155215107201
0.952,-0.1518518922275141,5891.789156897967
0.956,-0.21449388796823862,5910.189324407672
0.96,-0.2982578732196212,5895.986606985545
0.964,-0.39640942315007377,5899.805437665059
0.968,-0.49704824114675544,5904.831951184919
0.972,-0.5858684144892122,5892.343886636174
0.976,-0.6502553845909876,5899.509235250061
0.98,-0.6828137568170115,5892.663546582799
0.984,-0.6826515364730195,5902.168489048453
0.988,-0.6541087903555634,5900.595335065114
0.992,-0.60418196097167,5894.243472874174
0.996,-0.5403547695886715,5889.709209350705
1.0,-0.4696749908817575,5893.309616624692
1.004,-0.39873679041975313,5896.666544062902
1.008,-0.3337477904929678,5889.314398224044
1.012,-0.28020253119283955,5899.556054061692
1.016,-0.24226529248632286,5891.488045290479
1.02,-0.22218543663186477,5895.235429901001
1.024,-0.21994287369124932,5894.473852553261
1.028,-0.23325964089035203,5901.379899610857
1.032,-0.25815408934591383,5902.28167581084
1.036,-0.2900245891840058,5894.977048453729
1.04,-0.3247969133158633,5903.439153488804
1.044,-0.3594073486256541,5899.552864406705
1.048,-0.39123499312875076,5897.306498593302
1.052,-0.41686374348699623,5891.087025886904
1.056,-0.43112688329534643,5910.333003991019
1.06,-0.4273420583834134,5895.640108142037
1.064,-0.39900377333703296,5896.02277789904
1.068,-0.3423027105112841,5886.501998074384
1.072,-0.2582762321537362,5906.94769369152
1.076,-0.15361196518741496,5902.308077699218
1.08,-0.03986583691829445,5897.422492198522
1.084,0.068559497957818,5895.903675487076
1.088,0.15714519315829817,5899.031165629666
1.092,0.2141138339556662,5894.905971241113
1.096,0.23273743993533288,5901.802708214293
1.1,0.21241902322092432,5903.837349021458
1.104,0.15816016015862308,5900.193830395216
1.108,0.07865091235927317,5903.195140177131
1.112,-0.016057799348342998,5906.501456946657
1.116,-0.11611647794208707,5902.659720768607
1.12,-0.21224378292166862,5906.222726867541
1.124,-0.29567541550853865,5904.010207103667
1.128,-0.3588859425499079,5891.750870103313
1.132,-0.39743083777736726,5894.566335832709
1.136,-0.4120200878870555,5903.426841433708
1.14,-0.4093542152134554,5914.9887427853
1.144,-0.40068167493720386,5905.868382735826
1.148,-0.3982063053993985,5904.699133150166
1.152,-0.41066644719955214,5894.234282592992
1.156,-0.4398704029656027,5902.541554016426
1.16,-0.47956038160876413,5901.467031492405
1.164,-0.5170602999012384,5892.53659545661
1.168,-0.53713986746503,5901.814581045345
1.172,-0.5267964138529128,5899.456057484976
1.176,-0.47948609594213837,5899.3156075787465
1.18,-0.397571938384831,5902.713360328905
1.184,-0.29220698442186666,5900.501324064818
1.188,-0.18062982883824047,5903.729998536637
1.192,-0.08177967173771808,5901.061730008412
1.196,-0.011739597107460944,5903.947875241388
1.2,0.01951069282339274,5890.245992880879
1.204,0.009160636903499003,5900.922578058425
1.208,-0.03946046138233898,5892.081695785037
1.212,-0.11904568154609962,5904.130308997776
1.216,-0.2203390331277823,5894.890812072016
1.22,-0.33319944449189104,5900.087305364978
1.224,-0.4467058752910063,5900.143697287972
1.228,-0.5489801323714302,5899.142180072023
1.232,-0.6275864410712436,5898.432356763114
1.236,-0.6710434325179914,5898.803116955559
1.24,-0.6712734740610878,5898.1106827791455
1.244,-0.6260460289482879,5903.268226606851
1.248,-0.5401688632645312,5890.733967785128
1.252,-0.42464878791272576,5901.298463577688
1.256,-0.2940391115973345,5894.1325085714725
1.26,-0.1630824674307545,5897.908702681083
1.264,-0.044008609184993226,5899.790861419293
1.268,0.05462867503915917,5898.564219931318
1.272,0.1275795084822116,5904.01537111664
1.276,0.17182119162767776,5898.738316148668
1.28,0.1858821093014414,5901.376816919898
1.284,0.17015960581714198,5901.890324482079
1.288,0.12791866435782923,5898.309822968776
1.292,0.06610930965535088,5905.796881524187
1.296,-0.004757160245677882,5901.240617130834
1.3,-0.07197957121531455,5896.889181925938
1.304,-0.12309473855954194,5901.315347766276
1.308,-0.14874607651754868,5904.949440923769
1.312,-0.1451347031824232,5894.022305028652
1.316,-0.11522861216842513,5905.870573343042
1.32,-0.06823185871268986,5903.102052602686
1.324,-0.01736152770937506,5900.855526115002
1.328,0.02344925061123888,5901.950022372901
1.332,0.04295851879355702,5904.373917951416
1.336,0.03518473467401524,5897.846333115032
1.34,0.0005043750220869101,5896.701630208904
1.344,-0.0549248077536097,5906.647496325561
1.348,-0.12122082070835453,5904.023374008155
1.352,-0.18778084860267902,5902.948211096564
1.356,-0.2464007366064399,5898.047236432535
1.36,-0.29353612752081903,5907.556772341204
1.364,-0.3308907283272167,5896.526051331951
1.368,-0.36401429274984304,5896.127828189639
1.372,-0.3993564786222171,5899.344311058183
1.376,-0.4409964712627185,5898.594688828005
1.38,-0.4885198130051497,5902.860883307124
1.384,-0.5368852019672422,5898.1756641906895
1.388,-0.5780224746691537,5898.122568757983
1.392,-0.6032141753211885,5901.208417712041
1.396,-0.6054091044518023,5895.552946874684
1.4,-0.5810138001749988,5889.252129576316
1.404,-0.5308801208195744,5898.161560865465
1.408,-0.4602682769216624,5898.679471634627
1.412,-0.3778124192042017,5903.746862149001
1.416,-0.29380817088003963,5902.563241993037
1.42,-0.21821592229530748,5901.330239915158
1.424,-0.15875565732424254,5899.771618058389
1.428,-0.11954718407849953,5909.997221013627
1.432,-0.10072402294404487,5898.26331435584
1.436,-0.09911542339549338,5895.607205585743
1.44,-0.1096907949328914,5903.753962274695
1.444,-0.12728116805018552,5899.723228295628
1.448,-0.14803438188664178,5892.174257855395
1.452,-0.17002170148649076,5891.150594833123
1.456,-0.19265355388857155,5894.000816970837
1.46,-0.21524419233197822,5899.540321096275
1.464,-0.23574331155067624,5903.110366049851
1.468,-0.25064761362027976,5902.24295624131
1.472,-0.256312098030398,5895.704772740775
1.476,-0.2509372894426071,5905.077186040635
1.48,-0.23611186309975105,5895.49832712686
1.484,-0.2170426365203109,5900.743216215968
1.488,-0.20117810726902532,5902.240523197126
1.492,-0.19558399498643025,5898.496743778368
1.496,-0.20400917562032733,5899.253080326775
1.5,-0.22482349628619402,5907.1291268689
1.504,-0.25075029485654216,5904.13901703179
1.508,-0.27072471803562265,5907.382850649094
1.512,-0.27354072889155306,5892.02136959211
1.516,-0.25229687454993655,5888.659682188812
1.52,-0.2081199164333139,5894.5721782804
1.524,-0.1515532006717355,5899.668191002967
1.528,-0.10062003686179148,5905.843601844821
1.532,-0.07576869321264493,5899.969417241314
1.536,-0.09317745176654409,5896.541081743788
1.54,-0.15871621428273366,5904.759494958757
1.544,-0.2648189342931556,5910.119727514391
1.548,-0.39153137363144147,5907.386090141478
1.552,-0.5114886399064337,5890.66511640285
1.556,-0.5972271527173141,5901.7637549755045
1.56,-0.6285550362457131,5902.163887967003
1.564,-0.5978587202981158,5902.124700698624
1.568,-0.5119716312315742,5901.8061993009815
1.572,-0.39015877574751395,5904.464075764626
1.576,-0.25876184348688935,5900.969141266739
1.58,-0.1441234645710265,5899.154659254926
1.584,-0.06611327657785575,5901.089121058855
1.588,-0.03426327150168662,5897.623095270437
1.592,-0.04728610926689317,5897.287772333885
1.596,-0.09545840981706745,5905.249816931128
1.6,-0.16464494065096066,5897.936663064518
1.604,-0.24056831072778903,5899.473967548059
1.608,-0.31204258896117726,5903.436913132505
1.612,-0.3723057662858976,5916.833958513399
1.616,-0.4183602131168576,5899.235434805274
1.62,-0.44910235577249463,5898.7748204418
1.624,-0.46355700352944995,5901.671902962111
1.628,-0.4604064991204857,5898.625299566505
1.632,-0.4391668879364543,5909.704373743021
1.636,-0.4022352099804698,5893.790261185382
1.64,-0.35640083870291117,5898.1551169137965
1.644,-0.3127257551126972,5899.698875579246
1.648,-0.28461469961115915,5898.350219035659
1.652,-0.2847189669953877,5902.171949457077
1.656,-0.3216426669017947,5903.097546588427
1.66,-0.3972871098900114,5909.892679768816
1.664,-0.50537110762128,5896.680468404092
1.668,-0.6315079783628266,5902.8085404547855
1.672,-0.7551408988261873,5895.560400986761
1.676,-0.8531831666813997,5904.5150321778365
1.68,-0.904368075588273,5891.71424021185
1.684,-0.8929492750157033,5897.660692173942
1.688,-0.8111169068209522,5884.149729556362
1.692,-0.6605426562685354,5906.47920569699
1.696,-0.4535384849294227,5903.344857877525
1.7,-0.21331039221498121,5900.335460446169
1.704,0.028024427231434747,5901.891082245495
1.708,0.23452803201840058,5897.691879583546
1.712,0.37398709423877513,5894.874633433647
1.716,0.42573099238372997,5889.508495533456
1.72,0.3859715981094207,5900.2869646227455
1.724,0.2686958412701448,5901.390765392926
1.728,0.10187157034414274,5899.928126825805
1.732,-0.0796110625835037,5904.503869102693
1.736,-0.24206378584549218,5894.007439823797
1.74,-0.3600974653343906,5899.790338464431
1.744,-0.4210868056344648,5893.021870992378
1.748,-0.42601511230124556,5902.558763169145
1.752,-0.3866625808526018,5903.0572553182365
1.756,-0.3203981169529791,5899.133284082201
1.76,-0.24474698327587607,5897.555941679693
1.764,-0.17361481629376146,5902.829660772877
1.768,-0.11578700151577731,5896.658614951367
1.772,-0.07514945974693477,5902.286147203335
1.776,-0.051609312809030146,5903.677887103916
1.78,-0.041837407606827096,5896.157470254321
1.784,-0.03954312716883723,5904.757689517593
1.788,-0.03578053492367586,5898.857937067996
