时间(s),电压(V),幅值(高频80K)
0.0,-0.6363549854766339,5899.238883806251
0.004,-0.5384105568498967,5903.8672682563465
0.008,-0.43844267238096757,5900.425010105891
0.012,-0.33738803916362164,5897.53750317752
0.016,-0.24165779702945,5895.6939625351
0.02,-0.16296778410321738,5902.281094855108
0.024,-0.11507875864248401,5906.864963466725
0.028,-0.10827219078759054,5904.562393698192
0.032,-0.1439119262531046,5907.842155916042
0.036,-0.2118237848456412,5894.734217820649
0.04,-0.291924656198524,5901.809547725567
0.044,-0.3594669864563146,5898.228293083717
0.048,-0.3918884145014299,5899.23017728824
0.052,-0.37508045816911373,5902.085646502837
0.056,-0.3073273374749273,5899.5135739083335
0.06,-0.1997637981013114,5906.112374042461
0.064,-0.07322066960094659,5896.993619657369
0.068,0.04726521056028294,5902.645474972571
0.072,0.1381456156056951,5898.668722595929
0.076,0.18157919500664657,5895.902236373881
0.08,0.16778216687798966,5902.363747714613
0.084,0.09608898329001292,5905.159097393823
0.088,-0.02474530701736807,5897.23133978868
0.092,-0.17718469772804735,5898.27855992893
0.096,-0.33710048585931623,5893.956097683671
0.1,-0.4777024096629828,5904.287013078054
0.104,-0.5745685112730595,5894.893258993379
0.108,-0.6106407208188198,5893.06690214956
0.112,-0.5801139613375667,5894.106342596787
0.116,-0.49030599924005225,5895.86868838993
0.12,-0.36069322866575637,5901.133108329938
0.124,-0.2188647056492063,5897.420784443442
0.128,-0.09431120092545253,5903.788770351614
0.132,-0.011834353382491135,5893.018209123729
0.136,0.013724634874125757,5902.011534928054
0.14,-0.019664349357492353,5906.084447751013
0.144,-0.10132237230710504,5902.782957674292
0.148,-0.21080841033859377,5898.156885918441
0.152,-0.32281208840037257,5899.71847077596
0.156,-0.41253476837295366,5904.5260834123055
0.16,-0.46015845323871285,5897.968501404961
0.164,-0.45364149690657235,5901.519228625549
0.168,-0.3898751757422788,5900.898965850112
0.172,-0.27463499964725296,5900.473069814161
0.176,-0.12156540263862034,5898.399891460054
0.18,0.04993539608194157,5898.045438629701
0.184,0.21798678986511646,5900.73919541898
0.188,0.36208916077966236,5902.776253805546
0.192,0.4664367779348167,5904.984908088145
0.196,0.5216478905855102,5901.77626697569
0.2,0.524719587346751,5897.5708686025455
0.204,0.4779261926626672,5901.674900678848
0.208,0.38763226546756935,5906.028990090995
0.212,0.2635348782534201,5892.462935282095
0.216,0.11818202375211642,5901.102649031497
0.22,-0.0338299022495813,5898.772899068824
0.224,-0.177521648691231,5902.5050993904415
0.228,-0.29999697770457445,5899.834672565349
0.232,-0.3929324179046291,5896.793578670341
0.236,-0.45407127898694066,5890.2751114225575
0.24,-0.4870312589950732,5905.289293981682
0.244,-0.4993821285457876,5910.909728012329
0.248,-0.4996767968291089,5894.468634238932
0.252,-0.49459463047744895,5897.189551785182
0.256,-0.48719758418239123,5900.407386090983
0.26,-0.4766294151996811,5905.18846539609
0.264,-0.45907715887152273,5903.307185187868
0.268,-0.4298063970366976,5898.022818907561
0.272,-0.38604617583593775,5896.57704628707
0.276,-0.32979187154704925,5899.708660447514
0.28,-0.2687173869875699,5900.683130549231
0.284,-0.2137794464902526,5898.891023958748
0.288,-0.17414531909411984,5901.589924312562
0.292,-0.15214495959014349,5897.622016521887
0.296,-0.14113192052624376,5891.530040301961
0.3,-0.12732740892907723,5904.831273049599
0.304,-0.09449961278606966,5892.350602061924
0.308,-0.029338666047848204,5900.371778438088
0.312,0.074070276207812,5899.440240246619
0.316,0.21131459320641482,5896.67352277161
0.32,0.36665562161148624,5896.835547821977
0.324,0.5146299934999238,5907.605555835932
0.328,0.6246972931479619,5897.41359274683
0.332,0.6683345034793339,5897.761013700768
0.336,0.6267648456292632,5902.676396394446
0.34,0.496911049294753,5899.533118114275
0.344,0.29351546167326453,5892.9327517315405
0.348,0.04657741514416316,5907.127568497848
0.352,-0.2051632254160518,5898.847231966823
0.356,-0.42274082855738276,5896.80934173712
0.36,-0.5751423498739473,5899.161911029927
0.364,-0.6452527896984602,5899.414714590329
0.368,-0.632518665175291,5895.412552518186
0.372,-0.5520430197620446,5903.837382260393
0.376,-0.43029371132384353,5904.683677479728
0.38,-0.298135968701028,5898.702423994168
0.384,-0.18288964874410676,5900.261040644578
0.388,-0.1020399600389107,5901.400197230776
0.392,-0.060909851161381354,5888.5848700746365
0.396,-0.054708429920210466,5905.657586783682
0.4,-0.0731395339892175,5894.649015685264
0.404,-0.10484970474038888,5900.130797780703
0.408,-0.13992430650217846,5910.966449390932
0.412,-0.1703935046289717,5900.755620242599
0.416,-0.1898282172410654,5898.422621703988
0.42,-0.19300797894377264,5890.277467441165
0.424,-0.17587024209253135,5904.588782907846
0.428,-0.13541903637495886,5900.914056237877
0.432,-0.06948149891401989,5899.336218414146
0.436,0.023135193678459162,5895.811382332451
0.44,0.14130682114141,5897.929586802297
0.444,0.27911934501544616,5907.051566971551
0.448,0.4236857573246893,5899.863646416908
0.452,0.5553278648734775,5902.946323973801
0.456,0.6512691619178288,5895.614529019743
0.46,0.6919319794443914,5910.975382148418
0.464,0.6672348779069872,5891.403635144167
0.468,0.5801971347736963,5891.286615664157
0.472,0.4465863572282512,5894.476162411033
0.476,0.29114776116869967,5907.977296889531
0.48,0.14210666731422986,5902.654254282546
0.484,0.02575814689993492,5895.1660587576
0.488,-0.0378010869256195,5903.183208080308
0.492,-0.03769424797922224,5899.003417957972
0.496,0.025796140795261893,5906.217063146896
0.5,0.14073222038102035,5896.78952658405
0.504,0.2852438242546959,5890.717750968628
0.508,0.43169492044016167,5887.574839800101
0.512,0.5522616111551188,5911.226750765007
0.516,0.6240569128164187,5896.717355943537
0.52,0.632325931050107,5896.880508743507
0.524,0.5715074648664287,5907.102080503178
0.528,0.4450385143262087,5900.571852974907
0.532,0.26491521035163823,5908.805355015821
0.536,0.051309086600582615,5904.528880760496
0.54,-0.1683988389619462,5901.973227509211
0.544,-0.3622317732118002,5896.5110906482
0.548,-0.49842001625106813,5897.303314553244
0.552,-0.5517206087054167,5899.848088931774
0.556,-0.5095281302892825,5894.071384041407
0.56,-0.3758375797804792,5903.851217403187
0.5640000000000001,-0.17173480228611254,5901.437488341461
0.5680000000000001,0.06796505814537568,5893.438076273062
0.5720000000000001,0.30144157334577665,5898.520013710816
0.5760000000000001,0.48868883010886843,5899.74290296505
0.58,0.6003968969019348,5897.9936952397375
0.584,0.6243963812938289,5903.356469453165
0.588,0.56760265638027,5894.178307087876
0.592,0.4528652135538853,5901.289980246898
0.596,0.31186573519182154,5901.231733977817
0.6,0.1763269311990461,5899.58649404152
0.604,0.07013249926705335,5897.30738017292
0.608,0.004684290779268878,5910.484251193987
0.612,-0.021209007463058063,5900.089960505135
0.616,-0.01739028172106974,5900.070118611007
0.62,0.0034822832440195178,5906.594118051998
0.624,0.030998697461068096,5903.6833399058805
0.628,0.059496217157171995,5888.795879005572
0.632,0.08769148054098728,5913.3561290670905
0.636,0.11631726772728818,5909.0658738765
0.64,0.14512191967421753,5902.819277191522
0.644,0.1705377781192477,5899.053247682396
0.648,0.18493345675980172,5899.524434708025
0.652,0.17773375464442878,5897.041949007825
0.656,0.13800668557902163,5895.560510660514
0.66,0.05763110462962093,5900.28389185059
0.664,-0.06594584342045937,5910.040401480973
0.668,-0.22805707616269094,5896.912395058432
0.672,-0.4165240751179092,5899.452050202044
0.676,-0.6127023083524484,5899.260886011655
0.68,-0.793745992878104,5896.101660426917
0.684,-0.9358967764403322,5902.493999555697
0.6880000000000001,-1.0184480977684471,5895.146408050634
0.6920000000000001,-1.0278147419634263,5897.878877218929
0.6960000000000001,-0.9608987334524007,5903.269190576287
0.7000000000000001,-0.8267694352025112,5899.975570962047
0.704,-0.6457559684313999,5901.585942141424
0.708,-0.44567866567110725,5904.730759235707
0.712,-0.25605636868487386,5899.516112367758
0.716,-0.10198382319659803,5890.00212819591
0.72,0.0006792704208723312,5903.525100422286
0.724,0.04786673722600212,5908.883538721416
0.728,0.04728723680200821,5892.317863240529
0.732,0.015799873918870697,5899.884962962969
0.736,-0.02552246736304766,5895.955325672612
0.74,-0.057666641137564104,5905.576921749382
0.744,-0.06948449134739956,5901.169228130525
0.748,-0.06101113754835194,5898.828499830776
0.752,-0.04313981027246904,5903.409850654313
0.756,-0.03387018133854279,5903.235876493347
0.76,-0.052363117700382496,5900.2306891436365
0.764,-0.11254131853413533,5899.936610577402
0.768,-0.21813417743433916,5899.759469555808
0.772,-0.36066044976979206,5889.87876716581
0.776,-0.5208436392987873,5899.456099482103
0.78,-0.6729617293268586,5896.298647776961
0.784,-0.7910391121880508,5903.330379565134
0.788,-0.8553634023045373,5901.593050194877
0.792,-0.8574718598515443,5900.061913859014
0.796,-0.8019253224662214,5898.035896330818
0.8,-0.7042319621611789,5903.306198562721
0.804,-0.5858950933468746,5907.0523829772565
0.808,-0.46870878356950596,5904.080187746552
0.812,-0.3702291226931593,5897.099972176338
0.8160000000000001,-0.3011778963522334,5907.613054466164
0.8200000000000001,-0.2646547662244602,5897.298803734666
0.8240000000000001,-0.2570234356385017,5914.644614651265
0.8280000000000001,-0.27047148905941326,5898.780570852667
0.8320000000000001,-0.29666124285630974,5901.604636800378
0.836,-0.32994258730821535,5896.49543075902
0.84,-0.36852778346185283,5899.545813831906
0.844,-0.4132668101332504,5895.793798100031
0.848,-0.46510585010067906,5904.414006941539
0.852,-0.5226947694267394,5902.842381211999
0.856,-0.5810119215401842,5895.633749518242
0.86,-0.6312561285580451,5896.477117324465
0.864,-0.6620676964242921,5903.857025878321
0.868,-0.6620746779884523,5901.939470177502
0.872,-0.6234499929110747,5890.395541169207
0.876,-0.5455807887826681,5891.028344880571
0.88,-0.43736076622491427,5898.509142646579
0.884,-0.3165154868146382,5894.0939181479625
0.888,-0.20528754182309839,5899.628152790824
0.892,-0.12368451428731239,5894.305190029155
0.896,-0.08315441231766543,5899.469402949837
0.9,-0.0834923015373431,5901.116749184663
0.904,-0.1139276314743276,5902.5647121864
0.908,-0.15730050905639886,5897.063923805943
0.912,-0.19537130877536893,5898.661375649843
0.916,-0.2135556374647643,5907.544023066438
0.92,-0.2040963050753771,5895.137826937218
0.924,-0.1674310050803302,5901.5503283502
0.928,-0.11186787854284183,5901.718582206127
0.932,-0.05155375323362333,5892.888537986837
0.936,-0.002766182448457037,5896.213815561529
0.94,0.020752724343255927,5902.137805841878
0.944,0.011964373303775231,5897.523739989141
0.948,-0.027271358784818935,5901.446052547238
0.952,-0.0867645116216245,5899.964210032726
0.956,-0.15114011033986716,5903.360143951006
0.96,-0.2044425314414721,5891.405418585233
0.964,-0.2345769124555521,5904.2421439959
0.968,-0.23614988954268612,5893.8850407604505
0.972,-0.21102097656673302,5896.493836990409
0.976,-0.16682993793641154,5898.583331848215
0.98,-0.11445559626566315,5898.227073850061
0.984,-0.0653448142053564,5900.09462045684
0.988,-0.029081227120875856,5905.603706762107
0.992,-0.01123435112954615,5896.926125334426
0.996,-0.011833577130686508,5896.746244559355
1.0,-0.025231791651370364,5902.91695317648
1.004,-0.04199415930741947,5901.268706200591
1.008,-0.052614711623356146,5896.3995244083135
1.012,-0.051738908995924704,5901.408528875711
1.016,-0.040977167407326265,5909.588729555656
1.02,-0.02891196268620237,5896.127859369249
1.024,-0.028181662686714327,5895.040803509022
1.028,-0.050716418066267796,5894.508230870922
1.032,-0.10287228295266056,5905.230158252748
1.036,-0.18233310690245066,5893.627861536753
1.04,-0.2780730442051974,5893.476625033602
1.044,-0.3733919558844303,5908.118259056101
1.048,-0.450760812413598,5894.909189017621
1.052,-0.49676631529993026,5900.536068922836
1.056,-0.5057669815162145,5898.186121907586
1.06,-0.4813703141526641,5894.15592538542
1.064,-0.4353143680052112,5907.650981641704
1.068,-0.38395803989783256,5911.767349048656
1.072,-0.34335520208194986,5904.851392866304
1.076,-0.3245433517752649,5892.109090379672
1.08,-0.33077202393002514,5907.360607581853
1.084,-0.35751611826860563,5899.440417366745
1.088,-0.3945866460988632,5897.805452503176
1.092,-0.4287572783656505,5899.898556831333
1.096,-0.44598900073018816,5901.777041644243
1.1,-0.4337273631279293,5901.402394511116
1.104,-0.3841082477388995,5909.003190909133
1.108,-0.29767002661671166,5903.017116016889
1.112,-0.18566061074904333,5895.053366862335
1.116,-0.06898405182477263,5906.682954932914
1.12,0.026533733450269926,5895.621748229167
1.124,0.07698281025847462,5897.119600038239
1.128,0.0668677870777542,5900.560394718868
1.132,-0.0068857019276178264,5898.32736798291
1.136,-0.1344567571704949,5900.16855056697
1.14,-0.2956654994157013,5898.340741239911
1.144,-0.46392585305017114,5898.987862499928
1.148,-0.6103355084532633,5890.888854182708
1.152,-0.7077360172695527,5899.54434559179
1.156,-0.734980449330823,5899.602741482499
1.16,-0.6809932620435238,5899.345660846444
1.164,-0.5475306979837512,5894.192773417637
1.168,-0.34967468687038267,5903.50611127785
1.172,-0.11388716445154232,5898.456702090513
1.176,0.12571966139392907,5897.899472204998
1.18,0.3319711847465093,5901.170100777958
1.184,0.46951021767946854,5906.934045136159
1.188,0.5098539582619974,5897.114313701922
1.192,0.43656832071100027,5900.015811008865
1.196,0.25020945210208234,5895.198353598284
1.2,-0.0276765398634499,5900.674584410441
1.204,-0.35248682087132766,5903.953492939374
1.208,-0.6575685183065232,5899.136063127469
1.212,-0.859400327073435,5904.984770711531
1.216,-0.8677297063429434,5896.205560832456
1.22,-0.6006343864545696,5893.121907676812
1.224,-0.0029304025775578166,5902.897776763551
1.228,0.9357866478034189,5900.986489118195
1.232,2.169020249241481,5907.3642546914125
1.236,3.5929581400133292,5901.2189518104415
1.24,5.0611053412436275,5896.862800455858
1.244,6.412131837953916,5900.002402585384
1.248,7.503282874459055,5896.374671319097
1.252,8.238976765623791,5899.472961680196
1.256,8.586511793433589,5891.805130465567
1.26,8.57604260854768,5888.1236566912585
1.264,8.286811319069281,5906.279446482793
1.268,7.824683786266973,5893.661723404711
1.272,7.297453193438755,5901.634249321487
1.276,6.794035027016985,5893.322685015482
1.28,6.371626109904028,5894.547477044499
1.284,6.051997342266802,5894.728126538573
1.288,5.825563780203845,5898.836159143093
1.292,5.66059877655918,5903.825977995003
1.296,5.514987204899589,5906.686789605863
1.3,5.348394702365804,5893.538152048198
1.304,5.132773389687847,5905.865256818019
1.308,4.858921333978425,5900.518187023436
1.312,4.537360736659052,5908.235451577066
1.316,4.193524319588615,5904.98658555209
1.32,3.8593287469474307,5905.141905985829
1.324,3.5643012621484402,5907.912995310862
1.328,3.328831988561569,5898.451271118516
1.332,3.160521669217842,5899.346691671303
1.336,3.05336269384009,5902.080205305558
1.34,2.989328493279986,5895.272580684054
1.344,2.942277557767616,5906.053937170347
1.348,2.8839032623344285,5906.568925630864
1.352,2.790570828187222,5892.40000246644
1.356,2.649067364525616,5899.035746560382
1.36,2.4594291825695285,5898.711504771621
1.364,2.234154928411374,5896.053732763532
1.368,1.994495383464143,5897.123207638724
1.372,1.765278737697669,5900.497680724849
1.376,1.5696596179399027,5903.781303561933
1.38,1.4247615016862367,5904.790298014461
1.384,1.338929666298733,5903.797989805582
1.388,1.3111123655261057,5902.833018582501
1.392,1.3323533810644046,5903.330770914008
1.396,1.388650157621234,5894.608816835261
1.4,1.4640969906300245,5893.468694142556
1.404,1.5434817087319166,5892.824045522776
1.408,1.6139499707763303,5899.900883326595
1.412,1.6657334071648453,5899.539068827082
1.416,1.6923214948050604,5896.973579423704
1.42,1.6906557143435894,5899.936718476532
1.424,1.6615066792714441,5902.32758472674
1.428,1.6093731577682546,5896.118522572285
1.432,1.541044817033025,5899.207852525081
1.436,1.4629499769238756,5896.098460437645
1.44,1.3787031462477446,5898.122260527357
1.444,1.288527796495961,5891.827728559089
1.448,1.191092803839387,5898.776717579965
1.452,1.0866219887903854,5893.67039473468
1.456,0.979176460995635,5897.960604074427
1.46,0.8764784547488925,5892.038583663707
1.464,0.7871843931467372,5899.5885291242985
1.468,0.7170019121937404,5891.114211500495
1.472,0.6655157126102881,5882.879966350373
1.476,0.6249789253783049,5879.450712236936
1.48,0.5813904060660883,5884.913723991476
1.484,0.5176295299443903,5885.604886580695
1.488,0.418250387413587,5873.834770352607
1.492,0.27520127672471734,5883.411904757224
1.496,0.09296227786200333,5884.722677993852
1.5,-0.10903309162405049,5873.795695945472
1.504,-0.29839240008924894,5867.930229453789
1.508,-0.43631035896715603,5871.990578224927
1.512,-0.4870086526287447,5870.91850412356
1.516,-0.4272911072869256,5877.04509598218
1.52,-0.253358439453164,5871.223602299069
1.524,0.01704441077914623,5873.08159605963
1.528,0.3475383181157899,5874.948984448715
1.532,0.690004756375828,5861.942165497359
1.536,0.9935815730413142,5864.677837334839
1.54,1.213759704493498,5871.0384600390735
1.544,1.319823393275782,5858.174306127847
1.548,1.2993542620261391,5854.418944251383
1.552,1.159280310316222,5861.49124399138
1.556,0.9237430623288413,5860.204421104243
1.56,0.6295181768987038,5845.75139673323
1.564,0.31978415331390514,5849.158040674737
1.568,0.036924683414724505,5854.085742032843
1.572,-0.1847770982526281,5855.5813036769005
1.576,-0.325084968598749,5843.020866015944
1.58,-0.38055801357547664,5847.670697983514
1.584,-0.3629486852006281,5852.808228975362
1.588,-0.29369829464169483,5847.62958136061
1.592,-0.19653302966361566,5839.041755308258
1.596,-0.09085192811800219,5840.271401197928
1.6,0.0118462949989368,5842.1228419494655
1.604,0.10766612631437994,5839.970964228351
1.608,0.19710811896467953,5838.518380844779
1.612,0.2810754285981735,5828.304512683238
1.616,0.35801703511431315,5830.394069368271
1.62,0.42295372056094577,5836.240780454975
1.624,0.46813795749978876,5845.547374585324
1.628,0.4848189140800665,5838.659992671869
1.632,0.4655696141836675,5838.427791981549
1.636,0.4065132542071827,5846.05655707771
1.64,0.30874316062910523,5837.579799818244
1.644,0.17847234981891244,5825.808055319739
1.648,0.025925223960984834,5840.100249870894
1.652,-0.13651234390184533,5830.213241345582
1.656,-0.2961167430132765,5825.585203501062
1.66,-0.4410063837118296,5828.875765755527
1.664,-0.5605075997948208,5826.019484268679
1.668,-0.6450770023986592,5832.319326873693
1.672,-0.6865565683047893,5830.227940061977
1.676,-0.6794927177792646,5823.669489423442
1.68,-0.623555278297039,5828.477118509361
1.684,-0.5260618473311428,5833.029072107293
1.688,-0.40298409373071714,5824.334724759481
1.692,-0.2771356387823188,5829.227313911801
1.696,-0.1734321392774008,5824.456485344667
1.7,-0.1125172799994598,5825.470239208861
1.704,-0.10492123982045065,5823.857511518295
1.708,-0.147906103000248,5822.670768393842
1.712,-0.22629508544515559,5816.620426599623
1.716,-0.3171334807710868,5812.312747461335
1.72,-0.39651809859115983,5817.758199622097
1.724,-0.44610146709234694,5815.626511590576
1.728,-0.4571018846307577,5814.944116392573
1.732,-0.4308797503090836,5819.949178490547
1.736,-0.37645088437779994,5820.020419880062
1.74,-0.30610898803855036,5816.709144040221
1.744,-0.2307325754081256,5817.400685653928
1.748,-0.156493731133141,5814.499028157659
1.752,-0.08420072806545925,5815.900431248619
1.756,-0.011314681594762418,5820.526374788636
1.76,0.06448581269177855,5812.324571922423
1.764,0.1418201321986879,5811.252731348471
1.768,0.21374352912595676,5816.549737562701
1.772,0.26855462106097083,5821.684758381065
1.776,0.2933209775409734,5818.745834793658
1.78,0.2788511869475434,5816.871650052502
1.784,0.22396067935330877,5816.196410922468
1.788,0.13709791514459094,5809.567099994485
1.792,0.034547080927345215,5806.662092634089
1.796,-0.0641909863080334,5808.9451772931325
1.8,-0.14211950056964703,5814.980370963664
1.804,-0.1893539758234483,5821.458799831885
1.808,-0.20494366689199667,5804.9641683094205
