时间(s),电压(V),幅值(高频80K)
0.0,1.5938617823058192,5897.683966627917
0.004,1.0484354626051573,5900.094409511583
0.008,0.5438212846578478,5899.913928742136
0.012,0.11525265458928516,5896.350514759447
0.016,-0.21421599777278133,5907.589726776188
0.02,-0.43712132695468764,5894.412140053536
0.024,-0.5616136520272588,5899.20047962121
0.028,-0.6082169311875779,5894.711517466511
0.032,-0.6045061144385082,5898.169325114065
0.036,-0.5789789637848104,5901.959452370061
0.04,-0.5550265328881626,5902.342243919013
0.044,-0.5462407028350633,5904.389415183369
0.048,-0.5548385881763426,5899.274621295762
0.052,-0.5739840620693402,5896.457855159952
0.056,-0.5924057667150988,5893.906638931874
0.06,-0.5984544202013204,5899.343291585959
0.064,-0.5820095450053442,5897.0376796015225
0.068,-0.5348570309543104,5908.283708697337
0.072,-0.45108107758464455,5895.460613492198
0.076,-0.32832970643595705,5907.233385075703
0.08,-0.16968998958037193,5893.048988187847
0.084,0.014740365526943739,5897.132450565153
0.088,0.20752076494419588,5899.327499727039
0.092,0.38531290921363925,5897.397960160805
0.096,0.5222066813834082,5904.336343027929
0.1,0.5947286263697036,5899.864607265701
0.104,0.5878187760443292,5901.5484896656335
0.108,0.500183440820543,5897.783467370664
0.112,0.3468244216346728,5909.61359397497
0.116,0.15698563892028372,5900.282050097439
0.12,-0.03259361827444688,5889.219895400612
0.124,-0.18705896770143263,5890.105092800389
0.128,-0.2820477092822568,5899.218872214523
0.132,-0.30864444762637255,5901.9300695334605
0.136,-0.27379055916595474,5901.67026397613
0.14,-0.19703234187593857,5908.495876742163
0.144,-0.1050322204454014,5905.50369139077
0.148,-0.02517582129733857,5903.117437320697
0.152,0.020275230691802818,5914.446651717728
0.156,0.018064687188648447,5899.023505423199
0.16,-0.03480074276466697,5899.859073932013
0.164,-0.13200498014097586,5909.168007563258
0.168,-0.26010017115663997,5901.485753750033
0.172,-0.40108220413934803,5897.219593251066
0.176,-0.535091503663705,5907.4141926436505
0.18,-0.6432745362045232,5896.562088065732
0.184,-0.7105641251339031,5895.2294971968695
0.188,-0.7277928127341958,5895.192927653664
0.192,-0.6927580760517786,5891.664533798184
0.196,-0.6102405623156244,5904.408028673929
0.2,-0.4909851978005291,5897.113364071518
0.204,-0.3497080389106315,5902.1495954284055
0.208,-0.2026983530495451,5896.125801822063
0.212,-0.06586416312526677,5892.1619722752885
0.216,0.04654373781069355,5891.571416161669
0.22,0.1232058034801931,5900.228202735335
0.224,0.15773846483066334,5904.319203996282
0.228,0.15111093592203062,5899.127899226337
0.232,0.11300096621366032,5894.037441544861
0.236,0.060523462580429,5892.792189198018
0.24,0.013898182615641609,5903.357416651613
0.244,-0.00976168071319845,5907.587104182223
0.248,-0.0022021066146390334,5901.728362730634
0.252,0.033044788423690366,5898.306506933416
0.256,0.08187948384870704,5908.887604202791
0.26,0.12483299508301425,5904.833620620142
0.264,0.14459837751627921,5903.382092551662
0.268,0.13310506565644795,5903.199670798428
0.272,0.09521019208611413,5906.895123037804
0.276,0.04733592673537112,5901.266992511231
0.28,0.011498732792377073,5906.896538148166
0.284,0.007152696350790063,5908.066482130415
0.288,0.04412245743670563,5901.736871781671
0.292,0.11919130902005196,5899.774495666033
0.296,0.21727729868798135,5898.189060486317
0.3,0.31662693664675007,5898.462084160311
0.304,0.39633853571733757,5899.9819961025705
0.308,0.4435420477699841,5899.771676535078
0.312,0.4571429622514754,5903.367697454956
0.316,0.44619098048083233,5901.868324437574
0.32,0.423695895491198,5901.026734598886
0.324,0.39932706070373997,5895.532217106749
0.328,0.3748304066809194,5900.565891986055
0.332,0.34403577747401815,5897.172070003418
0.336,0.2967630707912202,5895.88829075876
0.34,0.22436729898974883,5891.946655010006
0.344,0.12442603588121458,5900.850370081527
0.348,0.0027894306412594118,5909.08231417238
0.352,-0.1275868756846774,5906.715348889308
0.356,-0.2503682453482564,5892.489207428775
0.36,-0.35060494474833487,5899.038803530305
0.364,-0.41881398304884704,5900.669579161738
0.368,-0.4531042769865534,5896.994186438705
0.372,-0.45878127482019604,5901.975329127071
0.376,-0.4455557271639533,5896.483858215048
0.38,-0.4231986333037264,5906.559572418696
0.384,-0.39726145490824105,5904.025764122845
0.388,-0.3669816691539951,5892.577780197317
0.392,-0.3270095465956757,5900.538151571845
0.396,-0.2726657681966196,5897.777837377341
0.4,-0.20599033976065279,5903.31178109861
0.404,-0.1389124700392049,5898.828163463803
0.408,-0.09146398676724775,5902.574120803664
0.412,-0.08577403368237503,5895.414803399532
0.416,-0.13842029458314134,5901.7453283090745
0.42,-0.25375763844260557,5903.623148430214
0.424,-0.42010005169965614,5895.916300513038
0.428,-0.6100940832434028,5892.479299448719
0.432,-0.7858894709005413,5908.00984497574
0.436,-0.9081455743335017,5905.476092716304
0.44,-0.9462319239881598,5895.346562418922
0.444,-0.886449925127517,5900.633341677867
0.448,-0.7358645805452005,5897.679536998502
0.452,-0.5206462107148202,5907.552522108061
0.456,-0.27923359361856986,5894.6935768943695
0.46,-0.052154952480620805,5902.257635365895
0.464,0.12826771039508045,5905.120947815238
0.468,0.24480860468400076,5898.903971895133
0.472,0.2968577632842671,5905.009885021325
0.476,0.29712502238589666,5893.944199140901
0.48,0.2656305629607415,5897.262716204069
0.484,0.22304258977505564,5903.176059729185
0.488,0.18488656099217307,5899.734687149586
0.492,0.15789106718878573,5898.850519734451
0.496,0.13930663943084284,5901.641446330509
0.5,0.11908900657173876,5903.305006757776
0.504,0.08393353488744397,5903.218760440788
0.508,0.021865824420430495,5901.362280145451
0.512,-0.07366029893675216,5891.341614054253
0.516,-0.20085099423251107,5913.195974960375
0.52,-0.34835369749397405,5903.530651975355
0.524,-0.4961836029501192,5897.231354062462
0.528,-0.619041000393903,5898.909705968261
0.532,-0.6917621774230635,5894.458145164779
0.536,-0.6959834578485181,5892.845146444796
0.54,-0.6263709679808845,5901.797876237071
0.544,-0.49416563003745645,5901.746909806016
0.548,-0.3260001488176443,5896.983884322693
0.552,-0.15749437626370902,5897.022359954536
0.556,-0.02340824389309863,5898.496308228272
0.56,0.05222345616599419,5903.669139607136
0.5640000000000001,0.062445644830364626,5900.3092881591065
0.5680000000000001,0.018121334241284152,5901.757274091251
0.5720000000000001,-0.05690963342265722,5898.051503832245
0.5760000000000001,-0.13439037379711521,5898.557030419471
0.58,-0.19107999497079456,5905.482569772399
0.584,-0.21603399539566956,5894.91835387159
0.588,-0.21327851670929054,5897.638048249619
0.592,-0.19887692051468958,5890.073609947015
0.596,-0.19357650879967944,5903.526175363335
0.6,-0.2142119276404274,5902.383411759562
0.604,-0.2674735697777503,5898.364652531498
0.608,-0.3481253780673659,5894.263282904274
0.612,-0.4414832357382583,5889.758476600905
0.616,-0.5284612152597566,5899.324475694959
0.62,-0.5910992076725661,5894.386907360512
0.624,-0.6167801863859766,5892.057091483463
0.628,-0.600201926143413,5893.832153001138
0.632,-0.5434143040861072,5894.226003028035
0.636,-0.45503296698846474,5891.626586267104
0.64,-0.3493754904495637,5900.720404652544
0.644,-0.24523704101938565,5892.769413457525
0.648,-0.16358551772984053,5900.946045081063
0.652,-0.12405067792414712,5903.477579484767
0.656,-0.14091288115602824,5901.12921913728
0.66,-0.21961659806995185,5889.161319016934
0.664,-0.3547786292202739,5897.013802028268
0.668,-0.5305027329973454,5898.709014497948
0.672,-0.7232803772017551,5906.474418102818
0.676,-0.906756643680568,5899.49303006918
0.68,-1.0568880593933816,5900.3801167649135
0.684,-1.156104910349642,5901.810235819609
0.6880000000000001,-1.1956298243135803,5898.0939387641865
0.6920000000000001,-1.1756417656823746,5902.129719035488
0.6960000000000001,-1.1036977682783022,5898.402752507151
0.7000000000000001,-0.9925795184019797,5899.944797377915
0.704,-0.8586449160871343,5891.236778292705
0.708,-0.7206942445200316,5897.8948091199845
0.712,-0.5984323278131142,5908.716381255701
0.716,-0.5096743151823144,5894.034827101926
0.72,-0.46626570399685113,5898.39977557294
0.724,-0.4698268012204333,5900.365618170761
0.728,-0.5094346870856994,5899.553586778545
0.732,-0.5632276280505935,5895.148026352061
0.736,-0.6041213867149767,5895.498401636096
0.74,-0.6075874960742564,5900.590065349947
0.744,-0.5586327521430225,5899.679029128864
0.748,-0.4560423958451639,5909.03050215407
0.752,-0.313234164516713,5908.00307724162
0.756,-0.15568489833113122,5901.665466423448
0.76,-0.015242413147874362,5899.871556594483
0.764,0.07764491069923561,5897.018278221388
0.768,0.10195938554783786,5906.764684990844
0.772,0.052305401544975455,5896.128628907844
0.776,-0.058570922554697806,5903.381918577905
0.78,-0.20205292214406415,5896.253758624629
0.784,-0.3405524087669993,5901.5045423926695
0.788,-0.4372431581292705,5905.294629755765
0.792,-0.4656803157419304,5894.597826062342
0.796,-0.41634406218352993,5906.550307367868
0.8,-0.2982616963974003,5901.272076210933
0.804,-0.13562526977661588,5902.337372216217
0.808,0.039036063725974374,5894.777365836489
0.812,0.19282918957514064,5902.124372729495
0.8160000000000001,0.29961735052968025,5897.256255297882
0.8200000000000001,0.3450309550303892,5898.787082045356
0.8240000000000001,0.3287229131525047,5906.1828243386935
0.8280000000000001,0.2636481110363323,5906.857829768466
0.8320000000000001,0.1725667974629642,5900.765981173523
0.836,0.08247218686016998,5902.998746825761
0.84,0.018133698684272948,5895.371984032278
0.844,-0.003795662083909526,5898.002053578104
0.848,0.021233601710246523,5905.823562795928
0.852,0.08452607331598276,5888.917144573177
0.856,0.16615258524529172,5902.57252756495
0.86,0.2396746924935458,5903.721348620691
0.864,0.2786092673826286,5900.388855669175
0.868,0.26340655826382126,5888.986906916328
0.872,0.18741780598180174,5897.938478789424
0.876,0.060017046999480496,5890.196524964354
0.88,-0.09471262906160305,5908.799737701175
0.884,-0.24411675387499895,5902.480182814207
0.888,-0.35641952577717656,5908.0781088903705
0.892,-0.4102690875499227,5893.777589266868
0.896,-0.4007754620126108,5903.886996330464
0.9,-0.3398595855379659,5896.521371994809
0.904,-0.251154742933498,5908.505173213526
0.908,-0.16163892850719402,5894.92962200799
0.912,-0.092854650511759,5897.8295383948125
0.916,-0.054327394100229146,5895.3841576765335
0.92,-0.04112952725847436,5897.239648333652
0.924,-0.0364825304319256,5894.339003391021
0.928,-0.01878223266772999,5891.590250869034
0.932,0.029228960801964368,5904.494844928162
0.936,0.11253932873823577,5896.502840253892
0.94,0.22040730659839894,5895.716118014557
0.944,0.3289124043493659,5895.32223840979
0.948,0.4086432840049909,5896.963600116982
0.952,0.43454768452155745,5900.148921245424
0.956,0.3941039700229344,5894.971454696338
0.96,0.2908263875873178,5899.61727903282
0.964,0.14227312006533596,5895.49926923898
0.968,-0.026068417769916516,5896.002991502037
0.972,-0.18842565487307136,5900.151229351323
0.976,-0.3251997059804939,5891.2394934927015
0.98,-0.42627882234394204,5898.28431061996
0.984,-0.49077956042311194,5900.586492415988
0.988,-0.5245034153316989,5899.058847566712
0.992,-0.5371104422018878,5892.651647408265
0.996,-0.5402069523362429,5901.277941753359
1.0,-0.5460825763011071,5901.036537074961
1.004,-0.5660483821316437,5900.434598646719
1.008,-0.6077592050085496,5897.878197503365
1.012,-0.672033659782174,5896.441922607168
1.016,-0.7506323290829225,5898.23727314358
1.02,-0.8265686070438507,5888.619361217552
1.024,-0.8776097031890786,5898.111545596759
1.028,-0.8821731227026348,5904.67179478753
1.032,-0.825807350108859,5901.760897604304
1.036,-0.7063348537868301,5906.171832427173
1.04,-0.5361215473261993,5898.47141161037
1.044,-0.3404307430073301,5906.11616743859
1.048,-0.15170912591069588,5902.611658528084
1.052,-0.0011821413179113904,5898.58585158564
1.056,0.089419156541085,5900.424052125914
1.06,0.11304092383930503,5889.515173689632
1.064,0.07790426644908068,5901.335408883159
1.068,0.004015194962913234,5893.088909989202
1.072,-0.0826856463536486,5905.251870211453
1.076,-0.1566662210497948,5905.7578168080245
1.08,-0.19818312891459794,5895.33321808204
1.084,-0.1966819608722132,5904.65518139685
1.088,-0.1516966537665122,5914.671637811368
1.092,-0.07143927755926954,5902.35448100891
1.096,0.030116267119400988,5902.575117774405
1.1,0.13671922741854445,5899.8395148387945
1.104,0.23306141357519716,5901.475251583406
1.108,0.30696265059616457,5904.861094060082
1.112,0.3501197588929848,5897.947451867315
1.116,0.35781026954811845,5898.329011327044
1.12,0.328474055168516,5898.891045335677
1.124,0.26384248737346677,5908.356141059854
1.128,0.16953811999432555,5909.478853816576
1.132,0.055339927920456285,5903.805102749832
1.136,-0.06589523984591891,5900.564363229377
1.14,-0.180918374678693,5909.805711502781
1.144,-0.2794126610104737,5903.164913600521
1.148,-0.35644742054453044,5902.268579463097
1.152,-0.41307574991937607,5893.659066610805
1.156,-0.4549828334032759,5895.009629436863
1.16,-0.48977636757929205,5901.582095832881
1.164,-0.5239134415899129,5895.011203722274
1.168,-0.5603618492560356,5904.661847646948
1.172,-0.5978454090819831,5903.806264081875
1.176,-0.6319336897753968,5907.650250813157
1.18,-0.6574156397156774,5892.083628146602
1.184,-0.6707212202402809,5904.0465180121655
1.188,-0.671150444524646,5896.441624269835
1.192,-0.6604402858320937,5906.8259352283
1.196,-0.6412206971499171,5894.049949881578
1.2,-0.6154935632035305,5904.709664452478
1.204,-0.584109107818541,5904.511148794914
1.208,-0.5475198231520363,5904.563495213724
1.212,-0.507289668093687,5889.4382740839455
1.216,-0.46730336001089146,5901.034559490973
1.22,-0.43367375985868817,5892.0228865543895
1.224,-0.4130297483077725,5899.458321628218
1.228,-0.4097065816182313,5902.149192553548
1.232,-0.4228633510799905,5890.285733624151
1.236,-0.44472380464774725,5905.961329111148
1.24,-0.4610227494666561,5895.800104401411
1.244,-0.4541229894887098,5897.672320117308
1.248,-0.40824748887664664,5901.076267437318
1.252,-0.31542768174362135,5892.299181589072
1.256,-0.18048801278953416,5908.335393689041
1.26,-0.02353190158323929,5901.7406898461295
1.264,0.12130135515898034,5913.90021315271
1.268,0.21154649853990662,5897.472824207844
1.272,0.2063680913002805,5905.805730451153
1.276,0.07908547495507923,5904.056877686435
1.28,-0.1707438042582424,5901.414071740699
1.284,-0.5090564417615909,5898.32801318139
1.288,-0.8654937384287174,5896.755186685921
1.292,-1.1396539622379296,5897.324665393535
1.296,-1.2158533027648462,5897.868419088416
1.3,-0.9853841598091115,5900.901645409794
1.304,-0.37302437979435826,5900.936664968588
1.308,0.6380954921792844,5903.207717592337
1.312,1.9910660287112192,5891.425922633109
1.316,3.5565699098484607,5899.894963955319
1.32,5.154331107693555,5903.569546941276
1.324,6.59064047217063,5896.652562123549
1.328,7.7008199227451115,5900.214003397459
1.332,8.383137718182185,5891.724967867815
1.336,8.61463699656564,5896.9060755597575
1.34,8.44655969066974,5899.802840861031
1.344,7.983534933409641,5908.191031176527
1.348,7.354461478549241,5901.73739008258
1.352,6.683714053771433,5899.413034456616
1.356,6.06938850638718,5899.838426752646
1.36,5.571883308206001,5901.80500075323
1.364,5.212674390337374,5886.36361000182
1.368,4.980842673703543,5904.55991671689
1.372,4.844071835517473,5900.160735777262
1.376,4.760947826977808,5903.676972665819
1.38,4.69187294147931,5896.039307740353
1.384,4.606704950128201,5887.291893204805
1.388,4.488448462387225,5902.90371866089
1.392,4.333485605991318,5896.871903086435
1.396,4.149242708751237,5896.628486787913
1.4,3.949994489995908,5907.354864641595
1.404,3.7516000597136134,5897.667628402511
1.408,3.566622608082355,5904.191593930791
1.412,3.401634953035953,5900.308472425767
1.416,3.257711763935884,5900.403549304216
1.42,3.1334639896478316,5902.709445198538
1.424,3.0286353472773975,5895.373016909898
1.428,2.9461752352688912,5907.29199579221
1.432,2.891769468712324,5904.655555515278
1.436,2.871187018778265,5905.472310362712
1.44,2.8866830802266565,5898.852575624622
1.444,2.933886950224998,5895.03440701273
1.448,3.0003303229287073,5896.1177845538905
1.452,3.0663178121451984,5894.155031210596
1.456,3.108278904138485,5898.780773389566
1.46,3.104011913923837,5897.032614196463
1.464,3.038483216006515,5898.986599673473
1.468,2.9083917758995597,5909.836877253134
1.472,2.723749336836641,5902.298148492178
1.476,2.5054574621248373,5894.092640441364
1.48,2.279374656777605,5907.207268287195
1.484,2.0689978850056145,5903.004875445534
1.488,1.8894232987081918,5892.943188742672
1.492,1.7443142915606664,5892.515717076664
1.496,1.626157419157737,5887.320675818564
1.5,1.519217892571248,5897.212044623694
1.504,1.4043647024433257,5899.086796071808
1.508,1.264779096404983,5903.088056378791
1.512,1.0913497565191865,5891.94881191144
1.516,0.8865282636122784,5891.292875559951
1.52,0.6656293130971157,5896.374857694148
1.524,0.4549142473908662,5904.406343775331
1.528,0.2863353806861356,5907.7583363890935
1.532,0.1896698828655953,5887.674943230568
1.536,0.18383968558854433,5888.8834892052055
1.54,0.27004550119789106,5888.344859580287
1.544,0.42934224689838324,5897.642592009491
1.548,0.6260766049113564,5889.626222604841
1.552,0.8164752138903745,5888.277061278277
1.556,0.9596741080085428,5891.670515883716
1.56,1.0276800277783564,5887.275035767201
1.564,1.011312134571245,5888.2949177001055
1.568,0.9205960415334307,5878.767117979453
1.572,0.7799380144138071,5882.410371976419
1.576,0.6201950166301443,5876.093709366201
1.58,0.4706332790233356,5885.342452997296
1.584,0.3532200382682826,5873.794847787697
1.588,0.2802199539830628,5872.53737246059
1.592,0.25465075635195544,5873.700267971384
1.596,0.2723383958346763,5876.296275957799
1.6,0.3241923023657444,5869.188490217845
1.604,0.3979253115893132,5869.46504307
1.608,0.479517069205914,5861.282154037833
1.612,0.5553436081085714,5866.894878495176
1.616,0.615189417997628,5868.140322826856
1.62,0.6548633716046771,5869.275701067068
1.624,0.6765695649523623,5870.113339341238
1.628,0.6862952876474991,5868.969247232547
1.632,0.6892231097241641,5862.678041414277
1.636,0.6852860292651829,5862.805494582786
1.64,0.6671565897082103,5858.342343815966
1.644,0.622270345893418,5861.651356530129
1.648,0.538836686804754,5858.788285232034
1.652,0.41346979515678245,5861.206519716718
1.656,0.2564323515192387,5854.149990108011
1.66,0.09116195086121563,5853.609908771622
1.664,-0.05225920531633264,5850.218325674652
1.668,-0.14674856154550112,5853.43843587921
1.672,-0.17658716704736105,5846.050374952296
1.676,-0.14108210220251705,5853.478603452387
1.68,-0.05268424980939348,5848.098422354475
1.684,0.06858604606700684,5847.367613627094
1.688,0.20122698417361204,5853.748140454783
1.692,0.32633859235089535,5857.551616178284
1.696,0.42905555580218996,5843.207524570535
1.7,0.49831094748445987,5848.654667809941
1.704,0.5264204592314645,5840.693752729452
1.708,0.5094791905040102,5860.2739796151045
1.712,0.4486384106200486,5838.429663694196
1.716,0.35154287979260906,5839.308937946791
1.72,0.23290307589755307,5843.9084326911525
1.724,0.11333548794003104,5842.25486877723
1.728,0.01603212483641564,5825.789928798904
1.732,-0.038478381608641546,5849.398977308413
1.736,-0.038204259331387116,5842.578839070956
1.74,0.015890687906839025,5844.548172669268
1.744,0.10885874520052587,5842.859978924594
1.748,0.21489330627408387,5841.397798505287
1.752,0.3038465743553794,5839.595003603314
1.756,0.3491239726311301,5843.120611023356
1.76,0.3344751177982365,5831.981126873536
1.764,0.25785574286980706,5838.822269130668
1.768,0.13181300902312773,5845.396554993897
1.772,-0.01916445459362346,5833.461148887801
1.776,-0.16350381157333033,5832.018300038076
1.78,-0.26878766815253063,5836.051206642014
1.784,-0.30863940515581684,5843.155172604455
1.788,-0.26925605895872506,5837.847016909311
1.792,-0.15384492748609285,5838.274957817753
1.796,0.017182860365568275,5836.6680328371485
1.8,0.21135303671874187,5837.262504191416
1.804,0.39330463513169295,5835.9584229512175
1.808,0.534523005338895,5831.433674382045
1.812,0.6197134024503955,5827.305726944198
