时间(s),电压(V),幅值(高频80K)
0.0,-0.36732859139136387,5912.297495635895
0.004,-0.1835961567549344,5895.033524913938
0.008,-0.01204626216442296,5893.58667051562
0.012,0.13741524063477537,5897.808842931775
0.016,0.2552844090085156,5903.072046798104
0.02,0.3327177022956197,5891.876909647666
0.024,0.36305199257349474,5902.768802680945
0.028,0.34438629779968505,5896.494323309249
0.032,0.2814983231571544,5901.285839079054
0.036,0.18534151688300537,5906.111546717643
0.04,0.07007191883187636,5909.777440757266
0.044,-0.05071607247201577,5900.125301312288
0.048,-0.16664158227232762,5897.033014964804
0.052,-0.2712758581512083,5905.776217748934
0.056,-0.3613448679778646,5903.411784641817
0.06,-0.43518377880866255,5891.728735014737
0.064,-0.4910825284241096,5900.394372742653
0.068,-0.5261014232273171,5899.1121116931845
0.072,-0.5359893994054836,5890.421182398951
0.076,-0.5164657859245292,5899.883794961452
0.08,-0.4653942913820676,5910.360499428938
0.084,-0.385020916151616,5898.914731255473
0.088,-0.28358208592074946,5906.49939971615
0.092,-0.17562293340502222,5900.087432803155
0.096,-0.08026461458982437,5890.862423502837
0.1,-0.01708100430785652,5900.083118213855
0.104,-0.00041684841167678255,5900.739761411272
0.108,-0.034245309081429115,5904.882067282775
0.112,-0.11002419186792979,5896.406869196314
0.116,-0.20888402053279223,5898.194069670575
0.12,-0.30731846612871583,5899.29607060591
0.124,-0.3837966155289048,5905.740847979682
0.128,-0.4236756986846126,5902.838274236444
0.132,-0.42129394783809593,5909.339575225371
0.136,-0.37967462099979793,5897.581029912886
0.14,-0.3086919712996883,5910.870991718821
0.144,-0.22219091341584904,5903.130779557725
0.148,-0.13454364793209933,5892.547116791637
0.152,-0.05761631324417834,5902.298192188352
0.156,0.0008975937749542423,5902.412842180778
0.16,0.037768284850198314,5897.547760432573
0.164,0.05398549940383055,5906.184342270911
0.168,0.05451768535521752,5902.197998477914
0.172,0.047634598451559776,5897.317875817716
0.176,0.043053197411040606,5897.69744279061
0.18,0.04898298876762486,5899.863932707031
0.184,0.06915667521411395,5898.91602375612
0.188,0.10112394116641625,5909.715351709327
0.192,0.13649443528420385,5897.084756868186
0.196,0.16314265927115806,5891.848986736037
0.2,0.16888401302114725,5904.988912208512
0.204,0.14552238027700518,5901.081598920086
0.208,0.09166751295656009,5886.109889534727
0.212,0.013102974146529632,5895.070227426463
0.216,-0.07920840490053314,5904.428008225932
0.22,-0.1722454806181544,5892.659896656736
0.224,-0.25382498343273135,5905.983079320125
0.228,-0.3146170837754864,5900.089025243513
0.232,-0.3493545298136595,5903.639687941615
0.236,-0.3575380677654096,5908.334802498702
0.24,-0.34365851791392726,5902.747240892772
0.244,-0.31659732200410395,5898.056838538109
0.248,-0.28790547026067564,5896.8662715584
0.252,-0.2691768121553111,5900.085487939001
0.256,-0.26935529342211134,5905.366989809704
0.26,-0.29295392908003837,5891.800421919106
0.264,-0.33951187841208835,5900.238466109436
0.268,-0.4037530205150063,5901.273302378793
0.272,-0.47588078467965467,5901.470613140074
0.276,-0.5422994729545633,5900.05275386373
0.28,-0.5875491625082783,5899.724030964541
0.284,-0.5975623252367259,5907.964640277918
0.288,-0.5632348162972215,5901.176722011195
0.292,-0.48291912110608604,5898.520952822702
0.296,-0.36301079066310016,5901.5169547879295
0.3,-0.21673335189295362,5898.937720553689
0.304,-0.06190153589745762,5897.628339900819
0.308,0.08153865812053589,5901.717134425457
0.312,0.1939840222100076,5898.915727387468
0.316,0.25897384865355,5890.539655111699
0.32,0.26636550019896127,5887.671655313005
0.324,0.21512728829978034,5899.423037391496
0.328,0.11458077279385573,5907.231250228779
0.332,-0.01666258900802582,5900.792716578794
0.336,-0.15400860090004995,5898.86812580235
0.34,-0.27169881039011534,5889.765002015994
0.344,-0.34810212653796485,5896.4650636978895
0.348,-0.37037948480676075,5903.358813343283
0.352,-0.33740752400338214,5892.164172068048
0.356,-0.25997501699502984,5897.085113390189
0.36,-0.15781324723450718,5902.579740836549
0.364,-0.05401874851970436,5907.871383844132
0.368,0.03145168360001097,5889.863146859054
0.372,0.08687045596704955,5904.466833888184
0.376,0.11048058274332276,5890.74759775513
0.38,0.10845654954075912,5898.566880666247
0.384,0.09033100805570694,5901.8037359550335
0.388,0.06398292155396754,5902.1899142443135
0.392,0.03217383528304164,5893.361786249985
0.396,-0.00799691274140042,5901.31933905418
0.4,-0.062367600461737234,5906.176968744456
0.404,-0.13488404302589138,5904.661910003146
0.408,-0.2231613270603506,5899.566292266589
0.412,-0.31690738909030003,5907.316572445365
0.416,-0.40007558715577735,5903.701903875144
0.42,-0.4556075562462565,5893.533830995301
0.424,-0.470570817126603,5894.5059772245895
0.428,-0.43976884152899287,5901.833039774583
0.432,-0.36691378804889824,5891.807359946071
0.436,-0.2634241723965447,5897.96578462712
0.44,-0.145522258389875,5895.510755495765
0.444,-0.03059727794598319,5905.7029965720185
0.448,0.0662158129059668,5890.967904882486
0.452,0.1345539968027672,5893.572951868722
0.456,0.17004501448877624,5901.5775466375335
0.46,0.17406370075620925,5896.56017420346
0.464,0.15212183287876163,5899.026930086526
0.468,0.11134275514853804,5894.2097166781705
0.472,0.05790600980865856,5898.915012040568
0.476,-0.004394028462873177,5899.851740683624
0.48,-0.07372533140814343,5900.784705253236
0.484,-0.14826598501981764,5893.250828016598
0.488,-0.22405367760304662,5901.383157458033
0.492,-0.294047132996667,5906.27669774187
0.496,-0.34899353391876314,5902.8043317569045
0.5,-0.37969483627525247,5902.937826295968
0.504,-0.37972957862890483,5902.313013945744
0.508,-0.34775524285905723,5899.690110909214
0.512,-0.28878865870374293,5902.775090596806
0.516,-0.21392141536923867,5908.362688991114
0.52,-0.13803887840683707,5899.972377028951
0.524,-0.07583103946785845,5900.485086975496
0.528,-0.03743633779732051,5900.375391124868
0.532,-0.025476041350837052,5897.031497891965
0.536,-0.03464470280307547,5898.465496458842
0.54,-0.05395730774598998,5903.7361506794605
0.544,-0.07078299072006915,5904.777455665564
0.548,-0.07519148915024214,5900.81823449667
0.552,-0.0631670877142285,5903.896279675027
0.556,-0.037884461193786835,5901.300038265546
0.56,-0.0089252527513088,5896.25544910324
0.5640000000000001,0.010365381007631997,5898.160925396566
0.5680000000000001,0.006938909133094068,5895.599232778054
0.5720000000000001,-0.027465756020219046,5899.912257725407
0.5760000000000001,-0.09299482536048799,5902.903185373788
0.58,-0.1811178672844164,5899.032368418484
0.584,-0.277396553500346,5895.894362958502
0.588,-0.3664259269796406,5900.783658474729
0.592,-0.43656328253469556,5904.5781346826825
0.596,-0.48233717306060686,5907.22747258208
0.6,-0.5039790572737413,5905.030340267479
0.604,-0.5051621868988638,5905.640541560636
0.608,-0.49074583446547837,5899.342172956822
0.612,-0.4658007475987707,5901.803528283404
0.616,-0.4358813304855035,5906.132636061556
0.62,-0.4074115176480798,5898.816499891004
0.624,-0.3870009403361899,5898.243531495677
0.628,-0.3794645719941016,5902.924742436617
0.632,-0.3854926022762992,5905.469846764836
0.636,-0.4004712249394973,5898.397496379045
0.64,-0.41550092256149673,5912.726703597427
0.644,-0.4204250977012618,5903.558635600784
0.648,-0.40747240297823,5898.922105174006
0.652,-0.37380866514632527,5906.902617783498
0.656,-0.3220674567401681,5906.353350172814
0.66,-0.25908822918103713,5906.752901873784
0.664,-0.193764710790975,5902.195658735181
0.668,-0.1348245520320867,5897.570249334716
0.672,-0.08893983571641137,5907.3519320102105
0.676,-0.05934467747220904,5898.493303194256
0.68,-0.045220545980082565,5898.688923407998
0.684,-0.04212773257475592,5897.273040993637
0.6880000000000001,-0.043367393755718624,5909.132748023896
0.6920000000000001,-0.04164928726589922,5906.596586719702
0.6960000000000001,-0.030473377230613784,5897.138578898115
0.7000000000000001,-0.005200041724500225,5903.81406684306
0.704,0.03586817213997922,5882.227885506904
0.708,0.09032232921816319,5903.866253216701
0.712,0.15078877690417955,5891.371135473931
0.716,0.20503543227644744,5901.286483301175
0.72,0.23772678850873452,5898.649436416074
0.724,0.2341339600937667,5897.877951718343
0.728,0.18512471220196128,5898.549381937904
0.732,0.09159439581050861,5904.712244185971
0.736,-0.0338494312167975,5899.18499815319
0.74,-0.16912504058089728,5904.8642306244255
0.744,-0.2882573808018063,5905.626184174435
0.748,-0.36838261919287296,5910.135585207043
0.752,-0.39590892127236577,5901.160114478005
0.756,-0.3699863315401389,5896.730436870413
0.76,-0.30229089588440755,5897.06184185678
0.764,-0.21324428086540156,5905.66246353931
0.768,-0.12587607709179408,5899.648615248737
0.772,-0.05920702982859942,5905.107067608837
0.776,-0.023147354535515346,5904.356874134074
0.78,-0.016509877838013404,5897.765964759317
0.784,-0.028798230301540443,5903.36607321261
0.788,-0.04504169195028579,5901.262509720036
0.792,-0.0517176003781127,5900.326691553843
0.796,-0.04145881935407897,5900.227819412822
0.8,-0.014896523318320011,5901.260913466344
0.804,0.020784547731650043,5889.019824984347
0.808,0.05566405757815749,5906.180221897468
0.812,0.08142985167195803,5900.84001629431
0.8160000000000001,0.09435535268163334,5896.278193216156
0.8200000000000001,0.09583270343920626,5908.158388549094
0.8240000000000001,0.09054361125164868,5897.057140428319
0.8280000000000001,0.08339469766636198,5897.758122254837
0.8320000000000001,0.07691275231440893,5899.410943861148
0.836,0.07045426817023838,5899.17928982717
0.84,0.06134668898588611,5896.960303184411
0.844,0.046855516122127634,5892.02979546621
0.848,0.0256481736494396,5903.625928143365
0.852,-0.0018569011446970746,5904.085162529863
0.856,-0.0340376597675805,5906.05562248092
0.86,-0.06886345619997274,5897.407222291712
0.864,-0.1042561967742456,5898.518461678529
0.868,-0.13768915796091477,5902.313966466784
0.872,-0.1653709948566275,5900.492623366515
0.876,-0.1818881555541894,5905.994311377793
0.88,-0.18101006510880543,5898.914689523391
0.884,-0.1576240346649516,5899.79037902357
0.888,-0.1101453142899841,5901.7625655465645
0.892,-0.042552643651530636,5902.917523608423
0.896,0.03485121400879525,5901.0634852148405
0.9,0.1067816450289085,5904.23205608742
0.904,0.15656208322457116,5903.767996674894
0.908,0.1708410449751241,5897.755805502866
0.912,0.14347609926736965,5903.559037129193
0.916,0.07702455340706862,5903.206919665533
0.92,-0.01850952213335274,5902.24199119256
0.924,-0.12894414262341866,5898.721202059858
0.928,-0.23987407277294084,5898.678319172385
0.932,-0.3398343853676385,5896.053043960774
0.936,-0.4216445008991179,5899.9506825854005
0.94,-0.48187434204398455,5902.74642284405
0.944,-0.5192981351629481,5902.378783093231
0.948,-0.5335316612802534,5902.989268960717
0.952,-0.5247039092216752,5901.352909375681
0.956,-0.494265953043484,5906.888578679929
0.96,-0.4462786170974368,5904.319826785709
0.964,-0.38813325701538154,5897.916953192363
0.968,-0.3298591747597183,5899.80526482992
0.972,-0.2818350809085975,5898.26854230662
0.976,-0.2515043054189037,5900.251720005884
0.98,-0.2402651995098352,5900.988783111022
0.984,-0.241852662258166,5913.172843418849
0.988,-0.24317107453827322,5891.004579637418
0.992,-0.2277745907936995,5905.598179013303
0.996,-0.1811989897116153,5904.821498026939
1.0,-0.0964118885447634,5899.939383956807
1.004,0.022730721562688634,5906.003400089677
1.008,0.1614814859471649,5900.517198534648
1.012,0.2976203784799559,5891.90714714816
1.016,0.40685963364003347,5902.2529705017305
1.02,0.4683244014000387,5896.888332110278
1.024,0.4686835448919326,5904.283349128192
1.028,0.40434465347481763,5903.585919227169
1.032,0.28174433508699037,5897.960522083992
1.036,0.11601085440578035,5904.085316250851
1.04,-0.07166049467196656,5894.800150475251
1.044,-0.2574970936103244,5895.724327738951
1.048,-0.41894599424899504,5896.42234573656
1.052,-0.5381157825228347,5903.344323635459
1.056,-0.6042653197329808,5906.530801719093
1.06,-0.6150271581654553,5902.096671113724
1.064,-0.5763620750282024,5900.552981364192
1.068,-0.5013698276511533,5909.382175939088
1.072,-0.40816687093804593,5901.240314524132
1.076,-0.31726930806614495,5901.178673262941
1.08,-0.24908594014620972,5913.931646554222
1.084,-0.22191041724663768,5905.281599147082
1.088,-0.25026325173586983,5898.22478219378
1.092,-0.342938713663962,5901.955168592534
1.096,-0.4999986523565523,5895.268226311096
1.1,-0.7084605481235614,5908.792380344593
1.104,-0.9375602808674105,5889.313985722383
1.108,-1.1357755401824041,5891.505123411552
1.112,-1.2324552300290683,5899.849483748254
1.116,-1.14625358256719,5898.22382739025
1.12,-0.8005870925687345,5900.973231854388
1.124,-0.1436127148506555,5899.397419642386
1.128,0.8323773258889979,5892.335880138977
1.132,2.0787915677481132,5893.933735572096
1.136,3.491848454027138,5902.021694164612
1.14,4.929406666050614,5899.963403077754
1.144,6.239984444932033,5912.392505735059
1.148,7.294962238411616,5900.277457513814
1.152,8.013599308464341,5900.143423832159
1.156,8.374133768688186,5892.115663365349
1.16,8.410055874616676,5907.543057568583
1.164,8.195165477030772,5909.151519434639
1.168,7.822997788729361,5902.156948838491
1.172,7.386184411019888,5895.915748298928
1.176,6.960063332092663,5896.316954130789
1.18,6.592949012678405,5905.32110152295
1.184,6.303585383338085,5900.062176197567
1.188,6.084921396033179,5905.379944179358
1.192,5.912487465487387,5898.950971429875
1.196,5.755133190876223,5893.0972344710335
1.2,5.585670659304566,5911.766002749786
1.204,5.389032951121968,5896.634377503402
1.208,5.1658956597623815,5899.427276934538
1.212,4.930576616530443,5890.0962653338165
1.216,4.7037086506691566,5896.77443397362
1.22,4.502339395511338,5898.999990814834
1.224,4.331650226782355,5894.623519670043
1.228,4.182143490743095,5897.948026041503
1.232,4.033614831831546,5897.617460014019
1.236,3.863875317074285,5902.257998801203
1.24,3.6581193662277487,5905.007028519222
1.244,3.415025295304493,5897.604977035372
1.248,3.1475293674876363,5892.0812362522
1.252,2.8785571875565683,5888.73129139585
1.256,2.633808370780407,5897.329512085883
1.26,2.4343513516857174,5904.28283085262
1.264,2.2912827172876846,5904.463337735879
1.268,2.203573140139874,5897.278037732564
1.272,2.1591120406212387,5909.627487578457
1.276,2.1382112427171567,5895.157196758719
1.28,2.1184337097496355,5899.2007758370655
1.284,2.0795607959208757,5912.330872985135
1.288,2.007776914522665,5897.611039193649
1.292,1.8984698864323657,5888.796306559206
1.296,1.7571923957290114,5909.524518719029
1.3,1.5985223542595823,5901.703117645169
1.304,1.4430478374995983,5888.650959099429
1.308,1.3132024360498813,5904.42140169322
1.312,1.2287840046645324,5892.879367392535
1.316,1.202819909041029,5901.722179190294
1.32,1.238363324770721,5896.379459984409
1.324,1.326843046030983,5903.493416624267
1.328,1.448467751211138,5909.254056271048
1.332,1.5748220475035546,5893.098220082603
1.336,1.6734362130497558,5890.703944138434
1.34,1.7138770070313443,5903.035555152531
1.344,1.6745158531335789,5901.137788038848
1.348,1.548456329762941,5906.229276106414
1.352,1.3466462275350146,5899.5062059738575
1.356,1.0966327244721306,5885.503732388403
1.36,0.8367676471682014,5891.324005947518
1.364,0.6072684955252234,5893.388076898534
1.368,0.4407072437918845,5887.751361058251
1.372,0.35483679161869575,5892.987224228805
1.376,0.3499017776766252,5890.506750456421
1.38,0.4108095901699698,5891.827390411841
1.384,0.5126385248834997,5888.0313095698975
1.388,0.6270997638452477,5885.066218642622
1.392,0.7280569777866845,5882.856174262973
1.396,0.7952749375438692,5878.553609402571
1.4,0.8163955609138326,5881.741674891508
1.404,0.7875613880276455,5881.035279807861
1.408,0.7132051132504246,5886.642979590774
1.412,0.6052224464896153,5870.590358337945
1.416,0.48117474909791647,5884.888763163737
1.42,0.3609453660879306,5872.115320299174
1.424,0.2619460144478949,5879.941160877914
1.428,0.1942275224882945,5874.613285427222
1.432,0.1575841805587485,5874.8813540959
1.436,0.14211761192932557,5875.986814203218
1.44,0.13212101210241842,5877.94580720833
1.444,0.1117495209730586,5879.1296069907485
1.448,0.07050545294082332,5862.8829105766345
1.452,0.006873659819023892,5878.006888349697
1.456,-0.07098309029530786,5866.589593823023
1.46,-0.14775695967039273,5866.901379616409
1.464,-0.20593253168870748,5860.203722783119
1.468,-0.23131245657350313,5869.247919313571
1.472,-0.21716963385420313,5867.1705849317705
1.476,-0.16592053014156644,5867.91615262242
1.48,-0.08837816232299417,5869.061530101548
1.484,-0.0013316473160191991,5872.709723919806
1.488,0.07574726391712769,5864.899078564764
1.492,0.12433430674068303,5858.529224047948
1.496,0.13051360956797362,5861.746754372
1.5,0.088329482384012,5866.7686059870775
1.504,0.0021629927735457833,5860.065937524673
1.508,-0.11288279615451743,5861.434036856583
1.512,-0.23350776940410742,5859.832007640543
1.516,-0.3336753533460692,5846.101855929864
1.52,-0.3915871311072067,5863.127989791999
1.524,-0.3956684881608437,5859.923045379656
1.528,-0.34725411847039184,5853.9614344643805
1.532,-0.2591812818670336,5858.764921657454
1.536,-0.15136890186710217,5860.374154382805
1.54,-0.04541530112106719,5855.074142406498
1.544,0.04010861680929552,5853.626655397662
1.548,0.09290494349909534,5852.569820936084
1.552,0.10853863178098015,5860.371085881889
1.556,0.0902678999282383,5848.605127315389
1.56,0.047066310456695036,5850.462508986021
1.564,-0.009788827856629588,5859.96634290519
1.568,-0.07049558217591816,5857.287410016515
1.572,-0.12946460425341574,5847.937341845684
1.576,-0.18605963813393744,5850.552859201202
1.58,-0.24329099471443963,5853.077057384372
1.584,-0.3051081357168973,5846.831834386454
1.588,-0.373305387331183,5848.391152593624
1.592,-0.4452737729954464,5847.148893082161
1.596,-0.5137134881868419,5852.631254865997
1.6,-0.5686731885090865,5843.727793355396
1.604,-0.6011540060790053,5840.892905193283
1.608,-0.606677137806028,5848.290573458453
1.612,-0.5871521328200364,5840.48993129131
1.616,-0.5501592802708681,5844.069583140309
1.62,-0.5060658411339584,5847.376377683775
1.624,-0.46454199077761726,5843.212358266831
1.628,-0.43218561803151423,5847.670521508496
1.632,-0.4119155154464589,5846.787016118455
1.636,-0.4035050543385086,5847.24641416737
1.64,-0.40431194608548343,5846.981248673603
1.644,-0.40998371146600765,5843.632309349266
1.648,-0.4156308712483817,5833.663920359153
1.652,-0.41779565270292585,5841.598202342626
1.656,-0.4166304972827965,5848.113117666135
1.66,-0.4169018020570467,5836.174605286569
1.664,-0.4266567005725352,5848.956464799725
1.668,-0.45376000517984155,5844.185726018703
1.672,-0.501990780545793,5843.944053813664
1.676,-0.5686619056503363,5840.597980158857
1.68,-0.6446198822386635,5847.281068780658
1.684,-0.7161487727099746,5841.299125038048
1.688,-0.7678210837290865,5848.991787463784
1.692,-0.785595144213589,5845.022388634309
1.696,-0.7596867933327677,5850.755273116584
1.7,-0.6867206870457179,5845.499329168662
1.704,-0.5707799711576044,5845.88024703962
1.708,-0.4233240773680445,5843.272826129094
1.712,-0.2621440289109572,5833.144799609453
1.716,-0.10939493244633601,5846.824255999697
1.72,0.011382813318414307,5841.593392622676
1.724,0.07909550074663557,5840.040298224412
1.728,0.07907066907468553,5838.958768924591
1.732,0.006118565430351796,5836.367429861589
1.736,-0.13408493063035473,5832.802808890304
1.74,-0.3253577742762987,5838.1684086694095
1.744,-0.5427519490880971,5840.259901343411
1.748,-0.7554628350784038,5845.4129550422185
1.752,-0.9309516288468596,5846.055915698536
1.756,-1.0401167052253735,5830.131628617337
1.76,-1.0627364876293115,5833.917911096566
1.764,-0.9918858461199218,5846.928588881282
1.768,-0.8360027106486425,5851.413961409621
1.772,-0.6178493498475901,5841.325177221983
1.776,-0.3705345650842135,5835.859096363334
1.78,-0.131570127139758,5832.956762496575
1.784,0.06374996933144672,5839.642227494868
1.788,0.188501996888637,5839.258606733083
1.792,0.22885629154716927,5838.780872270363
1.796,0.1863980608689921,5840.23131099029
1.8,0.07721763305827944,5842.629141633444
1.804,-0.0723041870449742,5835.012160092188
