时间(s),电压(V),幅值(高频80K)
0.0,-0.0491577361376412,5903.715752575581
0.004,0.029213125094393607,5900.119211014161
0.008,0.0975837729314463,5892.492525334375
0.012,0.15005458670577773,5902.976059556297
0.016,0.18450309088478833,5900.478250044923
0.02,0.2020806548974962,5904.075151841128
0.024,0.20588236981355562,5888.59390715639
0.028,0.19980106030113723,5902.795222247903
0.032,0.18770698118611412,5889.415697359612
0.036,0.1726864166742428,5898.595872677365
0.04,0.1565561061956889,5899.997370237211
0.044,0.14012727590771085,5903.403342316217
0.048,0.12401633458643088,5903.024739178107
0.052,0.10909269679337116,5904.125681615649
0.056,0.09601373250453293,5902.753069951862
0.06,0.08437193262287136,5895.462414306257
0.064,0.07244144512624938,5898.86267350318
0.068,0.05780195905894703,5905.778282265055
0.072,0.03815520586755232,5902.143242942319
0.076,0.011622313373246538,5898.093878165889
0.08,-0.023344725015226966,5901.327980893129
0.084,-0.06775191789256443,5902.994041719458
0.088,-0.12132727838902582,5899.694322965516
0.092,-0.18190176231127608,5900.407346450182
0.096,-0.24568295553283057,5891.907288769778
0.1,-0.3083193313561348,5895.7699295308485
0.104,-0.36573611910909015,5902.412164403169
0.108,-0.41394312046578585,5900.175544046361
0.112,-0.44831281347738955,5896.857111203249
0.116,-0.4637429356883308,5901.943872443202
0.12,-0.45643042273245743,5906.855185379236
0.124,-0.42634102892701686,5911.7193276548205
0.128,-0.37862334332172587,5904.971243845815
0.132,-0.3228594195372761,5898.441318912412
0.136,-0.27029588631398516,5904.921866882124
0.14,-0.230131425256806,5904.004142260977
0.144,-0.20634210412931217,5899.705655866971
0.148,-0.19642474566233079,5902.556167782717
0.152,-0.1927885865976619,5902.003856103825
0.156,-0.1864012928127069,5887.414332751574
0.16,-0.17107788876075153,5899.76913662761
0.164,-0.1462926306624752,5900.702665757644
0.168,-0.1172512540864299,5899.348373051555
0.172,-0.09262394811552639,5901.981527487918
0.176,-0.08135232819200233,5908.267742401574
0.18,-0.08977253507239945,5903.859101821271
0.184,-0.11979218674852618,5904.988557376947
0.188,-0.16861598032593658,5898.259073612187
0.192,-0.2301122133708083,5899.683028910095
0.196,-0.2971564761788602,5898.846614146652
0.2,-0.3638108243287171,5913.3731815038245
0.204,-0.42641767322987223,5897.567321695396
0.208,-0.4832870658676255,5907.747142297291
0.212,-0.53321738330847,5900.643469030132
0.216,-0.5735324162221637,5892.328972934723
0.22,-0.598680287282575,5900.872324257841
0.224,-0.6005365483638577,5895.642281745561
0.228,-0.5709732802083615,5899.753713349101
0.232,-0.5059461856225497,5901.144436260821
0.236,-0.40910661228169853,5905.474508177716
0.24,-0.29280741051436393,5900.060759509504
0.244,-0.1755310253690664,5906.9870542129465
0.248,-0.07644782797509451,5894.399013568176
0.252,-0.009136638875099728,5894.575142103706
0.256,0.022995044066070378,5888.925668101485
0.26,0.027588206962899393,5911.51366657368
0.264,0.019999832736631376,5904.806884105003
0.268,0.01704837972005484,5897.350525222174
0.272,0.030313455558159133,5893.373311152884
0.276,0.06157637022031952,5896.956944082745
0.28,0.10213598513972409,5891.873915221521
0.284,0.1362917201394944,5891.305356546848
0.288,0.14761346456619753,5903.246934647023
0.292,0.12526579920980208,5892.533714012576
0.296,0.0675317861267963,5899.716304040348
0.3,-0.01875441715079215,5900.659497903034
0.304,-0.1218619207933415,5890.760427386592
0.308,-0.2295908098447535,5899.777070245259
0.312,-0.3326024545190897,5897.381707257959
0.316,-0.42608322282444644,5897.809836203888
0.32,-0.5098854262212159,5887.386600150574
0.324,-0.5871694669166125,5900.132028724667
0.328,-0.6616905505227364,5899.720325837191
0.332,-0.7346980692474212,5892.300771594712
0.336,-0.8029324634788938,5902.118696588039
0.34,-0.858629199714622,5906.483912615439
0.344,-0.8913544661731773,5901.352419471184
0.348,-0.8907123092183337,5903.234720909492
0.352,-0.8487334187089346,5899.097940408629
0.356,-0.7612066796168696,5906.704203093999
0.36,-0.6281144213393558,5899.31701320525
0.364,-0.45382694926765726,5905.383013599054
0.368,-0.24739926477592333,5898.716927774436
0.372,-0.022828623664769124,5907.207343782742
0.376,0.20099921921544522,5908.376662940532
0.38,0.40099608406197906,5898.653878098427
0.384,0.5517087378142644,5888.337312278472
0.388,0.6288418462370494,5903.796735931221
0.392,0.6144386574701186,5905.4445150693255
0.396,0.5025829619638492,5898.418568063859
0.4,0.3034413191568482,5895.636786119599
0.404,0.043439646195673885,5902.656215331164
0.408,-0.2392153115733329,5907.637546021983
0.412,-0.5023664594477106,5899.034876479017
0.416,-0.7083505071282643,5900.987362889264
0.42,-0.8303065971758289,5901.021322576169
0.424,-0.854887423926533,5904.462118430883
0.428,-0.7817793593336412,5910.828463400786
0.432,-0.6217726024909236,5902.834574604967
0.436,-0.39496353144714913,5897.260113421324
0.44,-0.12929272685811458,5902.273024041166
0.444,0.14155156453273912,5899.448343699907
0.448,0.3818048425141425,5898.389514297233
0.452,0.558805263786913,5897.180851190423
0.456,0.6484882982356436,5896.263214323793
0.46,0.6395887949705172,5903.785516558721
0.464,0.5354372254145822,5910.910623637241
0.468,0.35307133950591874,5901.995772967172
0.472,0.12001835204455166,5894.715382086423
0.476,-0.13047387505177885,5900.402698003901
0.48,-0.3647301543323611,5899.717231864107
0.484,-0.5535140877148385,5902.021401538256
0.488,-0.6758601881393689,5901.94209469914
0.492,-0.721525337311237,5901.833286800376
0.496,-0.6917305028424621,5902.447141393101
0.5,-0.5979817058074822,5895.90162266543
0.504,-0.45920510513918356,5900.186100011893
0.508,-0.2978233314573758,5892.768971263377
0.512,-0.13544300634824993,5900.129960917488
0.516,0.011143090175306857,5891.233664791623
0.52,0.13263551301192106,5893.712158422869
0.524,0.22746297555092626,5900.047701810967
0.528,0.2991135118718194,5899.468639524593
0.532,0.35141950323635474,5901.408612187014
0.536,0.38377736178867705,5897.8569557464425
0.54,0.3885183525178299,5902.134318769379
0.544,0.3519287458407914,5892.878253353801
0.548,0.25909701243721006,5891.739809486109
0.552,0.10123936765672892,5908.362394114086
0.556,-0.11717840025770808,5905.098267435005
0.56,-0.37473425559860446,5895.591712511057
0.5640000000000001,-0.6351049188256276,5901.90304168364
0.5680000000000001,-0.8550310039451492,5902.35716679141
0.5720000000000001,-0.995686196291255,5901.489802316996
0.5760000000000001,-1.0331894458065385,5898.939143126421
0.58,-0.9643401551194546,5901.922839479947
0.584,-0.8060515897659317,5904.4287391548905
0.588,-0.5897919358924372,5903.727116684797
0.592,-0.3538517151392577,5898.499716395201
0.596,-0.1359810852371268,5911.867399590374
0.6,0.032414466885857515,5894.053608695939
0.604,0.13065376687420152,5893.403543562636
0.608,0.15217767659881304,5892.696395050117
0.612,0.1065388576710857,5886.080600101128
0.616,0.01850771152958118,5896.830409502863
0.62,-0.0770683110540466,5896.620969013484
0.624,-0.14435618765259947,5908.043726889075
0.628,-0.1570325144327842,5896.595643305222
0.632,-0.10625860429951815,5896.043277726068
0.636,-0.0027159796758181145,5898.28786027451
0.64,0.12827224833148368,5899.522763999276
0.644,0.2562499019703146,5906.268641839224
0.648,0.35535688148527955,5896.834229882833
0.652,0.41023249053863026,5895.095169811184
0.656,0.4165226384197153,5895.283502461361
0.66,0.37736464852507134,5901.402075937601
0.664,0.2989378930978658,5896.626670045957
0.668,0.18784216434729314,5902.641631049728
0.672,0.05125456525125954,5902.8121211528205
0.676,-0.10105329201227793,5893.882182984798
0.68,-0.2546518881305749,5899.646374338288
0.684,-0.39001722954468404,5896.763153079115
0.6880000000000001,-0.4846474314154176,5900.064281106572
0.6920000000000001,-0.517703440498111,5900.237547325168
0.6960000000000001,-0.476177152262353,5904.595755368456
0.7000000000000001,-0.3607005541446928,5900.84305810599
0.704,-0.18859568212611055,5901.52223704636
0.708,0.007818464381574571,5901.033508677764
0.712,0.18809270707785772,5900.929218435912
0.716,0.31404213547370086,5901.611891856357
0.72,0.3604162087394621,5903.060152424189
0.724,0.32213515182004093,5901.5462601876525
0.728,0.21531782947140016,5902.105484977381
0.732,0.07156413151249733,5902.076462506519
0.736,-0.07225982064571962,5895.308672837219
0.74,-0.1846853815811179,5898.608244896461
0.744,-0.24703603262398088,5899.976843438643
0.748,-0.25582613698059425,5892.84819453458
0.752,-0.2206023655005369,5905.588081242686
0.756,-0.1589480528167843,5890.4416742582725
0.76,-0.09059677456255903,5899.085225698494
0.764,-0.032192220372795295,5905.481378944281
0.768,0.006234175301848308,5902.739259931146
0.772,0.022321866681017835,5900.520324035715
0.776,0.019716926826355986,5893.929844344726
0.78,0.004323336032103167,5898.683971281483
0.784,-0.01990929741431867,5894.549631547566
0.788,-0.05369769528903044,5907.74241246042
0.792,-0.10234958905334386,5905.150065427232
0.796,-0.17297589000699523,5906.214297646474
0.8,-0.2703713712554737,5894.129620272889
0.804,-0.3934310025825979,5905.962420037513
0.808,-0.5333605239230675,5903.260807112471
0.812,-0.6739293714745773,5903.325937554811
0.8160000000000001,-0.7935458905732982,5901.178692930183
0.8200000000000001,-0.8689869231468939,5906.070838830324
0.8240000000000001,-0.8804810808801948,5906.740512584923
0.8280000000000001,-0.8172876317410743,5895.667040102156
0.8320000000000001,-0.6822712021327577,5892.028770134171
0.836,-0.493646297828108,5906.85240434886
0.84,-0.2824482183833901,5899.780085457397
0.844,-0.08565988475328523,5907.083038436243
0.848,0.0631153652464495,5907.309823347609
0.852,0.14219914850884738,5913.343120420368
0.856,0.14665198333267904,5897.866624583287
0.86,0.08810544481209093,5901.1921291900935
0.864,-0.009726538904131044,5908.573193251541
0.868,-0.11805716102469851,5910.735444122152
0.872,-0.21049244567019543,5906.08653861394
0.876,-0.269078794829745,5894.659793165386
0.88,-0.2874692453270485,5898.391321711734
0.884,-0.2705301737842294,5893.273494546476
0.888,-0.23087179274764416,5900.051037791852
0.892,-0.18381942395471648,5893.586525615116
0.896,-0.14272091017504696,5900.723900165557
0.9,-0.11610817621785537,5896.042133931485
0.904,-0.1072215864223432,5893.87724084866
0.908,-0.11510446827323023,5902.10719731191
0.912,-0.13577415556260214,5903.121818638655
0.916,-0.162687091406878,5904.847227536264
0.92,-0.18718739025211925,5897.649830835672
0.924,-0.20010027851611772,5897.716640481263
0.928,-0.19451782334877346,5900.281497086975
0.932,-0.16846573846709315,5888.324149354023
0.936,-0.12591413489064615,5901.934898107322
0.94,-0.07552343695873484,5891.519392487002
0.944,-0.027809947057001995,5892.57850348294
0.948,0.007776576212498529,5900.944879647678
0.952,0.02458703290697939,5898.588571416648
0.956,0.019040900761796545,5900.233158227887
0.96,-0.009982647537057993,5901.152206129386
0.964,-0.06192692987459199,5896.01764331004
0.968,-0.13515573816020626,5908.726645924198
0.972,-0.22717448917501354,5905.380108931166
0.976,-0.3341966315699944,5906.3957015313545
0.98,-0.44993477972338,5902.218618523958
0.984,-0.5641744067814494,5897.657453935162
0.988,-0.6624549863360683,5902.499519574449
0.992,-0.728190173479935,5899.3846336932365
0.996,-0.7473916799759682,5894.890728852555
1.0,-0.7143872389384457,5902.085725359924
1.004,-0.6357302185693634,5896.972206743093
1.008,-0.5298647177946334,5892.290785099718
1.012,-0.4220785433609478,5896.0653209846
1.016,-0.33670132360833455,5904.604046018138
1.02,-0.28976199129370694,5904.142850871618
1.024,-0.28475165480276293,5911.074129474804
1.028,-0.312570268505395,5892.837423636673
1.032,-0.35525830252737256,5888.485618525499
1.036,-0.39201499386648514,5898.168176838388
1.04,-0.4052980496383602,5901.099936662816
1.044,-0.38488345835207843,5904.824731117237
1.048,-0.3288777678856087,5902.912649939588
1.052,-0.24223140041301275,5897.103829431939
1.056,-0.13428358348806804,5910.919763380393
1.06,-0.016770401225109307,5897.944244492516
1.064,0.09714346790342905,5899.926029569586
1.068,0.1932599736489311,5899.197623276839
1.072,0.2572622390827669,5905.451358961285
1.076,0.27711395803319794,5901.042216167663
1.08,0.24686314284184957,5902.530972675977
1.084,0.1703437676904894,5898.188858360035
1.088,0.0625263654788554,5895.472896631146
1.092,-0.05311208886358291,5902.730078744994
1.096,-0.15108069915017985,5894.057016171262
1.1,-0.2121249077087556,5906.057865347559
1.104,-0.22995271023748154,5901.364581110057
1.108,-0.21345090652953144,5899.599894744706
1.112,-0.1830976530867753,5909.461193887131
1.116,-0.1626993596413905,5905.174499051166
1.12,-0.1697830576719047,5899.172873777311
1.124,-0.20886918676854513,5901.9346302971335
1.128,-0.27060999622996956,5902.635705905756
1.132,-0.33676241759116365,5895.813964120067
1.136,-0.38804613176020974,5903.851838317642
1.14,-0.411073506334298,5897.058276078866
1.144,-0.4018797169868634,5904.713250766467
1.148,-0.3656461326339161,5898.526511665077
1.152,-0.31364073192269426,5909.27913064502
1.156,-0.25886553822558145,5907.624141229063
1.16,-0.21173466732617963,5895.27476378726
1.164,-0.17680507212926558,5902.175636881536
1.168,-0.15144145973113823,5897.454265620216
1.172,-0.12712299404783697,5900.00909778284
1.176,-0.09346875635727299,5892.4722359761545
1.18,-0.043946887862215345,5894.907943046104
1.184,0.01886607527607772,5895.294070469338
1.188,0.08102732337905977,5907.813272182565
1.192,0.11971525917945924,5899.055697054269
1.196,0.11017679110497182,5904.522071496622
1.2,0.03455657569505273,5892.636189935789
1.204,-0.11104180505654357,5905.481923200247
1.208,-0.31395758281466657,5900.611089513944
1.212,-0.5472754481947127,5892.454796985839
1.216,-0.7755813443406706,5895.742255376941
1.22,-0.9621327866712324,5901.984091197104
1.224,-1.0756389246270963,5895.682686974013
1.228,-1.0953086437287933,5897.306614469799
1.232,-1.013620295089771,5903.291058017678
1.236,-0.837241105169076,5906.5064845943625
1.24,-0.5867924696987411,5907.971839598828
1.244,-0.2953532753515439,5891.5321174959
1.248,-0.004699614547442862,5903.760285477442
1.252,0.24142652390513483,5907.016695421808
1.256,0.4061581715251496,5895.663873350075
1.26,0.46794382721026545,5901.535780492053
1.264,0.4255892913564155,5898.613007962937
1.268,0.2978608873344355,5893.145198034416
1.272,0.1175223263999493,5890.890402668215
1.276,-0.07817862376265461,5908.854387790351
1.28,-0.25710369640631114,5904.639546853429
1.284,-0.39858450668133494,5898.563365823955
1.288,-0.4950083289613832,5900.469245213009
1.292,-0.5492806424861072,5899.6211919098405
1.296,-0.5701774740181452,5897.223503681567
1.3,-0.567808428155321,5899.49813863743
1.304,-0.5507837060678035,5907.860093151232
1.308,-0.525595424819196,5900.371109269563
1.312,-0.4975623207606522,5892.810276598549
1.316,-0.47188956967472356,5901.749083803746
1.32,-0.4533861841018258,5898.04530375164
1.324,-0.44438943662172514,5902.755496396593
1.328,-0.44209931244063777,5895.023381553129
1.332,-0.43761383444168445,5904.652803852337
1.336,-0.4183007827586469,5896.442907274949
1.34,-0.3730288099722527,5907.089492977728
1.344,-0.2978549811023719,5893.5298918895705
1.348,-0.1993443041040449,5902.965645375047
1.352,-0.09379474510152938,5897.725562975633
1.356,-0.002481507540504384,5903.992747094791
1.36,0.055247310416391325,5902.2123633569945
1.364,0.06828791252770985,5898.474562714237
1.368,0.03703453034598699,5909.390533646367
1.372,-0.027592650054158754,5897.369955753641
1.376,-0.1086522215014541,5892.5839104510005
1.38,-0.18898217850513,5898.664372132922
1.384,-0.25575203845894634,5907.309710719097
1.388,-0.30240049236257194,5902.692404536912
1.392,-0.3283256522372177,5896.849253448821
1.396,-0.3376183235940531,5892.972890455143
1.4,-0.337809649895405,5892.301321895036
1.404,-0.33876017907803124,5903.443355545006
1.408,-0.3513133424270231,5894.925297414313
1.412,-0.3854440191673416,5900.767747089523
1.416,-0.44805622135698997,5890.147797539627
1.42,-0.5408923916338381,5905.006970369022
1.424,-0.659122392738864,5902.257798477052
1.428,-0.7912199935618364,5902.315971645621
1.432,-0.9205786380255444,5908.77263783801
1.436,-1.0287662264484536,5905.94922478277
1.44,-1.0996087727486916,5888.564030889847
1.444,-1.1228825667064735,5899.272227086856
1.448,-1.0964808890008657,5896.264408588676
1.452,-1.0264296945770668,5900.8034032122505
1.456,-0.9248691691884658,5898.871733483442
1.46,-0.8068099240197737,5905.9009561070825
1.464,-0.6867841894306642,5905.934020876207
1.468,-0.5763154819373435,5895.906104477494
1.472,-0.48266538441664436,5903.3570499486505
1.476,-0.40890983266376485,5894.033210496028
1.48,-0.35507466157858747,5895.223540467893
1.484,-0.319699429456006,5901.51115068153
1.488,-0.30097221843609767,5908.696225320056
1.492,-0.2968514431410189,5900.522301172314
1.496,-0.3043371017937099,5901.6211577509175
1.5,-0.31872024814341,5891.211212014745
1.504,-0.3336908531308596,5905.633649287508
1.508,-0.3425636549478058,5907.921661274818
1.512,-0.33998457355649164,5896.706670424177
1.516,-0.3229279383407228,5895.766346175201
1.52,-0.29008677025813284,5899.699503333825
1.524,-0.23983554257168724,5903.6743553678125
1.528,-0.1681379823642652,5904.612819308052
1.532,-0.06824074012125654,5904.147757602459
1.536,0.06675657460706864,5899.16814866581
1.54,0.23907100749053528,5901.140913364772
1.544,0.4414438579347072,5894.684991002395
1.548,0.6552669949163421,5905.734257158814
1.552,0.8534267052901863,5905.383083602248
1.556,1.0072908253178767,5897.770408495401
1.56,1.0950044034317636,5901.799162593894
1.564,1.1075603068295683,5895.790382069119
1.568,1.050247990507419,5898.8889632767205
1.572,0.9392665852358211,5889.883007904498
1.576,0.7953916473711198,5909.678044984037
1.58,0.637541703964291,5902.075743279459
1.584,0.4785208061638835,5892.363654524587
1.588,0.3237960207805289,5901.054875025178
1.592,0.17286439537263185,5905.035997282948
1.596,0.02201998750861742,5910.950499519182
1.6,-0.13274713010880188,5896.634793339243
1.604,-0.29341997001192555,5894.584785022823
1.608,-0.4580164664104244,5899.855558375431
1.612,-0.6182876176206457,5910.281542985218
1.616,-0.7565085382004318,5903.665716953771
1.62,-0.841939417184846,5906.425030655336
1.624,-0.829033526317449,5902.938801192812
1.628,-0.6602594856955168,5902.251203827185
1.632,-0.27562995444985583,5888.895567654114
1.636,0.3712713081140153,5904.734127277166
1.64,1.2941205170498236,5900.759861909079
1.644,2.457876897839059,5895.977870712679
1.648,3.773541341062581,5901.146548219502
1.652,5.108887847280826,5906.347098745001
1.656,6.314408101322322,5901.472266304829
1.66,7.256778813117588,5899.743727644507
1.664,7.848589106609503,5903.515915642072
1.668,8.065019891167813,5897.584657841291
1.672,7.943878470406107,5888.979552799511
1.676,7.571285251939309,5899.137612325735
1.68,7.058931637047397,5897.8923782247775
1.684,6.519629516792644,5901.25592401415
1.688,6.046580813791101,5897.144805794946
1.692,5.699626273976535,5901.457897870971
1.696,5.499687183291857,5896.849093782523
1.7,5.431098531212066,5898.254106871311
1.704,5.450484104014273,5892.432862855065
1.708,5.500051048567627,5903.472048441012
1.712,5.522554240182797,5890.262976871071
1.716,5.474748409306611,5892.314774802559
1.72,5.336242690437188,5908.629615919177
1.724,5.111669688754424,5899.586309483734
1.728,4.8259057512491905,5906.14966330131
1.732,4.514185073217787,5900.083102612912
1.736,4.210645653542993,5910.873179811953
1.74,3.9393342328909284,5905.990333895933
1.744,3.7103564309494006,5891.10347751846
1.748,3.521244620042746,5895.974562092792
1.752,3.361550434264197,5900.992633765186
1.756,3.2183611249874127,5898.849456332217
1.76,3.0811887120833092,5899.590599803746
1.764,2.945215514952801,5906.050295649643
1.768,2.8121421653264114,5900.549100611198
1.772,2.6885720542477043,5905.867774186938
1.776,2.5828628632603365,5906.867689669728
1.78,2.5017845804731964,5900.491411032945
1.784,2.4478699092831073,5891.669367307488
1.788,2.4177571120053423,5893.125300156297
1.792,2.401755466896624,5897.460148710256
1.796,2.385058540759763,5895.505759907495
1.8,2.3508126745079108,5909.294563487754
1.804,2.2845094577947362,5904.341403313961
