时间(s),电压(V),幅值(高频80K)
0.0,-0.13612527664595275,5892.207080722157
0.004,-0.36161889247439855,5905.187692918832
0.008,-0.5598879307761204,5897.611847596984
0.012,-0.7059220616361875,5891.026517566586
0.016,-0.7811756252786124,5898.038438408185
0.02,-0.7768539360991649,5909.381292098567
0.024,-0.6957603992082916,5910.217914386692
0.028,-0.5517703510923361,5902.422380949099
0.032,-0.367100530508552,5904.2299053448
0.036,-0.16835767616929473,5908.088805470405
0.04,0.017658785219014036,5894.727450168061
0.044,0.16789526169176092,5895.618803672766
0.048,0.2664086678818585,5895.965175309494
0.052,0.30657316676464835,5907.866763046643
0.056,0.29140459430639803,5896.451260098182
0.06,0.23177636125574602,5891.491373320473
0.064,0.1431576898792296,5888.9523005641495
0.068,0.04198663734849013,5902.328124754416
0.072,-0.0574114566412101,5908.076225520228
0.076,-0.14492179492391802,5898.828380268321
0.08,-0.21557568254893103,5899.595867773018
0.084,-0.26925357461252414,5889.427848101017
0.088,-0.3093287003110341,5905.826219160787
0.092,-0.34070728468282213,5900.959516439612
0.096,-0.3677246726158075,5904.672992164147
0.1,-0.3921772598771752,5910.952660066178
0.104,-0.41187736130607155,5907.803297684323
0.108,-0.4205036980722516,5903.889105903749
0.112,-0.40943663373308387,5904.512777381509
0.116,-0.37127570271926236,5897.53589057314
0.12,-0.3035734646001912,5906.965679331252
0.124,-0.2110843979581857,5899.776778480459
0.128,-0.1056240474033593,5906.871001422559
0.132,-0.0036568844688783866,5899.434427074765
0.136,0.07760070544110659,5900.530935423201
0.14,0.12441177277956605,5903.627668681454
0.144,0.129729980732186,5899.286654092086
0.148,0.09421302074556849,5901.3539840149615
0.152,0.024722749908819244,5904.91121857401
0.156,-0.06874889555356763,5903.586361160347
0.16,-0.17604256880667798,5899.209881695251
0.164,-0.2883375552577685,5905.924915271471
0.168,-0.39793533013183663,5900.876352307909
0.172,-0.49706598624695625,5895.2746585794575
0.176,-0.5768589113213934,5897.522931178008
0.18,-0.627385599180035,5900.603356253089
0.184,-0.6391590276053192,5900.507074417966
0.188,-0.6058744096794862,5897.298848081266
0.192,-0.5274807234052974,5906.931083055917
0.196,-0.41213435189302133,5901.223455185207
0.2,-0.2757701787222026,5899.129157869666
0.204,-0.13905708212320478,5903.035840166956
0.208,-0.022723560287053805,5896.642096457826
0.212,0.057208333782909786,5901.090686528566
0.216,0.09307571367693918,5905.055016900019
0.22,0.08750637135703214,5906.497507767225
0.224,0.0531865545825142,5900.364153126013
0.228,0.009952826498657138,5901.366487802996
0.232,-0.02076834836293358,5897.055484471972
0.236,-0.02284147981580705,5905.380510540027
0.24,0.008831912268774333,5900.393310181002
0.244,0.06608568825342703,5891.984315958687
0.248,0.12982646223886926,5899.726880342022
0.252,0.1761291768136961,5900.638123360982
0.256,0.18386110117201407,5895.9987710293735
0.26,0.1412382569733895,5891.561813907867
0.264,0.049383880891587253,5907.664177860469
0.268,-0.07793376679295089,5900.7151734152085
0.272,-0.218180215690386,5906.840882777894
0.276,-0.34640288186161033,5895.456496366033
0.28,-0.4420322161430623,5898.4227849055815
0.284,-0.4938708552660628,5904.020989206558
0.288,-0.501839895256374,5892.166758767939
0.292,-0.4755398696474973,5905.093839863274
0.296,-0.43088097111573603,5895.305108574477
0.3,-0.38627875303158515,5903.859199105488
0.304,-0.3592187207734982,5897.583626622632
0.308,-0.3631656561252324,5900.341751947765
0.312,-0.404767450534865,5898.449157819247
0.316,-0.4819732342057212,5896.464690121204
0.32,-0.5839586384947804,5899.502317308103
0.324,-0.6930955059855207,5912.151369551467
0.328,-0.7883469782630242,5898.62987162895
0.332,-0.8492372257860968,5903.950640915048
0.336,-0.8597926657349236,5908.277901253919
0.34,-0.8119695741396343,5898.856638293277
0.344,-0.7079733584001957,5898.266181729962
0.348,-0.5608638670698959,5904.98602018621
0.352,-0.39302516296218387,5892.913477907049
0.356,-0.23234784955310098,5904.527133433699
0.36,-0.10642634625785415,5892.525107718835
0.364,-0.03588892630559516,5902.037445845414
0.368,-0.02888313329888432,5891.807220012558
0.372,-0.07891926569214529,5904.299930460456
0.376,-0.16712968853834656,5889.866903008142
0.38,-0.2680392262826957,5896.306614573791
0.384,-0.3565117068933515,5907.386587172762
0.388,-0.4135129714462509,5899.299630858341
0.392,-0.4293480632632374,5898.170595072143
0.396,-0.40413708865000053,5903.699765640928
0.4,-0.3460189577403268,5898.8642483666745
0.404,-0.26800667340158213,5901.734903685678
0.408,-0.18455925925121341,5902.083438599978
0.412,-0.10868126857001337,5905.138167589219
0.416,-0.04994019859081522,5897.830200478816
0.42,-0.013501218183259701,5894.820846080904
0.424,-0.00011422204654355717,5894.602206335212
0.428,-0.006896228241291415,5903.42474310463
0.432,-0.02871176918204491,5903.371481779423
0.436,-0.05981710142199169,5909.871474465414
0.44,-0.09522631337785993,5892.137025959305
0.444,-0.13136912292542408,5896.849045133114
0.448,-0.1661630970430486,5896.340277672976
0.452,-0.1990029221331385,5899.261811855049
0.456,-0.23079742444026413,5896.034235085271
0.46,-0.2634988783561336,5901.514748257482
0.464,-0.29857019657646955,5897.616838974447
0.468,-0.33475956902687803,5905.229102619114
0.472,-0.36654946720425524,5909.825001068858
0.476,-0.3847389024642528,5897.67425063843
0.48,-0.3795874950643558,5901.219176119999
0.484,-0.34542112603916175,5904.573974381952
0.488,-0.2845539549600945,5903.392179731774
0.492,-0.20849032292333705,5901.61658763952
0.496,-0.13557161993913808,5899.594813606953
0.5,-0.08586308559365004,5902.575960157651
0.504,-0.07528426761902005,5899.602578507206
0.508,-0.11117545121940017,5902.774886263213
0.512,-0.19065609589133725,5897.664846482658
0.516,-0.30184126478767,5902.106105138991
0.52,-0.426959523962941,5903.890638041207
0.524,-0.5460814012660383,5897.490470244744
0.528,-0.6404738720757555,5902.192512780718
0.532,-0.6951670884700839,5892.752227565525
0.536,-0.700762963131814,5907.3318861083935
0.54,-0.65467615606661,5912.710447665089
0.544,-0.5619179009781597,5897.79799741464
0.548,-0.4352638339458458,5906.372207929377
0.552,-0.29430824900665437,5905.833513351517
0.556,-0.16283165337435387,5904.895787470437
0.56,-0.06438466452312791,5898.871885497512
0.5640000000000001,-0.01685098216370698,5897.810901721302
0.5680000000000001,-0.02748365370497057,5896.886211521664
0.5720000000000001,-0.09012711843098983,5895.8285548356025
0.5760000000000001,-0.18590643220127812,5913.138534143623
0.58,-0.287603130921432,5897.580316641216
0.584,-0.3665698342963667,5906.680838437061
0.588,-0.4000229901384307,5899.86969449868
0.592,-0.37647159462310104,5896.990355402028
0.596,-0.2979331207414954,5900.610285362648
0.6,-0.17885981713989757,5897.429710450367
0.604,-0.0425573878704296,5895.992797886517
0.608,0.08390084256058322,5897.944609802996
0.612,0.17528362921699783,5897.717179840328
0.616,0.2133482835329547,5907.395890910023
0.62,0.1905949074708413,5901.674734079441
0.624,0.11189129857993078,5893.598316204575
0.628,-0.006449030238105338,5904.625519367646
0.632,-0.1400484535708592,5903.530077900052
0.636,-0.2616047483718739,5900.976678304999
0.64,-0.34664956561871063,5899.734095191712
0.644,-0.3786857822033349,5893.87300435422
0.648,-0.3525856014485023,5894.316058078407
0.652,-0.27541973880355813,5897.665008437561
0.656,-0.16445201774342852,5891.87706087976
0.66,-0.04280970285645196,5893.834310672906
0.664,0.06595174164444727,5892.0124160880505
0.668,0.1427786376451944,5903.489638903499
0.672,0.1761188246317809,5894.748361802956
0.676,0.16249695997460842,5900.431302877499
0.68,0.10540595730298148,5900.220478833144
0.684,0.0138314926031255,5901.494956130777
0.6880000000000001,-0.09885725139309248,5900.471407089147
0.6920000000000001,-0.21605911448367046,5903.230623700554
0.6960000000000001,-0.32011042366861275,5901.416217415504
0.7000000000000001,-0.39588090349848537,5901.399190705105
0.704,-0.4349346298438042,5901.65680011921
0.708,-0.43839853243328963,5900.613461995419
0.712,-0.4168082871965136,5904.651534280941
0.716,-0.38656492834918293,5901.929249522122
0.72,-0.36433971023174105,5901.636265586357
0.724,-0.3616127476561038,5898.97810396113
0.728,-0.38117867239765757,5910.4944368121205
0.732,-0.4164824447336767,5894.040118290724
0.736,-0.4536961139085706,5903.344791638242
0.74,-0.47578044179848394,5893.784921799533
0.744,-0.4674436601009048,5903.5126897531145
0.748,-0.4198236321995732,5907.688339322749
0.752,-0.33373683216915073,5896.91008963864
0.756,-0.22050024919857408,5899.093112940505
0.76,-0.09983075061880077,5900.142492166358
0.764,0.004864870056536075,5900.8206412003
0.768,0.07265095983208093,5902.758536576887
0.772,0.09088283023106604,5901.286953879244
0.776,0.05873990409691912,5893.283481898693
0.78,-0.012828613170106123,5889.869816054433
0.784,-0.10469672146889424,5900.940183233668
0.788,-0.19525913188867325,5902.656579151072
0.792,-0.2661134456208582,5899.136013784815
0.796,-0.3059400470651547,5897.66487341102
0.8,-0.3118833369884467,5910.053695945204
0.804,-0.28884237549726405,5897.891778735377
0.808,-0.24752244441963672,5896.301533879784
0.812,-0.20185406222758978,5893.9463921011575
0.8160000000000001,-0.16597758991370432,5891.100169523609
0.8200000000000001,-0.1509599553726979,5906.306045054171
0.8240000000000001,-0.16185606282252582,5895.951398149992
0.8280000000000001,-0.19615401188746162,5900.695050206099
0.8320000000000001,-0.24441071222092295,5901.250123546876
0.836,-0.29301932318815627,5903.198223380459
0.84,-0.32822564159382006,5903.348587316423
0.844,-0.3401357899721006,5895.4504579542045
0.848,-0.32544013364948,5903.161926001148
0.852,-0.28794694674571364,5898.634067708287
0.856,-0.2368618979232509,5899.8546780628
0.86,-0.18365607617164306,5898.80778506849
0.864,-0.1387592994717657,5896.541765634271
0.868,-0.10910105861853368,5900.393528135583
0.872,-0.09698051413220633,5899.390043117183
0.876,-0.10020994792125663,5904.184875679615
0.88,-0.11322104818322638,5904.83494771436
0.884,-0.12886592106215142,5896.137675965714
0.888,-0.1406373087585071,5901.609558043317
0.892,-0.14474388864398102,5897.638122624612
0.896,-0.14126231838300538,5895.750970817178
0.9,-0.1339194301580353,5914.974011450663
0.904,-0.1287151119411371,5895.424964281421
0.908,-0.13193886328409693,5893.684173920642
0.912,-0.1480493536516313,5893.900729969366
0.916,-0.17780476899396486,5906.733077263432
0.92,-0.21713668283641077,5900.253664248518
0.924,-0.25732303156687325,5904.30559353919
0.928,-0.2868294491736396,5901.026229607116
0.932,-0.2946799806620541,5901.837948744645
0.936,-0.2744305944782415,5888.114477950403
0.94,-0.22715265545393304,5897.089466427688
0.944,-0.1619175601891792,5897.933362208431
0.948,-0.09330550528056994,5895.787958386993
0.952,-0.036892776746011186,5903.088537735705
0.956,-0.004613515484399586,5893.981892037839
0.96,-0.001788695698999396,5908.629626383524
0.964,-0.026632094219076606,5897.899956332656
0.968,-0.07187042118834976,5891.198717249504
0.972,-0.12740970039125682,5895.1008189942295
0.976,-0.18294328504785723,5891.962839784684
0.98,-0.22979988952825706,5909.611226264346
0.984,-0.2618258041949337,5894.711000500233
0.988,-0.2754209999504472,5897.133056101611
0.992,-0.2689392224068132,5897.683182130435
0.996,-0.24172051822136542,5904.52504661464
1.0,-0.19322370602974698,5906.109706373266
1.004,-0.12284360269351596,5892.72487661032
1.008,-0.03071084771846229,5901.230456207359
1.012,0.08080147397985162,5896.231190132157
1.016,0.20559241994887156,5897.062415793587
1.02,0.33320435351594935,5891.483348115778
1.024,0.4495988877233434,5894.63505808275
1.028,0.5392478201394942,5901.394240569551
1.032,0.587834562386474,5897.965505856612
1.036,0.5847733795796384,5893.936362117149
1.04,0.5251701273018823,5898.734060859732
1.044,0.4112192970984851,5905.713821744812
1.048,0.25297263977287365,5897.842762975526
1.052,0.06808219241552935,5892.641055389816
1.056,-0.12005177277268396,5896.282139306005
1.06,-0.2860165993426648,5898.523831085715
1.064,-0.4075553957385253,5903.515368530974
1.068,-0.4708084611649174,5902.050659492893
1.072,-0.4737763054956158,5895.42815496357
1.076,-0.42658651925534,5903.732533571542
1.08,-0.34838936288419703,5900.877045522801
1.084,-0.26201950660060724,5902.077353482548
1.088,-0.188239829648677,5897.910777922576
1.092,-0.1412916596305948,5900.980118362301
1.096,-0.12687556974456154,5900.627399177677
1.1,-0.14277165089779573,5900.65579066882
1.104,-0.18130930122961147,5891.795371029306
1.108,-0.23233667490365006,5892.776412402451
1.112,-0.2855326753976074,5894.223837155253
1.116,-0.3315463628733075,5900.660319510218
1.12,-0.36210553163918235,5895.2604451424095
1.124,-0.36971439404456913,5906.962361161001
1.128,-0.34772194153161734,5904.755293993853
1.132,-0.2913004845702712,5891.144667090407
1.136,-0.19934329680705876,5897.880265993975
1.14,-0.07669102435946974,5900.169584840243
1.144,0.06433919113100081,5905.401163633655
1.148,0.20415046884097798,5894.062119252154
1.152,0.3182833334239428,5910.551396770134
1.156,0.3817800260625282,5894.556174954333
1.16,0.3746519384765876,5903.535974716591
1.164,0.28730852649738137,5897.7280083286005
1.168,0.1245961230181098,5897.981049321654
1.172,-0.09298820465994481,5908.008519183783
1.176,-0.3319483827968171,5907.678042333867
1.18,-0.5522523588554663,5909.368015898298
1.184,-0.7161125649155999,5905.658136722053
1.188,-0.7966363472564176,5908.505205530781
1.192,-0.7839643398890361,5894.308787083851
1.196,-0.6873225179157151,5906.900136599158
1.2,-0.5324252362921191,5902.876613505232
1.204,-0.3547638033052865,5902.785765745561
1.208,-0.19054227506894814,5897.410147772516
1.212,-0.06799202439318808,5903.900071564616
1.216,-0.0017865740614534445,5902.712809824768
1.22,0.008001496477693326,5909.579805434929
1.224,-0.027140637878587184,5897.52348837313
1.228,-0.08941515303441853,5896.562782758921
1.232,-0.15997864942198578,5903.906076212223
1.236,-0.22264158752310206,5894.098756313212
1.24,-0.2654281358173818,5897.711174146179
1.244,-0.2804549254551276,5901.420524798414
1.248,-0.2633331143461088,5901.513133869475
1.252,-0.21327889868371128,5908.832848646993
1.256,-0.13418653448598764,5899.996347322675
1.26,-0.0357701395688275,5903.299092775376
1.264,0.06653203952286484,5894.428969945303
1.268,0.15363813074438357,5892.918535030933
1.272,0.20667978139446092,5896.39463284956
1.276,0.21171415327449458,5897.681837258372
1.28,0.16399280833284322,5908.076878968068
1.284,0.07027826577077853,5898.368540397753
1.288,-0.05212120930516857,5906.489481715032
1.292,-0.1798837632718824,5903.131154407359
1.296,-0.29037463881665404,5895.960599831714
1.3,-0.3679238405636796,5896.395716403113
1.304,-0.4073084981319039,5902.2131039137685
1.308,-0.4134445114235584,5899.332252314999
1.312,-0.3978266873651329,5893.971019041361
1.316,-0.37328922543094484,5897.352167832711
1.32,-0.34911954806109874,5894.844739022002
1.324,-0.3283755766018367,5893.614518846123
1.328,-0.30825768627910016,5901.872680952703
1.332,-0.28294138178964506,5894.52460710277
1.336,-0.24730538968000007,5903.890288416462
1.34,-0.1999961558131978,5903.453678476605
1.344,-0.14485534853573714,5903.923095324273
1.348,-0.09031869393008168,5905.631603175887
1.352,-0.04695335775898812,5900.535549751058
1.356,-0.0240148693172015,5905.811648353562
1.36,-0.026423651500850114,5899.184530131592
1.364,-0.05336270143837928,5897.547869263185
1.368,-0.09890801181042086,5903.9285824145545
1.372,-0.1542629455931823,5897.61617370271
1.376,-0.21057276132660108,5900.66186570297
1.38,-0.26113429961245876,5898.049162413859
1.384,-0.30233425207707887,5899.48916961064
1.388,-0.33362972592705525,5912.9268055118
1.392,-0.35748763052443727,5904.673521381484
1.396,-0.3797809303386841,5905.922860994052
1.4,-0.41002297740231647,5905.162790371899
1.404,-0.4600191384259825,5897.420870325753
1.408,-0.5397566164560368,5905.22253809366
1.412,-0.6505749869467404,5909.984101569245
1.416,-0.7772907308266175,5901.763225821137
1.42,-0.8822557304762786,5901.686122614082
1.424,-0.9046531919614161,5890.7342930949735
1.428,-0.7674473367572092,5888.90493433352
1.432,-0.39248593891292055,5887.877931912895
1.436,0.2784455431881533,5901.6400300189125
1.44,1.2617709597784277,5900.167450409498
1.444,2.516664012533644,5911.276831014832
1.448,3.9429652559432924,5896.701547685441
1.452,5.396169223582553,5895.747663106024
1.456,6.717101929402372,5895.161799469913
1.46,7.767425358094166,5897.58721913988
1.464,8.45909585783056,5902.187508119207
1.468,8.768485579164194,5906.528700247731
1.472,8.732331153928184,5902.162587578922
1.476,8.429412071212791,5889.504476241005
1.48,7.956100632408087,5895.946822011021
1.484,7.404381551305197,5897.707529971042
1.488,6.847896491577345,5898.661157757146
1.492,6.336953192771765,5903.76169050659
1.496,5.899864519788644,5903.391017671895
1.5,5.546984951337489,5906.256771547382
1.504,5.274956933594405,5896.899852862627
1.508,5.070465452660541,5902.33975700564
1.512,4.914015241036313,5899.990437328458
1.516,4.784342867563939,5899.54297465173
1.52,4.663158789025692,5901.476951895026
1.524,4.538856333054408,5895.132049111629
1.528,4.407698390639369,5905.196818016454
1.532,4.272030202759191,5906.453120988615
1.536,4.136498932705711,5903.267542324689
1.54,4.004136619947326,5894.760620312771
1.544,3.8740662051750694,5901.441763955157
1.548,3.7416930968277566,5895.514816934455
1.552,3.6010227074387395,5900.169973920266
1.556,3.447761843713868,5900.866728024201
1.56,3.281605990070526,5892.56059689398
1.564,3.1067058280648037,5901.537788836659
1.568,2.9303296882770344,5902.952491415118
1.572,2.760555022112685,5900.142830129926
1.576,2.604048296948804,5898.528977488762
1.58,2.46466616245963,5899.874828504713
1.584,2.3430831838867445,5897.869879124515
1.588,2.237291022928735,5907.4904101874445
1.592,2.1436753991744535,5901.082621060456
1.596,2.0583030265628692,5907.518878510039
1.6,1.9780544078919573,5893.977935636586
1.604,1.9014358426640359,5895.042992087271
1.608,1.8291036949401591,5901.116331171198
1.612,1.7640184985509237,5896.397353436792
1.616,1.7108793114309113,5907.46650202924
1.62,1.6745494913466408,5902.064270816928
1.624,1.6576812376238133,5910.7836568026505
1.628,1.6583721192387693,5898.739934821407
1.632,1.669056792550556,5891.49880229226
1.636,1.6775958677674325,5902.2071103985445
1.64,1.670575940039368,5892.672716636049
1.644,1.6376279183905462,5902.880903673641
1.648,1.5749082836355048,5898.639345999932
1.652,1.4862914889737404,5906.331727463003
1.656,1.3819715859334214,5900.085458797089
1.66,1.2751789991753157,5901.377033687157
1.664,1.178117139064311,5895.109210976964
1.668,1.0982748466135814,5899.6077632101305
1.672,1.0362189926779224,5896.352173825865
1.676,0.9856305761348071,5892.650356739968
1.68,0.9355955675660033,5885.174209743741
1.684,0.8743271379796963,5890.83349751872
1.688,0.7930320074467595,5884.84528940397
1.692,0.6887100560507162,5882.612685554828
1.696,0.5651776850396619,5881.942531929066
1.7,0.43225100593803073,5879.290535360896
1.704,0.303501684063247,5870.832560160157
1.708,0.19320655247638324,5887.228405604415
1.712,0.11320005553482922,5873.280483118153
1.716,0.07040516494934779,5875.225441593865
1.72,0.06572242789595996,5877.758565435136
1.724,0.09450791527292217,5871.831750947839
1.728,0.14819921072649506,5864.969487253376
1.732,0.21622314774417004,5862.303378814112
1.736,0.28745726906901276,5872.377393883037
1.74,0.35107546707750054,5862.400737484705
1.744,0.39718696575047485,5858.9510539735065
1.748,0.41785115051157967,5855.2960859939
1.752,0.4086208011305488,5859.715615198525
1.756,0.37012304056586115,5869.458998606955
1.76,0.30900466574983215,5843.149967754197
1.764,0.23788793505970915,5858.026305360878
1.768,0.1741815683522025,5848.27447340822
1.772,0.1374447902710297,5851.867472508076
1.776,0.1450782512771289,5852.1264304319175
1.78,0.206893439404398,5849.426284609659
1.784,0.3202408479770296,5854.761920452901
1.788,0.46794982579580596,5852.737736601284
1.792,0.6206828906932982,5846.421163792289
1.796,0.7436076348137183,5851.183428060991
1.8,0.8054426276247495,5843.272917759017
1.804,0.7868765017701466,5855.05344384313
