时间(s),电压(V),幅值(高频80K)
0.0,-0.9011818871541869,5906.2589020047135
0.004,-0.5689823849584243,5896.034414518282
0.008,-0.26363036389566474,5899.994978157154
0.012,-0.006910645005187312,5896.014302550009
0.016,0.18820227784227397,5897.55757862733
0.02,0.31777317159460716,5893.546160325282
0.024,0.3849383447104294,5899.418031940976
0.028,0.3973365532038419,5899.059072270086
0.032,0.36500792107281715,5888.686713245949
0.036,0.29900824378706525,5883.930696572716
0.04,0.21057360151330484,5905.165305054024
0.044,0.11064080089857403,5900.3751286352135
0.048,0.009518182844909686,5900.174027818137
0.052,-0.0835868790820408,5899.556227282521
0.056,-0.161392632993931,5897.907100657091
0.06,-0.21955193875592058,5896.063214129019
0.064,-0.25732670568555577,5896.925682123013
0.068,-0.2774269158525754,5889.603283155485
0.072,-0.2848371498935596,5899.7050003293125
0.076,-0.2848416957192217,5896.146158864966
0.08,-0.2808392856645738,5897.6597295519205
0.084,-0.2728646589299833,5897.474970318747
0.088,-0.25771267956499727,5903.247313204191
0.092,-0.2309009819409284,5906.211144418569
0.096,-0.18965591612477412,5902.710590757385
0.1,-0.13541331974104767,5894.935745153184
0.104,-0.07455919687712181,5903.411345206407
0.108,-0.017092139910463343,5894.334182499898
0.112,0.026183245200312313,5907.278188649756
0.116,0.04688686093556852,5902.289914227962
0.12,0.0416233124627846,5910.782580899022
0.124,0.012979001445679685,5902.2073556794585
0.128,-0.031415708865892664,5902.112480823308
0.132,-0.08137518901089767,5901.37390476813
0.136,-0.12718579442480563,5900.73650566912
0.14,-0.16200556406073244,5905.161462545925
0.144,-0.1829037157987013,5894.545103760458
0.148,-0.1906123070229059,5908.893158494342
0.152,-0.1886633852731959,5909.603098780124
0.156,-0.1824703664719255,5900.004996026359
0.16,-0.17829335277812575,5901.764781363967
0.164,-0.1817111771542412,5896.037758940611
0.168,-0.195644631155613,5895.727747057326
0.172,-0.2186527714320598,5894.009592404193
0.176,-0.24438513623992333,5902.6216342873
0.18,-0.26260264176887854,5897.355748999146
0.184,-0.2616155522123639,5906.560398595242
0.188,-0.23173275376510422,5906.124148880179
0.192,-0.16919111932206157,5895.464850305
0.196,-0.07961289094040952,5904.935188221338
0.2,0.020575928667301097,5899.477617538427
0.204,0.10630788926593177,5901.904395574539
0.208,0.1498786833630008,5890.743534111055
0.212,0.12911748984258758,5896.783023654656
0.216,0.03481110382330424,5898.787658813348
0.22,-0.12529902239515486,5897.28260869443
0.224,-0.3273075943240031,5893.241443697015
0.228,-0.5365192992018393,5902.395214073576
0.232,-0.7159109787222041,5892.877067231027
0.236,-0.835286577030932,5904.000601292194
0.24,-0.8783555148350054,5901.694081703384
0.244,-0.8455461340005409,5900.481402310926
0.248,-0.7520876847418095,5901.155903218749
0.252,-0.6228932810628961,5897.199408594893
0.256,-0.4866023447481538,5906.130438118603
0.26,-0.37038071709818354,5899.227290927482
0.264,-0.29582645450807316,5903.077610837281
0.268,-0.27579164274860646,5902.883844009962
0.272,-0.3122410918009805,5895.483117864884
0.276,-0.3958096352324712,5897.866741645286
0.28,-0.5078035636603296,5899.938488411307
0.284,-0.6246347238191751,5901.603558450583
0.288,-0.7234562799645741,5908.806138110478
0.292,-0.7871357313092757,5905.931509338574
0.296,-0.8071910072031688,5904.751080493069
0.3,-0.784295273890459,5900.967805095796
0.304,-0.7266132130776626,5899.628568854625
0.308,-0.6465763703588359,5904.85896478086
0.312,-0.5570843174354752,5906.014940845608
0.316,-0.46837135191202955,5904.849990762201
0.32,-0.386490934678636,5895.185511693917
0.324,-0.31358602142785474,5905.1849388468845
0.328,-0.24932067351281753,5899.42425483824
0.332,-0.19248469826350767,5896.564639849861
0.336,-0.14197945831306322,5900.091549187598
0.34,-0.09697671830148023,5895.764523016913
0.344,-0.056654918257354914,5889.973630411793
0.348,-0.02020716046915144,5903.381227550441
0.352,0.012421606154556675,5898.991804003804
0.356,0.039304167207788704,5902.48882355227
0.36,0.05570211198487577,5895.812270162332
0.364,0.05451144430403142,5897.32366610327
0.368,0.02808970916869577,5898.826661733813
0.372,-0.02922027812620491,5893.6413154653055
0.376,-0.11870774853448975,5896.59995086342
0.38,-0.23557071112145464,5900.470659841916
0.384,-0.3682013514032602,5895.717921698097
0.388,-0.4989375646734338,5902.414150825509
0.392,-0.6066620491698573,5889.992638754727
0.396,-0.6710927396509148,5899.041992384389
0.4,-0.6778504913866671,5900.373624384451
0.404,-0.6228405044476636,5902.601583982509
0.408,-0.5144796658013433,5898.621257938058
0.412,-0.3728760419094238,5897.973899520606
0.416,-0.22589757359405316,5897.6743582166
0.42,-0.10289564052501944,5896.541998025111
0.424,-0.027639219807784613,5899.339071485953
0.428,-0.012506501556265518,5902.468469436225
0.432,-0.05569893104508553,5907.206699676144
0.436,-0.1421682257434458,5898.427502968621
0.44,-0.2476968634137386,5897.173960499334
0.444,-0.34481384046345925,5894.377689614065
0.448,-0.40913160564973566,5893.860662744121
0.452,-0.4249111581200376,5902.934573398084
0.456,-0.3887688317113932,5900.2512642931215
0.46,-0.3104578482016574,5893.732833945941
0.464,-0.2101179875602035,5897.260614796692
0.468,-0.11259106884543583,5900.034643478008
0.472,-0.0407476323016048,5895.924159757935
0.476,-0.010173808293022583,5901.614142624692
0.48,-0.026614718925164555,5901.272202777657
0.484,-0.08600464266121344,5896.475559525488
0.488,-0.17595676400905436,5899.237009189982
0.492,-0.2778465172220396,5898.473195285108
0.496,-0.3695183179260946,5909.62489770195
0.5,-0.42902607589338876,5903.553120386627
0.504,-0.4392438605059779,5904.5118130944975
0.508,-0.3922508582814119,5895.199684508601
0.512,-0.2919436975053906,5893.737433245283
0.516,-0.15372943112646176,5900.0130349046085
0.52,-0.001156748173735596,5900.123728593776
0.524,0.1396297621247533,5904.660216782501
0.528,0.24607903761555033,5906.591460356572
0.532,0.3042915329920812,5897.141556043514
0.536,0.3113413215322927,5895.349418645905
0.54,0.2740492042400577,5895.474695324679
0.544,0.20479531171617393,5902.170097689665
0.548,0.11633809843863863,5896.139082390737
0.552,0.01808954136352399,5893.738932618794
0.556,-0.08451285695734573,5907.404576511319
0.56,-0.18765382892769356,5898.579927852752
0.5640000000000001,-0.2856784317239219,5900.554859837532
0.5680000000000001,-0.3690108607571569,5901.802155863691
0.5720000000000001,-0.42498177437777646,5900.700570510736
0.5760000000000001,-0.4413234720219201,5899.236907709897
0.58,-0.4107945462131503,5900.347363639503
0.584,-0.33512683162608603,5899.518800353539
0.588,-0.22687277180615908,5895.559278122625
0.592,-0.10827102897241835,5898.337010189799
0.596,-0.006927278974397874,5903.8212254790005
0.6,0.05089988902499654,5902.242172520739
0.604,0.04752892119821166,5906.491541952173
0.608,-0.02082071698665665,5901.19072076533
0.612,-0.14250097804904924,5898.887643549923
0.616,-0.29319569478388147,5909.302496558008
0.62,-0.4420421729055141,5894.92629687994
0.624,-0.5593417715411333,5898.323102249305
0.628,-0.6237652360022752,5900.491204205832
0.632,-0.6270534425527146,5911.501536786951
0.636,-0.5748954980005426,5893.459895323747
0.64,-0.48394384592001194,5897.974148413481
0.644,-0.37627313155639314,5904.271511640689
0.648,-0.2732973291435775,5901.329473475084
0.652,-0.1910098335388825,5904.262832118808
0.656,-0.1376700408056438,5908.194056750295
0.66,-0.11402449315340994,5898.69498774034
0.664,-0.11521372169795384,5900.786963042933
0.668,-0.1332269050404826,5902.872726389595
0.672,-0.1592019618138211,5904.378144101503
0.676,-0.18536920006602892,5891.449726233918
0.68,-0.20645955757154036,5894.249126050389
0.684,-0.22022768394950953,5907.825184217471
0.6880000000000001,-0.22689579939457405,5906.082373671006
0.6920000000000001,-0.22774826653102884,5898.251014607185
0.6960000000000001,-0.22347317782458892,5907.443974193177
0.7000000000000001,-0.2130668915957903,5895.561780970203
0.704,-0.19402131090689648,5903.992400552077
0.708,-0.16382794052549451,5904.796236979108
0.712,-0.12189537180562646,5902.381788934075
0.716,-0.07066058341352606,5900.400488413431
0.72,-0.015296499593778165,5897.179097143958
0.724,0.03763623879800734,5894.766553802486
0.728,0.08174793226423385,5901.222468255392
0.732,0.11191930334056148,5894.095454072609
0.736,0.12478538558492823,5900.48603899163
0.74,0.11881065544102057,5899.869307110635
0.744,0.09419078962047565,5893.927998819937
0.748,0.05272621791900581,5907.46522444398
0.752,-0.0021828752676430413,5900.893713210712
0.756,-0.06531331272803118,5898.457949607496
0.76,-0.12933180572282257,5893.732098553345
0.764,-0.1849311864444368,5900.695670635097
0.768,-0.22196312355770006,5900.288873868049
0.772,-0.23180757584288056,5905.032188927159
0.776,-0.21041551290022914,5898.734830299838
0.78,-0.16065914314074797,5900.3355848500405
0.784,-0.09264630687930826,5888.898081939933
0.788,-0.02156818023563059,5895.963197072989
0.792,0.036345180605715836,5895.762150324044
0.796,0.06857642426640471,5904.438935313733
0.8,0.0703014933806289,5899.627880514586
0.804,0.04623497767863241,5901.269621116603
0.808,0.009658774814781501,5910.166320462936
0.812,-0.0211158185455911,5894.773453171028
0.8160000000000001,-0.027893183528157124,5901.301690226238
0.8200000000000001,0.002018782263215702,5894.751041202817
0.8240000000000001,0.07171327231072619,5900.299290088804
0.8280000000000001,0.17320149768729343,5903.950892326076
0.8320000000000001,0.2891087055348205,5904.798771066358
0.836,0.3970560517352835,5902.354700308383
0.84,0.4753606248936823,5897.604557317921
0.844,0.50830740337171,5904.744724312151
0.848,0.48939806484926207,5894.986097329298
0.852,0.421672429444982,5904.772946843845
0.856,0.31535365827480655,5893.878435481596
0.86,0.1841719423188788,5900.129945104635
0.864,0.04201742407974704,5903.168509969857
0.868,-0.0991227633582669,5904.968835337162
0.872,-0.23001038844284713,5900.567311944616
0.876,-0.34438483305878437,5888.287145906145
0.88,-0.43899383906779216,5902.286791136592
0.884,-0.5133741131070947,5905.745570567218
0.888,-0.5691498824366449,5899.975839335881
0.892,-0.6088944329994642,5901.093274911486
0.896,-0.6349847174366252,5901.104112097471
0.9,-0.6489752638158508,5905.214652985351
0.904,-0.6517445721466645,5902.346754619244
0.908,-0.6442087700021377,5901.218572112181
0.912,-0.62804988114186,5892.512066321769
0.916,-0.6059163348186735,5894.472791675366
0.92,-0.5809082577462356,5905.430170459536
0.924,-0.5555928872874408,5903.388037381552
0.928,-0.5310388335695001,5899.7240429400645
0.932,-0.5063255477933903,5893.551547255746
0.936,-0.4787578106788839,5902.484376945512
0.94,-0.44473477210218343,5902.817485860627
0.944,-0.40100876819811304,5900.616804561239
0.948,-0.3460143511070138,5894.60546768201
0.952,-0.28104905452582496,5904.498640686315
0.956,-0.21114671986488098,5903.56948285432
0.96,-0.14533200363792162,5897.268694171085
0.964,-0.09580154315332458,5899.904820772091
0.968,-0.07583882606747941,5896.405560669191
0.972,-0.09686059305050723,5901.688959400425
0.976,-0.16536857271009298,5911.958357996911
0.98,-0.28050154385115744,5901.157218438978
0.984,-0.43269336550277493,5908.676940537805
0.988,-0.6039179007860555,5900.05219433883
0.992,-0.7699329198056095,5898.106113266278
0.996,-0.9045237779873229,5894.445049979883
1.0,-0.9850173944517271,5906.64872710311
1.004,-0.9975967363140896,5903.019115791938
1.008,-0.9406195476497906,5892.105124136758
1.012,-0.8246191729346143,5900.827325094192
1.016,-0.6689424082820726,5897.338384158737
1.02,-0.496384967913326,5908.234436558945
1.024,-0.3278399418037914,5902.428768741993
1.028,-0.1786371324667657,5898.66249400356
1.032,-0.05734699055864618,5900.225809770535
1.036,0.033171249780649247,5900.127626237993
1.04,0.09350019552811771,5891.27667628453
1.044,0.12555255181263317,5893.236901308092
1.048,0.1316699050738314,5900.261828979721
1.052,0.11505610822895977,5898.41858879186
1.056,0.08069460650512258,5903.2172187293445
1.06,0.035571326887347314,5905.034899540133
1.064,-0.012397595331711688,5902.610885153737
1.068,-0.0562774451051952,5904.598154388052
1.072,-0.09170327288402441,5906.276972655062
1.076,-0.11720191202374176,5898.438382613034
1.08,-0.13325397775851736,5896.965041685348
1.084,-0.1409757251795786,5902.080412721419
1.088,-0.1414252778783801,5907.428358354317
1.092,-0.13590913805606267,5903.289174530066
1.096,-0.1268282946605469,5894.725435333054
1.1,-0.11818829884443502,5902.261028253884
1.104,-0.1151801661443738,5890.806106540807
1.108,-0.1229129888266152,5896.737795398369
1.112,-0.1448289066681823,5904.122907969133
1.116,-0.18130254864148862,5902.735214162301
1.12,-0.2287548422288021,5903.666171342647
1.124,-0.27961661273807054,5896.775756945245
1.128,-0.3234737068896412,5901.854106146868
1.132,-0.34938713601555865,5895.880073850697
1.136,-0.34879254189653114,5901.210235055658
1.14,-0.3179566408806292,5891.355166638651
1.144,-0.25901932100135405,5896.171119401184
1.148,-0.17918944368637774,5889.7759470450455
1.152,-0.08846651489299531,5895.327089951796
1.156,0.0030455911621728956,5901.942324534023
1.16,0.08701614384901461,5904.761427406031
1.164,0.1573079499704418,5894.809070690199
1.168,0.20921545470468345,5897.645305068166
1.172,0.23842782096772566,5899.858777007374
1.176,0.24062704445670519,5900.657802508499
1.18,0.2121746378264869,5894.179660840428
1.184,0.15177203920577872,5892.416707735052
1.188,0.06249459454073919,5890.174472953957
1.192,-0.046729139939243575,5906.110365719864
1.196,-0.1611534035408105,5898.240305850053
1.2,-0.2622843327758356,5904.296562155472
1.204,-0.3316440394665302,5896.996339818268
1.208,-0.3550935904046592,5899.155111739036
1.212,-0.3263745946948703,5897.30561023158
1.216,-0.24894842385271482,5911.227577877349
1.22,-0.13579817843765804,5893.708653972984
1.224,-0.007275324406994046,5893.701967284942
1.228,0.11263101897473461,5895.857719223281
1.232,0.20089415160806384,5902.853326540066
1.236,0.23987823236740113,5911.662111818648
1.24,0.22051399009926753,5907.555773908029
1.244,0.1436164117806651,5895.890209016659
1.248,0.019418718066152137,5895.812797421174
1.252,-0.13426398605895137,5898.037901265126
1.256,-0.2948899372576381,5899.034850637246
1.26,-0.4387921932772032,5907.240530712773
1.264,-0.5451221870785837,5903.478566231914
1.268,-0.599503291832762,5898.834811544851
1.272,-0.5966310133745021,5899.211718129356
1.276,-0.5411566711026534,5887.797904332036
1.28,-0.44658191659639035,5899.291283935951
1.284,-0.3324309803959118,5895.816425691596
1.288,-0.22035059907578042,5894.132089291451
1.292,-0.12985140051248126,5898.179814785423
1.296,-0.07433346655105905,5904.867170967147
1.3,-0.05815581776629261,5903.180393740972
1.304,-0.07575959786037412,5898.894575036037
1.308,-0.11366691419189745,5895.798904408325
1.312,-0.1551693343294347,5888.719622133637
1.316,-0.18616037583965037,5904.192464334645
1.32,-0.1998010738015433,5886.749154800237
1.324,-0.1980965606976385,5885.6317819957785
1.328,-0.18980711865450306,5895.909622290925
1.332,-0.1857037729424407,5893.60031330058
1.336,-0.1932667140454439,5901.412572175461
1.34,-0.21310417677212243,5898.912982191224
1.344,-0.2385971068810504,5904.902993224523
1.348,-0.2588355346844648,5894.4730126198
1.352,-0.26342510877744246,5894.039296397182
1.356,-0.24697162624015792,5897.314775290625
1.36,-0.21142082836916393,5901.093212374984
1.364,-0.16562498507523385,5901.919065162776
1.368,-0.12269487131523382,5898.06985595172
1.372,-0.09626887132864456,5894.288762593673
1.376,-0.09684544189681624,5894.495414385883
1.38,-0.12913020935832095,5897.875028162885
1.384,-0.19102007282623998,5884.36151209051
1.388,-0.274289038889635,5901.732833867942
1.392,-0.366468598290437,5892.569829645793
1.396,-0.4532033856468546,5901.818741319099
1.4,-0.5205106481587938,5892.881007678608
1.404,-0.5566342762306609,5904.618271200832
1.408,-0.5534832665749596,5892.042287960699
1.412,-0.5078794010501729,5896.669276969274
1.416,-0.4227054105094063,5899.350744228776
1.42,-0.3075247004980753,5897.175425988439
1.424,-0.17788297052317137,5897.791260946176
1.428,-0.0528069022011704,5903.086695011119
1.432,0.04914457410790159,5899.551600615399
1.436,0.11411429117014242,5899.786022381669
1.44,0.1360616519610073,5900.6568096220935
1.444,0.11786113677192851,5903.012685947035
1.448,0.07037025992859504,5899.291094917367
1.452,0.010033374787612952,5892.981111714701
1.456,-0.04437461094813769,5893.683327002383
1.46,-0.07541036541685185,5906.210411449415
1.464,-0.0706042342486221,5898.234609726916
1.468,-0.025581965290262732,5896.4345980451
1.472,0.053985060685978865,5894.450476037263
1.476,0.1524204434538476,5902.46104966005
1.48,0.24672311304337086,5894.485444399148
1.484,0.31173446092899854,5900.2694749871625
1.488,0.3265385267610715,5894.557463521573
1.492,0.2801720652515773,5900.934072088136
1.496,0.1748903722534513,5897.977192189321
1.5,0.026081637766566853,5895.81448407463
1.504,-0.1409721946746315,5902.064788350002
1.508,-0.2963802880707993,5905.446581561318
1.512,-0.41155871583118014,5902.322823463107
1.516,-0.464689490841944,5899.943312273452
1.52,-0.44507708400708595,5904.487120551665
1.524,-0.35582054091612136,5902.478207937621
1.528,-0.21406112048633197,5900.0733141224255
1.532,-0.04819677308479941,5898.929777954962
1.536,0.10791288101881256,5898.152450880632
1.54,0.22273311056583292,5898.077055008043
1.544,0.2747746853490856,5903.598737275191
1.548,0.2577174553129188,5907.89322075192
1.552,0.18112722823615227,5898.935791997264
1.556,0.06670900620492044,5904.554793155248
1.56,-0.05825784725239304,5892.564164097489
1.564,-0.1680135504223718,5904.055781755416
1.568,-0.24408222072803273,5899.576712602069
1.572,-0.27862988828709234,5897.435666104406
1.576,-0.2750230781908041,5898.9217399294985
1.58,-0.2458491330471798,5900.317391746446
1.584,-0.20918146113502203,5900.858750233334
1.588,-0.18396488663226307,5902.1255583855
1.592,-0.18530400200798636,5894.274085454737
1.596,-0.22064940253760243,5903.513424978673
1.6,-0.2881120147594788,5901.560690969114
1.604,-0.37766771934388316,5906.305970066295
1.608,-0.4748389263947006,5912.125454919512
1.612,-0.5653269307765516,5903.675183400128
1.616,-0.6387117479212172,5903.285675955215
1.62,-0.6898978433129884,5900.293119996316
1.624,-0.7181700060041255,5897.9974713644
1.628,-0.7249439248446272,5899.986615427534
1.632,-0.7118630630285875,5897.886543428669
1.636,-0.6803763180540524,5900.697826012362
1.64,-0.6326087394301254,5896.421704676942
1.644,-0.5722541566658677,5897.654815931111
1.648,-0.5043225280323207,5902.665242752761
1.652,-0.4336615344330385,5902.428129687218
1.656,-0.3631428525469948,5900.927851910273
1.66,-0.29258670205612736,5894.818348695252
1.664,-0.21911531567666387,5900.991510124146
1.668,-0.13906625557033322,5901.400197604323
1.672,-0.050967623356239715,5893.425104522961
1.676,0.04153707814263666,5902.618709605413
1.68,0.12824771348667574,5897.279785520893
1.684,0.1935138264230704,5899.537653864219
1.688,0.21977642060381303,5892.568001920456
1.692,0.19211114790682188,5895.394711772259
1.696,0.10194235570072051,5904.684313770811
1.7,-0.05106453735624689,5897.176988357735
1.704,-0.2586636434237047,5905.754510623977
1.708,-0.5042316627364793,5898.846837113015
1.712,-0.7625024059489021,5899.668960622103
1.716,-0.9983719761923634,5899.647548143559
1.72,-1.1653450703260617,5895.383476652053
1.724,-1.2054785036630753,5898.175532425322
1.728,-1.0534313384363816,5900.512789222903
1.732,-0.6465575658086862,5901.190766160063
1.736,0.05932761568056748,5902.195320870756
1.74,1.0720804343883306,5903.050544902297
1.744,2.3495196579221918,5904.37133021883
1.748,3.7966690977988655,5894.830534896974
1.752,5.277960888729719,5902.907826372341
1.756,6.6426645501731265,5898.33478626311
1.76,7.755818325213064,5898.643839307005
1.764,8.524533915061834,5893.133546115878
1.768,8.912199639479638,5911.291560942748
1.772,8.938495323710091,5901.663625399176
1.776,8.667867148872642,5901.496972902195
1.78,8.19153944106035,5901.020341497094
1.784,7.608291211080755,5897.449577021351
1.788,7.0079054191295995,5903.488537316466
1.792,6.459516585046709,5896.0731959581535
1.796,6.0057664879105435,5904.249516657158
