时间(s),电压(V),幅值(高频80K)
0.0,-0.9653571105785024,5901.057642734647
0.004,-0.6819823564272942,5904.491007222189
0.008,-0.424897193726497,5902.482544630595
0.012,-0.21235870731442236,5903.067649544102
0.016,-0.052684823912284184,5896.479174039214
0.02,0.05638933498237748,5898.7544653842215
0.024,0.12516917841101188,5898.917060666595
0.028,0.16743602891353318,5901.922987498605
0.032,0.19541816858637606,5894.17123118455
0.036,0.21598920268114494,5900.19073568168
0.04,0.22950641056724513,5895.971765349027
0.044,0.2316363808468267,5897.71493141379
0.048,0.21701005628004844,5895.0554447484055
0.052,0.18270187865295465,5902.864578605041
0.056,0.13003217414244603,5900.516998457961
0.06,0.06456913465837531,5897.569986443407
0.064,-0.004764413323783799,5909.257587330902
0.068,-0.06673537825609192,5902.854307995024
0.072,-0.10918099449114707,5894.08678755314
0.076,-0.12133783997967129,5897.290744125613
0.08,-0.09703669699731633,5901.619416306216
0.084,-0.03760604204444222,5903.9997053491015
0.088,0.04695803162036388,5896.180166109031
0.092,0.1392359192105532,5901.855646462442
0.096,0.21778023854051373,5893.141495208015
0.1,0.2620326116487018,5895.494545267177
0.104,0.257928923968721,5901.507519612075
0.108,0.20268291694513801,5905.6890656963
0.112,0.1067129419279708,5904.574810538775
0.116,-0.008514885927714483,5900.316175202932
0.12,-0.11603300105177371,5913.379350128619
0.124,-0.19011425516309127,5907.161372339751
0.128,-0.21189977756480738,5912.854536912347
0.132,-0.17257923764679753,5906.838254334754
0.136,-0.07409770782373419,5896.949094322628
0.14,0.0717402224525879,5906.91004789169
0.144,0.2448789592893709,5902.07918381883
0.148,0.41903188179223566,5905.624340806756
0.152,0.5643022534796122,5897.191715715684
0.156,0.6506812429723957,5899.4931001200985
0.16,0.6525333826048507,5894.366712254045
0.164,0.553831924332956,5898.521746722036
0.168,0.3532737081410082,5906.5154851444895
0.172,0.06761478074222742,5898.174298268585
0.176,-0.2687481600299592,5891.718321182854
0.18,-0.609059319300782,5899.565331824738
0.184,-0.9035422922513482,5898.458020277862
0.188,-1.110246325043589,5889.486024813943
0.192,-1.2043729730923984,5897.463532417069
0.196,-1.1836190527155566,5894.024788405332
0.2,-1.0679626842849785,5891.472093277654
0.204,-0.8937236203119159,5898.9870727404
0.208,-0.7038252320106332,5892.021115345579
0.212,-0.5376848006078007,5891.40832195367
0.216,-0.4236878513771671,5898.861021811302
0.22,-0.3753868004313755,5905.029880730349
0.224,-0.39112856443836375,5891.580095733926
0.228,-0.4564054751788379,5894.025981964509
0.232,-0.5482444551359498,5893.639184313703
0.236,-0.6408028951102047,5891.056102787256
0.24,-0.7109702929466593,5898.392338407619
0.244,-0.7425191005032696,5893.339588048607
0.248,-0.7277052192720985,5893.906251079884
0.252,-0.6662988340673115,5897.214225740481
0.256,-0.5631864951352229,5903.863181042527
0.26,-0.42613392768077396,5903.109541392565
0.264,-0.26483440305854095,5899.425744688055
0.268,-0.09135697185937851,5896.600633523175
0.272,0.07887790879988366,5894.044225532385
0.276,0.2269502353708459,5902.293520194015
0.28,0.33221745041348344,5891.924638476008
0.284,0.37616279111246037,5898.281746070537
0.288,0.34720139552355955,5904.925958719129
0.292,0.24447836107215695,5898.634035364429
0.296,0.07893570342407245,5900.482107975749
0.3,-0.12875021283669918,5896.250443020243
0.304,-0.3523425046236489,5906.994386261889
0.308,-0.5648564817382657,5895.332594829716
0.312,-0.742947663415522,5899.24192197198
0.316,-0.8701887284563186,5900.842665903615
0.32,-0.9386523440662896,5904.152994873433
0.324,-0.948579076615855,5904.822223003123
0.328,-0.9066050247786589,5895.727294017097
0.332,-0.823405883663182,5894.342479433783
0.336,-0.7113838218959445,5901.51021883532
0.34,-0.5826472934925521,5906.43634855363
0.344,-0.44744027839367334,5894.62897086376
0.348,-0.3132271330241326,5903.378177950922
0.352,-0.18456281112491224,5904.502199926764
0.356,-0.06370512508244597,5898.210792710468
0.36,0.048211302925120894,5907.575398778951
0.364,0.14971783850695686,5896.634353759733
0.368,0.23768692253080928,5905.214791209424
0.372,0.3067754904284948,5910.483064976884
0.376,0.35031852413686865,5907.573884786374
0.38,0.36270414435194004,5896.874908653486
0.384,0.34205465124999707,5903.508778373611
0.388,0.2914649058051098,5900.851493151838
0.392,0.2179591757995569,5893.036005117651
0.396,0.12998775936249357,5908.556226884462
0.4,0.03522108683355795,5894.177469930678
0.404,-0.0600507094791927,5902.394114096482
0.408,-0.14994312387285227,5895.609550885964
0.412,-0.2277085991979182,5895.952696883041
0.416,-0.28584359165776385,5910.228945365561
0.42,-0.3184619314786495,5898.325030640635
0.424,-0.32517522228661855,5898.015795297188
0.428,-0.3142296289063354,5898.40493539013
0.432,-0.30252016359673056,5895.161283037658
0.436,-0.31152741052636684,5891.161125849988
0.44,-0.36016838863385775,5900.75250943171
0.444,-0.45694736133303915,5903.81248946825
0.448,-0.5942459202109475,5905.182433289759
0.452,-0.7471107205039162,5901.7917607203135
0.456,-0.8776634557504043,5900.2835356413125
0.46,-0.9445419013423019,5904.146807956239
0.464,-0.9148326871443754,5905.77529191476
0.468,-0.774448319296328,5906.819688606047
0.472,-0.5330326262324727,5905.707543653851
0.476,-0.22167173832386558,5903.2724891220105
0.48,0.115304272472822,5897.228339071628
0.484,0.4310500692704585,5899.866559207267
0.488,0.6857032545212848,5893.473818599498
0.492,0.8520964960349857,5902.583961715372
0.496,0.9172029892291869,5900.644639569062
0.5,0.8806275419785176,5904.603532239074
0.504,0.7520809828795332,5896.122143046366
0.508,0.5492347592316078,5911.303442439175
0.512,0.2962903060612829,5899.72918286702
0.516,0.0227323571260845,5897.426563404106
0.52,-0.2385697280596496,5899.875218313113
0.524,-0.4545654611014835,5902.798231727081
0.528,-0.5966453774112366,5903.778291087028
0.532,-0.6459403188339008,5902.846927371791
0.536,-0.5977256391322464,5896.893414976996
0.54,-0.4632250143776272,5904.624189998069
0.544,-0.26795632190290214,5905.880650475513
0.548,-0.047051215072280786,5891.567273772591
0.552,0.16110654415575168,5902.973197321472
0.556,0.3214031504471248,5897.2747770556925
0.56,0.4075319431256302,5899.088503865227
0.5640000000000001,0.405906725980263,5897.068021010727
0.5680000000000001,0.3176068903827867,5897.965995569217
0.5720000000000001,0.15807003362773012,5904.204796803563
0.5760000000000001,-0.04561865604862223,5896.9072262564805
0.58,-0.2595270296676242,5900.931885053318
0.584,-0.4488761503540472,5903.374766670982
0.588,-0.5841239522149129,5889.136237534687
0.592,-0.6461937207662454,5893.887445563601
0.596,-0.6301063950536753,5895.637512115382
0.6,-0.5462880368744204,5894.369222904061
0.604,-0.41887037074219474,5891.965047094758
0.608,-0.2807632261071156,5900.460544573114
0.612,-0.16625636238859434,5895.561009992602
0.616,-0.1029258156141667,5903.018461959459
0.62,-0.10500691469912635,5894.51969037643
0.624,-0.17001422591440307,5904.08448726603
0.628,-0.2795753120715954,5903.279398236621
0.632,-0.404412829666118,5890.400497458204
0.636,-0.5121908157016705,5895.5536828970735
0.64,-0.5758512245291325,5893.635300650478
0.644,-0.579809870335066,5897.637936967521
0.648,-0.5224558371044268,5905.849974048282
0.652,-0.41526258417162165,5898.200178380959
0.656,-0.27995710411479663,5899.914828745112
0.66,-0.14474940252255042,5894.924773206983
0.664,-0.039634528794951315,5908.13040320377
0.668,0.009239079328996163,5900.76505899874
0.672,-0.014741465367681759,5894.721373950806
0.676,-0.11440455066239433,5899.653912217771
0.68,-0.27735046955409903,5898.470600295293
0.684,-0.47801887246152547,5904.996327818443
0.6880000000000001,-0.6829035934669402,5899.173563956854
0.6920000000000001,-0.8574262225163165,5902.238942458776
0.6960000000000001,-0.9726327685587379,5904.409957718419
0.7000000000000001,-1.0104912850534522,5897.817200311315
0.704,-0.967229106846695,5903.793656040954
0.708,-0.8542037580393916,5893.426952704966
0.712,-0.6957065893514981,5896.116457491844
0.716,-0.5235713165621831,5895.600232783411
0.72,-0.36957739959909486,5902.594377284067
0.724,-0.2577832874851988,5900.878461814533
0.728,-0.19922549557475072,5900.031507110799
0.732,-0.19049364981047062,5898.292562891785
0.736,-0.2161085174091698,5890.225348844455
0.74,-0.25344871065319297,5895.969499621927
0.744,-0.2787392513153818,5900.894440441497
0.748,-0.2729006194564124,5899.959196265462
0.752,-0.22616023297184257,5896.110756714042
0.756,-0.14025863383856327,5897.046843317969
0.76,-0.027454994200206483,5901.354996140963
0.764,0.09336133901349694,5906.068896871077
0.768,0.20190530717831837,5892.388875794329
0.772,0.28109594715888736,5901.280611639465
0.776,0.31969203192106366,5897.37175466694
0.78,0.31276799828719054,5904.180956483655
0.784,0.26069457770028726,5899.395888351788
0.788,0.16756640129898678,5897.590562171522
0.792,0.039851548263061955,5895.36587963603
0.796,-0.11435655863935028,5899.146898212
0.8,-0.28554911778088515,5896.766442522573
0.804,-0.4627894094600422,5895.063677065948
0.808,-0.633798341342563,5898.69586527918
0.812,-0.7854564018660849,5897.00365613247
0.8160000000000001,-0.9050372111686589,5896.796482999098
0.8200000000000001,-0.982195251252972,5897.749123254775
0.8240000000000001,-1.0111905371342744,5896.936373004508
0.8280000000000001,-0.992461218425871,5896.476696354142
0.8320000000000001,-0.9327076224542307,5894.936625283005
0.836,-0.8431296058529182,5901.768816048959
0.84,-0.7362568735666132,5904.614771704961
0.844,-0.6225554234709411,5898.337942295679
0.848,-0.5081189255219734,5901.1459907506
0.852,-0.39415319491449974,5904.201084305553
0.856,-0.2781830333335843,5903.237111589605
0.86,-0.15640591109111993,5901.872361909105
0.864,-0.026297708213848147,5895.2123950142695
0.868,0.11159516661871785,5910.283647064641
0.872,0.2534088323776688,5896.777825970999
0.876,0.3930881792809766,5893.07166536716
0.88,0.5238839328832664,5893.18321590867
0.884,0.6391129917064762,5895.258804881011
0.888,0.731691907417914,5903.8195823515525
0.892,0.7928795921604889,5902.879587103247
0.896,0.8114958389564128,5904.5914000242965
0.9,0.7751376824442915,5894.43707973399
0.904,0.674056597770636,5894.416139375114
0.908,0.5065326136337928,5896.940079300356
0.912,0.2830460041261825,5898.010281147775
0.916,0.026618256849454014,5906.0881641686365
0.92,-0.2315722562772579,5906.852706342584
0.924,-0.45991733178773786,5894.529403051836
0.928,-0.634518838780154,5893.315583914056
0.932,-0.7446565953437688,5900.318742686819
0.936,-0.7936998957557166,5902.735256278348
0.94,-0.7956060260856447,5895.488180755924
0.944,-0.769010798845771,5895.074118269221
0.948,-0.7315142156176571,5898.075177905873
0.952,-0.6958693237144568,5909.833207195899
0.956,-0.66834172615409,5898.526147671478
0.96,-0.6486645012095953,5892.297245190047
0.964,-0.6310783686333561,5901.396685524294
0.968,-0.6063551051911302,5891.558994495604
0.972,-0.5647324208096792,5891.271166150495
0.976,-0.49920810954108863,5897.930587918487
0.98,-0.40818514638655845,5900.360309101684
0.984,-0.29655896277857,5901.663155207236
0.988,-0.17497207350235677,5906.707637444985
0.992,-0.057708112720306105,5895.58318276404
0.996,0.03992038447160048,5890.305451924458
1.0,0.10407038813571022,5884.7465555583
1.004,0.12466781024581046,5893.651752216874
1.008,0.09758567713069564,5899.748805798903
1.012,0.026396142852316215,5905.849372351105
1.016,-0.07700041815106762,5898.67076335564
1.02,-0.19351375386683553,5896.3963243232965
1.024,-0.2999883629706617,5895.343140767507
1.028,-0.3739347507816066,5898.065665239845
1.032,-0.3988267025180444,5897.821495832267
1.036,-0.368435060620509,5906.692393435862
1.04,-0.28868468845817924,5896.6441603339445
1.044,-0.17617426150940427,5900.796456247118
1.048,-0.05356674765480676,5910.769845723058
1.052,0.0568717318955104,5895.387342671485
1.056,0.1395319235916226,5900.701923495428
1.06,0.1892169213974818,5901.830253023322
1.064,0.21076320726122633,5897.884390003392
1.068,0.21460449209062857,5905.911758180337
1.072,0.21032003663557017,5900.949631306175
1.076,0.20125615077285108,5898.886111744192
1.08,0.18279166851619377,5890.614425183931
1.084,0.14497576063747836,5907.349059707827
1.088,0.07810036210197575,5897.653728233744
1.092,-0.021549804240139723,5901.495471583311
1.096,-0.14839803756917014,5902.760671788411
1.1,-0.28795879187778994,5906.446045463295
1.104,-0.42027036034482224,5904.799100623862
1.108,-0.5245255672964765,5896.488203375485
1.112,-0.5831709458676482,5899.332806285711
1.116,-0.5848325761831306,5904.950077779857
1.12,-0.5263494947528552,5896.822206738651
1.124,-0.4141296168255278,5894.6980695392485
1.128,-0.26424076174418704,5887.887665263677
1.132,-0.10021035892073131,5903.276873261098
1.136,0.05175075819237567,5902.833156634857
1.14,0.16892180805303575,5899.413611875915
1.144,0.23756387501928403,5903.177845622433
1.148,0.25593964179605033,5904.675881595903
1.152,0.23407529595926602,5906.44539350708
1.156,0.19055241865352682,5896.517284521037
1.16,0.147433751368142,5904.527131903693
1.164,0.12473138197146844,5896.121142855625
1.168,0.13558131360145423,5909.729974179807
1.172,0.18292078076994217,5908.026790696813
1.176,0.25829052709918593,5908.733657719591
1.18,0.34314446457277253,5906.989395960669
1.184,0.4125794209571877,5903.884880276147
1.188,0.4409788480351046,5895.102761782858
1.192,0.40867438825936847,5899.287155343828
1.196,0.30809833044254603,5900.752014025049
1.2,0.14739265665645002,5899.281245451293
1.204,-0.05025567854623319,5905.174485494671
1.208,-0.25202587064885296,5904.175867342948
1.212,-0.42425108318637395,5906.318603261809
1.216,-0.5415281218711876,5897.862242040047
1.22,-0.5926846574250134,5906.221776759581
1.224,-0.5816488661522284,5901.306139993095
1.228,-0.5238597153106086,5899.037849868024
1.232,-0.4407118292092746,5902.325859722483
1.236,-0.3545135384419983,5898.538926801489
1.24,-0.2850708812040926,5895.625892453446
1.244,-0.24768485988821978,5899.1300049093325
1.248,-0.25187832213850214,5899.603013761336
1.252,-0.3004064864446908,5907.70021484595
1.256,-0.3885939554470182,5896.995663288479
1.26,-0.5044415942728734,5898.315671757679
1.264,-0.6300009602568433,5885.415371641043
1.268,-0.7441572135681808,5900.4332649156895
1.272,-0.8264807392735611,5901.266862681528
1.276,-0.8614921011591685,5898.290706102709
1.28,-0.8424319486040207,5898.470487095639
1.284,-0.7733508521396141,5890.138574192748
1.288,-0.6684510941153701,5897.624769519654
1.292,-0.5484915649429344,5895.575348517196
1.296,-0.43530645920678546,5899.745419730675
1.3,-0.3462665217112904,5900.974526822148
1.304,-0.290371543840779,5893.928264513629
1.308,-0.26679065876139046,5903.689977540046
1.312,-0.2657079604742944,5898.168086873055
1.316,-0.2708968146482024,5902.618893911017
1.32,-0.26354479888350507,5905.904458773514
1.324,-0.2269154032313128,5898.925445012789
1.328,-0.15112355906612507,5898.624239234717
1.332,-0.03695111864826838,5898.213625538479
1.336,0.10242140850878874,5903.169277689659
1.34,0.24268443255902114,5895.494920093749
1.344,0.3530059794895706,5904.564239805881
1.348,0.40316853828193094,5893.181808239527
1.352,0.3712565192509437,5898.8627427855445
1.356,0.24958872399510607,5903.901686223603
1.36,0.04728016469739173,5902.654201931913
1.364,-0.21101440947405625,5902.125343441238
1.368,-0.48956759509181624,5908.334148054726
1.372,-0.7480705550633345,5904.539169326255
1.376,-0.9488835814488984,5898.449889357611
1.38,-1.0638804935104726,5899.359534076909
1.384,-1.0797099614451526,5890.406240543054
1.388,-1.0002660145269504,5902.124784344621
1.392,-0.8454784673653521,5898.053782306032
1.396,-0.6464060327451271,5893.676805014742
1.4,-0.4377427110060716,5900.556216223238
1.404,-0.24972540730784246,5904.154692494829
1.408,-0.10177135350797167,5908.409272488076
1.412,0.00024112748399811619,5895.639169828697
1.416,0.062416885855884195,5894.118239882517
1.42,0.09798180664066544,5913.816946187648
1.424,0.12107652873707639,5901.757395376815
1.428,0.1412650063309196,5891.422839423907
1.432,0.16035463859013108,5894.228423222658
1.436,0.17233990061966012,5902.934948897209
1.44,0.1662817102722564,5893.740486240653
1.444,0.13095572350358306,5898.48240508803
1.448,0.05944507822784756,5902.49306883513
1.452,-0.04811778857014306,5896.626897425421
1.456,-0.18451286634332742,5899.301331609174
1.46,-0.33752710055135937,5898.533701081465
1.464,-0.4926758381698511,5892.021063508152
1.468,-0.6352460698356751,5895.006272119327
1.472,-0.7514610428264265,5895.317489129797
1.476,-0.8295733581979543,5902.500435826318
1.48,-0.8615835174762208,5906.390742051721
1.484,-0.8451787589222297,5891.4372850566215
1.488,-0.7847668561803797,5891.980477992448
1.492,-0.6910367905898025,5898.960332846058
1.496,-0.5794979978047946,5896.40335211806
1.5,-0.4686392813975364,5911.890775738357
1.504,-0.37767261523151696,5897.600886341062
1.508,-0.3233445106708243,5902.769423886489
1.512,-0.31587747275436373,5903.795135528425
1.516,-0.3555476518230435,5902.27647168819
1.52,-0.43231271129480425,5892.250044785622
1.524,-0.5297825034906123,5902.733294773536
1.528,-0.6319613946629102,5900.728300840617
1.532,-0.7287907678643986,5903.0901666655
1.536,-0.8165336474188093,5899.653738852893
1.54,-0.891569263099935,5902.905793381872
1.544,-0.9398865116354955,5902.64627458679
1.548,-0.9276604016596354,5904.417333540029
1.552,-0.7990645175145585,5898.997430536414
1.556,-0.48518974014821153,5896.758415738758
1.56,0.07660047903712035,5899.617888203182
1.564,0.9184952927210275,5895.05705083334
1.568,2.022141397469194,5903.941810587414
1.572,3.3114615373211613,5904.802502156032
1.576,4.6631389790243585,5895.309910529941
1.58,5.932510581882909,5901.858934317347
1.584,6.985940120588317,5896.212736127742
1.588,7.728490755380114,5897.276810555803
1.592,8.119205404461924,5895.353001378368
1.596,8.172419119144426,5894.451646221025
1.6,7.948019147811276,5894.488988873556
1.604,7.534995180779476,5897.268462183762
1.608,7.03223760412122,5905.251739017561
1.612,6.529989217457741,5898.83580621115
1.616,6.095172541537728,5900.315788775808
1.62,5.763286831865349,5905.77212255572
1.624,5.537950597968621,5897.094686077266
1.628,5.396960728014185,5902.261992244215
1.632,5.302231608542255,5904.641492009949
1.636,5.210818718156457,5899.948961784152
1.64,5.084968285363058,5902.302031390747
1.644,4.8998570099990015,5903.7145514435
1.648,4.647994054455343,5898.226743588884
1.652,4.339590002853865,5900.5451852790175
1.656,3.9990089948477863,5890.911336182808
1.66,3.65837734131797,5899.942397084759
1.664,3.3499266129459015,5895.163141400336
1.668,3.098723087008919,5901.930147040767
1.672,2.917441621913326,5905.442677898173
1.676,2.8046403489610423,5896.933616679298
1.68,2.7470336055098437,5902.034165464812
1.684,2.7246241559089404,5895.16634540027
1.688,2.7163627101736165,5901.192098596839
1.692,2.704271319224924,5893.7192086221785
1.696,2.6753788748717056,5893.374723404152
1.7,2.622139703961193,5896.85113887018
1.704,2.542394906202347,5904.714052736004
1.708,2.4393871135975824,5896.110153852163
1.712,2.321368757998785,5901.137348124202
1.716,2.199805300142337,5903.886180872641
1.72,2.085857431614266,5903.77816454947
1.724,1.9864278643130446,5896.0265550182185
1.728,1.9020385071154577,5897.977022620546
1.732,1.828017018661214,5899.323778697696
1.736,1.7585022754428337,5893.674354402375
1.74,1.6911666791528372,5894.332510021947
1.744,1.630182842372805,5901.108128309002
1.748,1.5856520097883293,5897.340540138401
1.752,1.5690483400787207,5901.866953773958
1.756,1.5860945703452518,5896.854903744198
1.76,1.6304370013757814,5900.764187057504
1.764,1.6821825186856316,5896.46833198736
1.768,1.7134630659895993,5902.99127693571
1.772,1.6992671988624084,5903.806708607637
1.776,1.6284891097524903,5896.361307223287
1.78,1.5098202654368988,5906.881161270845
1.784,1.3696378282837414,5899.210343107865
1.788,1.242674503698424,5894.207215060225
1.792,1.1593255208444129,5894.120831201575
1.796,1.1347716843450077,5894.278880485656
1.8,1.1640645414036133,5887.219788021487
1.804,1.2245391572767976,5885.469900105274
1.808,1.2840191476310543,5889.983716343185
1.812,1.3116079972266474,5883.330907321422
