时间(s),电压(V),幅值(高频80K)
0.0,0.32237144890791414,5898.876569237709
0.004,0.46993017722490005,5903.308325326118
0.008,0.5854544063003458,5910.8202762228975
0.012,0.6444804684730875,5897.505638524471
0.016,0.6307323620656061,5904.393598142485
0.02,0.539682653149851,5902.337816461255
0.024,0.38134950631530423,5895.576743438367
0.028,0.1805852359747546,5897.246305446076
0.032,-0.02703805871223305,5912.386168286991
0.036,-0.20394559591590325,5899.117116888611
0.04,-0.3213109666072392,5899.324756552475
0.044,-0.36760333852422,5905.120879130566
0.048,-0.35155121621099655,5905.00352854584
0.052,-0.2987549038052013,5901.134737191718
0.056,-0.2435781059418576,5895.661364055957
0.06,-0.21907446560471835,5899.701656073132
0.064,-0.24787825627529994,5899.503724853528
0.068,-0.33660371309414383,5896.73810144755
0.072,-0.4751641175797796,5910.158752454173
0.076,-0.6406124932894793,5898.081996686975
0.08,-0.8035292659974808,5910.362440832976
0.084,-0.9346352785752833,5901.463620156118
0.088,-1.0102280044454435,5902.285836000866
0.092,-1.0161724510640762,5904.140607274254
0.096,-0.9504046450379052,5894.525788078328
0.1,-0.8233093112104386,5901.861570681856
0.104,-0.6551611294915871,5895.640943318482
0.108,-0.47087365660062425,5902.885410936708
0.112,-0.2938207709564431,5902.768773106016
0.116,-0.14106682480940955,5897.5451503992
0.12,-0.021513330987184092,5898.058061696046
0.124,0.06300750792087315,5905.972717100191
0.128,0.11487570528497466,5899.949588830539
0.132,0.13776962403196086,5902.60938313606
0.136,0.1351086687886775,5896.178830183305
0.14,0.11025589151242804,5901.428292341456
0.144,0.06770590007025776,5898.717562072262
0.148,0.01392295869844075,5898.072145150981
0.152,-0.04306935798943116,5899.921631183373
0.156,-0.09517984576961587,5907.582476551043
0.16,-0.13578498723663862,5891.296014731919
0.164,-0.16028314867504803,5903.043721075834
0.168,-0.16555550103905883,5898.41240462963
0.172,-0.14920487286633072,5898.513459091717
0.176,-0.10953842012212248,5898.925721621459
0.18,-0.04650870014028338,5898.906944282483
0.184,0.03686452069220749,5895.324879759444
0.188,0.13324757931289766,5894.79821259173
0.192,0.23055574632864298,5890.431861067547
0.196,0.31292894953812295,5900.750848432614
0.2,0.3634619061324905,5893.472329959849
0.204,0.36842184524896815,5900.505424311422
0.208,0.32189008206156294,5896.587388200287
0.212,0.22908071409570344,5906.469372375144
0.216,0.10652897826581875,5900.092535201372
0.22,-0.02164918779806307,5901.376931119489
0.224,-0.13044492598288082,5903.413614112445
0.228,-0.20111848942180643,5901.159888526507
0.232,-0.22608122563095168,5909.698193396484
0.236,-0.20981175522989431,5902.934993627469
0.24,-0.16594164882840928,5894.616715048323
0.244,-0.11216536738942248,5903.193870202523
0.248,-0.06500063113078626,5898.989439551575
0.252,-0.03580680518124672,5895.04699988694
0.256,-0.02874216693407558,5909.190754574494
0.26,-0.040966942263437264,5911.649740065705
0.264,-0.06506741467850798,5897.917624400183
0.268,-0.09304107650800159,5895.695149359943
0.272,-0.12040341650161443,5902.583865407121
0.276,-0.14853096207543015,5905.887624052491
0.28,-0.1837560849894866,5910.941912062503
0.284,-0.23325688328872893,5897.47004619161
0.288,-0.2998706114508024,5909.854260701152
0.292,-0.37901728864640344,5893.780651563325
0.296,-0.4596933080418812,5899.275551195665
0.3,-0.528739101621173,5901.950098812717
0.304,-0.5756065555126321,5896.332766011278
0.308,-0.5950849959880997,5888.029869400624
0.312,-0.5872387896182899,5905.344546048951
0.316,-0.5555745347083414,5898.402993901619
0.32,-0.5050764722543587,5905.64704858504
0.324,-0.4411317583450802,5894.843664335584
0.328,-0.3693689565520539,5896.9771492971295
0.332,-0.29593589166675693,5902.39232306265
0.336,-0.22771166549621552,5904.373338779373
0.34,-0.17194332032214085,5893.07563614426
0.344,-0.13494516779422058,5908.614543487423
0.348,-0.12009243075335774,5896.534183389987
0.352,-0.1260163233497442,5895.216153199065
0.356,-0.1460500810668901,5896.214448179458
0.36,-0.16951734953440795,5903.105847038088
0.364,-0.18470893786452247,5905.27453725453
0.368,-0.18260917086099002,5899.766902238253
0.372,-0.1598976642792424,5909.47838010304
0.376,-0.1198951621377079,5902.17249715694
0.38,-0.0711227209056108,5916.857966528183
0.384,-0.024453176684678977,5902.052728414872
0.388,0.009601667157219006,5896.903529184571
0.392,0.022562864605205363,5901.0015773887135
0.396,0.008782338415326144,5893.812726357437
0.4,-0.03401199092814202,5899.184642171183
0.404,-0.10413581594626273,5898.596165118279
0.408,-0.1956144331090655,5903.162533074695
0.412,-0.29864422642487803,5900.297047827214
0.416,-0.40111676273397073,5896.442519296311
0.42,-0.4908566382416144,5903.7280921349175
0.424,-0.557856487090183,5896.022578253944
0.428,-0.5959411742140479,5890.233986696316
0.432,-0.6036042455450868,5891.54092441686
0.436,-0.5838473714373879,5906.206838322813
0.44,-0.5428498812563063,5893.826373651454
0.444,-0.48759049086639034,5901.240550915988
0.448,-0.42314375687274636,5902.0646456396535
0.452,-0.3508218768108229,5901.683824164593
0.456,-0.2681971318735601,5905.049189046628
0.46,-0.17122258159708412,5905.445396070248
0.464,-0.05749551686637414,5898.084902002667
0.468,0.07103099839301905,5903.183695859233
0.472,0.2071951572729644,5891.501041647728
0.476,0.33969974793453694,5887.778430690347
0.48,0.4551909333506406,5900.410828952935
0.484,0.5404074992822848,5898.298317090829
0.488,0.584080068076564,5900.857413965802
0.492,0.5786576437349393,5907.12493326862
0.496,0.5217483692228564,5889.606226739067
0.5,0.4168175816803599,5891.742247139868
0.504,0.27280512044496996,5899.874681481642
0.508,0.10282068395365018,5905.820875535674
0.512,-0.07767023163671817,5905.168225312094
0.516,-0.25288622460904,5906.597612217662
0.52,-0.4087706729943972,5897.962280110937
0.524,-0.5346587512843414,5902.375531040376
0.528,-0.6242020204132209,5901.740950451047
0.532,-0.6754644821459213,5896.690314704473
0.536,-0.6903543846138839,5896.281134669047
0.54,-0.673620384339279,5901.448637752354
0.544,-0.6316848678744464,5894.289496016143
0.548,-0.5716577421549982,5901.238256232013
0.552,-0.5008313951310872,5901.014854173569
0.556,-0.42677879994344814,5899.706172855902
0.56,-0.3578951597916572,5895.258698145703
0.5640000000000001,-0.3038216091203835,5902.171294957252
0.5680000000000001,-0.2748997773917633,5900.846068662992
0.5720000000000001,-0.2801294863012148,5895.26601073973
0.5760000000000001,-0.32408937667497767,5897.01263972095
0.58,-0.40416029806116693,5900.697362375979
0.584,-0.5094479552628182,5902.426331534375
0.588,-0.6221553076409981,5906.471078532015
0.592,-0.7212323227172376,5892.752050554087
0.596,-0.7872123204156243,5895.299776079934
0.6,-0.8066950384252297,5893.674083891438
0.604,-0.7752853989115339,5898.65880107209
0.608,-0.6985049121850828,5892.6364827721145
0.612,-0.5906420425689594,5904.323015645218
0.616,-0.47172270551328555,5900.731519907603
0.62,-0.3630812375352919,5906.301481147733
0.624,-0.282468574375715,5896.439268624412
0.628,-0.24007655637478206,5900.488294964935
0.632,-0.23686675533898208,5897.50833968141
0.636,-0.2657920671348915,5895.79195800107
0.64,-0.31520091297704494,5896.699306201367
0.644,-0.37276675102837337,5905.421724163529
0.648,-0.4282443484046846,5900.267345348174
0.652,-0.47419110609875753,5907.742756077915
0.656,-0.5050566336908566,5905.53692179341
0.66,-0.5159541951269396,5898.755000118083
0.664,-0.5023398692649007,5901.7845841072985
0.668,-0.46095123090874773,5904.997171763261
0.672,-0.39153870021215254,5903.070003190422
0.676,-0.2986011890954108,5903.073823743274
0.68,-0.19231246751905112,5896.763768456033
0.684,-0.08791921872979375,5896.980697403678
0.6880000000000001,-0.003217294363897689,5900.550051074155
0.6920000000000001,0.045632670779497196,5904.167555319405
0.6960000000000001,0.04882462361550569,5899.441575364558
0.7000000000000001,0.006355483709770216,5903.806009698917
0.704,-0.0715403354962239,5906.338072442147
0.708,-0.16760110839593498,5894.122811019564
0.712,-0.26322335443200834,5891.621772034458
0.716,-0.3440122707340388,5903.793402860049
0.72,-0.4026381993780748,5903.313058525419
0.724,-0.4381364415943187,5897.921026826123
0.728,-0.4528910862983916,5895.508918103453
0.732,-0.4495334388546583,5884.5324022258455
0.736,-0.42945939476100264,5896.154931362316
0.74,-0.3933799071917706,5888.248243597724
0.744,-0.34319652192185074,5906.566979514089
0.748,-0.28397183801560977,5901.719214331631
0.752,-0.2247667611132231,5898.723666397231
0.756,-0.17747072078468554,5905.531265447915
0.76,-0.1535191739173323,5899.98762274279
0.764,-0.1595338076691212,5896.470796141495
0.768,-0.1937944217034949,5905.50885822538
0.772,-0.24527898299622916,5899.610178152786
0.776,-0.29582497079536957,5894.859828420985
0.78,-0.324613112763136,5905.475573378209
0.784,-0.31344763316723195,5910.744044439063
0.788,-0.2513777403447818,5900.651246215931
0.792,-0.13767696371327962,5904.615335425123
0.796,0.01735718506112605,5894.056699718746
0.8,0.19388533959126242,5906.342369967213
0.804,0.3658718406503115,5890.022878408285
0.808,0.5055448555261453,5901.547909676406
0.812,0.5882018276981462,5901.321826808485
0.8160000000000001,0.5965634133596842,5899.244612288678
0.8200000000000001,0.5238575959032031,5903.707175255524
0.8240000000000001,0.3751739257135057,5906.03331348279
0.8280000000000001,0.16714240570621466,5899.71898511599
0.8320000000000001,-0.07392137815203505,5904.206437289271
0.836,-0.31546582245629423,5900.185779748325
0.84,-0.5237167788491233,5894.44783637399
0.844,-0.6697503482452534,5889.658598483515
0.848,-0.7355363964552938,5899.181843685021
0.852,-0.7183629484783344,5903.722132262567
0.856,-0.6319422594999793,5892.532371624456
0.86,-0.5031818909058474,5900.421362558832
0.864,-0.3650409856264022,5906.834844966059
0.868,-0.2474733458039369,5893.971806031622
0.872,-0.16941662891845513,5898.20350293047
0.876,-0.134606336216541,5908.189324516451
0.88,-0.13264022799703826,5904.176738872571
0.884,-0.1446875189346286,5905.57753582341
0.888,-0.1514040055159099,5902.180108508833
0.892,-0.13990288688525707,5895.964128570871
0.896,-0.10742810297920895,5901.086779603645
0.9,-0.06109171185110296,5896.799348557423
0.904,-0.014539074453224726,5892.512379558548
0.908,0.016962671699827032,5893.996118849571
0.912,0.021561857190163673,5905.591899237023
0.916,-0.00524071924163557,5895.042727149564
0.92,-0.05875946475755865,5894.91004105295
0.924,-0.1260365700237856,5902.663902690372
0.928,-0.18947955391083998,5893.402114779656
0.932,-0.23229142389174431,5903.52447270842
0.936,-0.24393176143860715,5896.280231682522
0.94,-0.2236650854337391,5900.146971687513
0.944,-0.18102709431921093,5896.9424046762815
0.948,-0.13336578027545393,5889.497807295972
0.952,-0.10163550774927696,5899.428264833506
0.956,-0.105729985892309,5908.899425833774
0.96,-0.15996403992598576,5902.451273096351
0.964,-0.2686118999955359,5897.561842009212
0.968,-0.4213756241639162,5899.010664260269
0.972,-0.5893579973170741,5902.887327444548
0.976,-0.7230597321272341,5893.525216512744
0.98,-0.754480381005402,5897.569799674878
0.984,-0.6051834649133458,5896.9990136922215
0.988,-0.2010416704620712,5899.296462386083
0.992,0.5078000447093289,5910.030038605051
0.996,1.526193053994959,5904.332263243346
1.0,2.799629216694398,5899.444712179147
1.004,4.213952404356544,5905.529848405807
1.008,5.613521403883286,5893.093989414453
1.012,6.835019039408213,5902.55501468472
1.016,7.7462487719955915,5881.452495821818
1.02,8.276003585478273,5899.377654719153
1.024,8.425040657239617,5905.03894727605
1.028,8.256569739914617,5897.161630471067
1.032,7.872319595892567,5893.333872987234
1.036,7.383938782136057,5905.880526914751
1.04,6.888749222736309,5906.345473788992
1.044,6.45503709257759,5891.896171575497
1.048,6.11753188749068,5898.430087658166
1.052,5.8807732614436725,5894.239445513744
1.056,5.727260178127432,5902.868003114656
1.06,5.627494965375962,5897.412228378876
1.064,5.549384065751403,5899.295599850484
1.068,5.46516335077843,5899.517528421373
1.072,5.355223247210205,5904.683050934621
1.076,5.209296906852064,5899.252743936621
1.08,5.025889336825159,5900.974468807582
1.084,4.810622647702671,5903.621633050198
1.088,4.573771737073419,5905.705492258892
1.092,4.327173628009522,5893.763776538212
1.096,4.081103476269577,5912.256265033675
1.1,3.842156312762739,5896.01452041169
1.104,3.6130000440227157,5905.111404055746
1.108,3.393994593099679,5901.132842212507
1.112,3.185682875131483,5905.510570498585
1.116,2.990759997524744,5905.97743184531
1.12,2.8145325475131653,5907.406066876177
1.124,2.663639741222782,5898.673817405647
1.128,2.543482604427679,5902.928842039265
1.132,2.4554229926842304,5907.586605646142
1.136,2.3951637056623247,5902.21393552259
1.14,2.3531789394115963,5891.973859453276
1.144,2.316820265228985,5900.726639798367
1.148,2.2729543006888093,5900.061941713286
1.152,2.2102371122411495,5899.92247545842
1.156,2.1207551436142538,5905.614766398155
1.16,2.00113753250258,5899.220014070662
1.164,1.8533442413978787,5899.05958075321
1.168,1.685205041496764,5899.791612741973
1.172,1.510395508845398,5895.642993846427
1.176,1.3471471716088776,5911.297735971439
1.18,1.215078906941593,5902.475050369819
1.184,1.1303205217447456,5901.23420343973
1.188,1.100279917621471,5902.096856941001
1.192,1.120231304486837,5908.836727161955
1.196,1.1735594819365347,5902.360227112139
1.2,1.2359342574872565,5899.656897478093
1.204,1.2819288537032256,5905.264465205558
1.208,1.2917192680408924,5902.976617815252
1.212,1.2556769254878462,5905.153432352361
1.216,1.1755110394401485,5894.984518115819
1.22,1.0618557073527204,5898.145416937483
1.224,0.9295110463887786,5897.971316129477
1.228,0.7923632129510454,5891.701845667853
1.232,0.6599297333766379,5894.5062295987
1.236,0.536623176110916,5892.87653927419
1.24,0.4235673319454653,5892.598117019111
1.244,0.32160973697696243,5890.44045330049
1.248,0.2337030471198842,5884.453616134386
1.252,0.16540575814385639,5886.478869002052
1.256,0.1234077188497029,5891.496263570021
1.26,0.11296811634314684,5890.330476583569
1.264,0.1355631065201198,5885.291564315131
1.268,0.18777764498488272,5882.0931821543045
1.272,0.2617196577113145,5881.000849215681
1.276,0.34650828175419285,5883.429697692495
1.28,0.43020468916551863,5886.468534632877
1.284,0.5019033101469801,5880.197592659003
1.288,0.5539728966852666,5878.669792089233
1.292,0.5841134307472884,5877.604022594831
1.296,0.5963346711439886,5877.406462221057
1.3,0.5999783721587608,5873.121667303104
1.304,0.6066851223456804,5883.5038594993375
1.308,0.6262334326711617,5879.936606293287
1.312,0.6628694611827376,5871.48213030181
1.316,0.7136719195799853,5881.67672244533
1.32,0.7695077525496045,5872.321071302144
1.324,0.8177392708883904,5873.004723719699
1.328,0.8451351062190845,5863.34248610599
1.332,0.8400487807327666,5868.138105332539
1.336,0.794100820466754,5874.77661129495
1.34,0.7039655373316571,5868.429233875962
1.344,0.573144334500502,5866.763495326331
1.348,0.4127810276860721,5864.351215881168
1.352,0.2405236435558952,5864.596208206807
1.356,0.07720151259322632,5870.572597904726
1.36,-0.05783160334092664,5867.368014450844
1.364,-0.15112072999191656,5871.640050926694
1.368,-0.19787293266369405,5863.275482202709
1.372,-0.20242247203823782,5877.414710544658
1.376,-0.17653603994691303,5865.397738397446
1.38,-0.13620505735076785,5870.772271412345
1.384,-0.09791355634464875,5862.200866418991
1.388,-0.07541296062574611,5863.663998305599
1.392,-0.07766406962599573,5860.295025261946
1.396,-0.10809727211018094,5863.191365504376
1.4,-0.16495534383066787,5862.351358445053
1.404,-0.24224142454292272,5868.597857166414
1.408,-0.3308084203445957,5859.299612655471
1.412,-0.4194620588839829,5865.653468977562
1.416,-0.4962233608666989,5859.68761018967
1.42,-0.5497363196345656,5860.876724664859
1.424,-0.5705484902104087,5862.678229932829
1.428,-0.5521333191437922,5861.477502209931
1.432,-0.49180200087903286,5858.572003098803
1.436,-0.3914848740406401,5857.642888428875
1.44,-0.2579015986906934,5865.069806352441
1.444,-0.10162749818883564,5858.934026574486
1.448,0.0647743088129836,5859.383116743142
1.452,0.22868497464406692,5863.771576574996
1.456,0.37852936182938185,5851.077088395786
1.46,0.5038471290822158,5859.979122378837
1.464,0.5949947378407614,5851.515026636255
1.468,0.643435978149676,5850.730672385767
1.472,0.6430576188728533,5861.0526786048185
1.476,0.5920665844975641,5850.553660326174
1.48,0.49450061576610516,5850.793142155227
1.484,0.3604996094247869,5863.574526465238
1.488,0.20506691480373426,5852.464461425908
1.492,0.04576192394893845,5857.213129774203
1.496,-0.09981144830573567,5852.171333241358
1.5,-0.2160058302877808,5849.6625497221285
1.504,-0.2904697419326555,5839.118701159249
1.508,-0.31516127508025144,5852.465141917601
1.512,-0.2874109415776867,5855.511568517503
1.516,-0.211031962500563,5854.063610768767
1.52,-0.09702412205053892,5861.768266060767
1.524,0.03677813829295171,5845.00478305716
1.528,0.16758554591249494,5854.989671583204
1.532,0.2710807342045425,5858.26255780711
1.536,0.32585036641241866,5847.2192555437205
1.54,0.3177886883870283,5842.503504444042
1.544,0.24328166343470825,5843.541890409623
1.548,0.1103590779197369,5851.231033473832
1.552,-0.06233930800426025,5854.311912280555
1.556,-0.2485114003212991,5843.454269190475
1.56,-0.4186617277448232,5847.574724458765
1.564,-0.5454887744008897,5844.74093153192
1.568,-0.6091413886170772,5841.153441006362
1.572,-0.6010177741598901,5854.281205999917
1.576,-0.5251111839211849,5845.169267334781
1.58,-0.39674654795234304,5844.249351706273
1.584,-0.23934115521059302,5836.332430748128
1.588,-0.08010456169627045,5844.820364672415
1.592,0.05460436027398829,5845.687919100501
1.596,0.14381300701502878,5851.283241961028
1.6,0.17583301918534203,5843.18036420108
1.604,0.15059427100469686,5847.826448257955
1.608,0.07938111766855242,5854.691506019818
1.612,-0.018370023405332274,5848.019840646715
1.616,-0.1203734417115136,5856.173319569297
1.62,-0.20721223261658805,5844.389748290216
1.624,-0.2667265455917916,5849.266382393729
1.628,-0.2959096162461064,5836.346200798001
1.632,-0.29997584324980087,5846.8712320127
1.636,-0.2890358923915093,5846.0173123382265
1.64,-0.2734995688322046,5841.477155042143
1.644,-0.25990619085370636,5845.44780056548
1.648,-0.248968682061572,5844.997563416373
1.652,-0.23678489525510718,5845.809759138993
1.656,-0.2186060800042646,5843.70027842205
1.66,-0.19313212953310188,5847.9283824658505
1.664,-0.16502294980163895,5849.05227063599
1.668,-0.1444464664437518,5859.958377793521
1.672,-0.14415542159206804,5840.048954771226
1.676,-0.17555001865513664,5836.796469133447
1.68,-0.2450116087156411,5842.812504530683
1.684,-0.3510873304304165,5845.565919222247
1.688,-0.4827728184323804,5844.209462554227
1.692,-0.6195171541468707,5847.946000670303
1.696,-0.7339938760556683,5842.596499859019
1.7,-0.7980940060053588,5842.159455490131
1.704,-0.7909013720922017,5848.4442691428485
1.708,-0.7058184422721087,5847.151850256933
1.712,-0.5538731109999049,5843.847651558589
1.716,-0.3617558357369807,5842.160873737993
1.72,-0.16529404202203168,5843.930351098258
1.724,-0.0006467622395144717,5839.916854439428
1.728,0.10404836991725565,5849.694028349172
1.732,0.13441314123456735,5840.3286727550085
1.736,0.0919507565083318,5844.4416853542
1.74,-0.00727750134223302,5838.843952641876
1.744,-0.1365910738319165,5845.257875433376
1.748,-0.26438978227496834,5845.395816128174
1.752,-0.3608857951508596,5850.926474942813
1.756,-0.404799099737184,5839.397431107227
1.76,-0.38832875917194765,5841.412271461194
1.764,-0.31873097596061445,5846.584665505917
1.768,-0.21588020571025812,5833.523526010317
1.772,-0.10659566765525305,5837.94419347852
1.776,-0.017457334349159775,5843.663247119677
1.78,0.031862614352299756,5843.3029436742745
1.784,0.032903975308334034,5843.199712821519
1.788,-0.010770778252496577,5844.864725189544
1.792,-0.08613829157576759,5844.025551373899
1.796,-0.17532159569974703,5844.639306408637
1.8,-0.26044034429611673,5850.097108302873
1.804,-0.3272710076618542,5846.048249799785
1.808,-0.3671159726328103,5848.811129106998
1.812,-0.37710540205875315,5852.947990015522
