时间(s),电压(V),幅值(高频80K)
0.0,0.32432702552863235,5902.72191761422
0.004,0.18856630827275447,5899.374072799227
0.008,0.0568153066998124,5899.344785245587
0.012,-0.0631370352448069,5897.097912360682
0.016,-0.16355715157845016,5901.564346257038
0.02,-0.23773093208559565,5899.182854677128
0.024,-0.2808622346478883,5905.196969398118
0.028,-0.29062818700039,5905.321337292198
0.032,-0.26771401923445887,5896.5668457932425
0.036,-0.2165892080546705,5901.815487031399
0.04,-0.14611240723853086,5906.450903728494
0.044,-0.0692308747315601,5900.686870712015
0.048,-0.0015073779044527536,5889.508961459544
0.052,0.0411728726132705,5908.265948945763
0.056,0.04524790613232636,5898.638658882416
0.06,0.00222552899903485,5899.732335602967
0.064,-0.08876078551897561,5901.21033215536
0.068,-0.2193349092036633,5908.115532194332
0.072,-0.37225354445611936,5904.489283166515
0.076,-0.5242619909873111,5894.198999249097
0.08,-0.6506553120590475,5895.278104284762
0.084,-0.7299359154599142,5900.7927104349865
0.088,-0.7472948191038097,5897.775547016211
0.092,-0.6966337653308116,5913.474889475709
0.096,-0.5814738914102815,5898.817458037754
0.1,-0.4149841485511529,5897.917046140546
0.104,-0.2189258466071054,5893.425173825311
0.108,-0.021131592008177328,5905.753811044723
0.112,0.14861116321335707,5896.879247721688
0.116,0.263914561990295,5895.125908603578
0.12,0.3074558137599844,5896.239441278822
0.124,0.2754827456289435,5908.696467158414
0.128,0.17953297774530433,5904.032557421876
0.132,0.044384449376446145,5901.279221737936
0.136,-0.09743880788967156,5888.047143305294
0.14,-0.21306579930351122,5894.136372731649
0.144,-0.2766045322091558,5899.353354616494
0.148,-0.274760606417168,5900.47041271317
0.152,-0.2097180628275514,5894.704133280458
0.156,-0.0987211511072337,5902.15050405726
0.16,0.02977613547383492,5895.231106598285
0.164,0.1428153593687659,5894.001449829646
0.168,0.21093581669423844,5899.964423189833
0.172,0.21521828812494556,5900.471619269063
0.176,0.1512870486939507,5904.278731522516
0.18,0.029246514731922975,5907.804282093812
0.184,-0.1300372394367888,5902.919498506636
0.188,-0.30076313816338873,5905.136362084423
0.192,-0.4582546380342991,5897.807389933577
0.196,-0.5838207360615195,5900.134755760765
0.2,-0.6676013171575867,5899.256612749013
0.204,-0.7089624736305307,5901.682014767528
0.208,-0.7144384989791686,5901.676275911799
0.212,-0.6939759908063229,5897.598744601577
0.216,-0.6569476542433424,5894.060623922176
0.22,-0.6095088813392188,5904.077831578901
0.224,-0.5542632011519869,5903.896888130328
0.228,-0.4921524925143452,5896.021167424914
0.232,-0.42539681142109315,5895.32278509038
0.236,-0.35968760127563265,5900.287466954722
0.24,-0.3041516733156049,5897.918860928892
0.244,-0.26888449908826684,5911.680582111211
0.248,-0.2613605739461098,5899.896899101047
0.252,-0.2835806517964016,5898.443776409216
0.256,-0.3310103935332155,5890.583378880038
0.26,-0.39319199757714113,5893.420923886982
0.264,-0.4554893418185627,5894.216328702306
0.268,-0.5016743224583085,5893.609623389284
0.272,-0.5171874638281747,5901.386525144276
0.276,-0.49261349366622653,5899.938251750966
0.28,-0.4265343067761002,5895.6669100027975
0.284,-0.32678432479183184,5903.816735239555
0.288,-0.20937097857941486,5899.752097079669
0.292,-0.09502155868750223,5905.740348384766
0.296,-0.004254230438084797,5900.325448596236
0.3,0.047539164279390325,5904.467125288318
0.304,0.05357704604225233,5895.480989752048
0.308,0.01683594495201148,5903.333920400631
0.312,-0.05132053405712141,5895.967176520943
0.316,-0.1344450781469826,5911.395163759686
0.32,-0.21510267295647145,5902.120420980184
0.324,-0.2785694064132434,5903.464954997794
0.328,-0.3153875483378643,5896.600176821755
0.332,-0.3225952868958706,5903.846535251648
0.336,-0.30374561859945687,5901.94403569697
0.34,-0.26780444892444577,5894.153940024339
0.344,-0.22692919756755758,5905.558871436727
0.348,-0.1932878571632403,5891.185547277618
0.352,-0.1755497606664366,5897.40553177769
0.356,-0.17609220060660868,5894.10158147219
0.36,-0.1898757687875729,5899.85359817771
0.364,-0.2054009310190624,5901.459890501797
0.368,-0.2075739093687169,5892.748401362882
0.372,-0.1818652532637285,5900.249343396795
0.376,-0.11881210717736555,5903.292016689539
0.38,-0.017748917887266333,5896.051190270467
0.384,0.11130508468170727,5898.683502283507
0.388,0.24842342478658916,5892.152649620378
0.392,0.3674737204539932,5899.979803654464
0.396,0.4421128683871062,5900.755485639314
0.4,0.45255771250951293,5901.29998585505
0.404,0.39115201562996804,5895.351367137425
0.408,0.2649475221296504,5907.795052001005
0.412,0.09437410193480567,5902.709681837308
0.416,-0.09161579428564169,5903.197158847465
0.42,-0.26226135980261117,5896.077974310318
0.424,-0.39134952457045225,5896.532895300925
0.428,-0.4615830979351052,5895.097972457475
0.432,-0.46655324624541317,5891.226114196356
0.436,-0.41073576576603515,5899.801114305217
0.44,-0.30796180774908477,5895.947943694883
0.444,-0.17859987792193732,5903.14871211711
0.448,-0.045805078662889666,5902.248038447466
0.452,0.06848573739636267,5901.796352489153
0.456,0.14704328700505306,5895.058172511797
0.46,0.1797572791100785,5898.34881551269
0.464,0.16469266922309728,5897.720800397211
0.468,0.1077612526882247,5906.261650880675
0.472,0.02116563213886753,5900.757517127085
0.476,-0.0790967280090948,5899.1413422560445
0.48,-0.17623209547528626,5907.145315640006
0.484,-0.2556323357339634,5895.375646339398
0.488,-0.3074842591039104,5890.357228190291
0.492,-0.32878756106396917,5907.260686409198
0.496,-0.32426597357494114,5903.227112584982
0.5,-0.30531859258189964,5898.94410552327
0.504,-0.28659035816827066,5908.086091621473
0.508,-0.280944516889662,5898.650373169152
0.512,-0.29475315753617587,5899.490804634728
0.516,-0.3256814096639649,5892.786886015702
0.52,-0.36418237608776904,5904.260294908228
0.524,-0.39803049649190503,5913.154709923257
0.528,-0.4175371158028905,5897.936096171594
0.532,-0.4189058083687422,5902.8481008729
0.536,-0.40458450161942205,5903.062111826377
0.54,-0.38122754198151754,5910.80402579707
0.544,-0.35678174889010694,5892.753668222708
0.548,-0.338010169963714,5898.834292879798
0.552,-0.32901874011584903,5894.521054282783
0.556,-0.33076002070503735,5903.614911599129
0.56,-0.3413020365919734,5901.774596108171
0.5640000000000001,-0.35662838868281965,5894.045671256722
0.5680000000000001,-0.3717005216408557,5903.43807791419
0.5720000000000001,-0.38151868689910257,5903.990796866468
0.5760000000000001,-0.38197740250845724,5900.604052940673
0.58,-0.3704433027502858,5900.720197298943
0.584,-0.34623014251506834,5896.049878682832
0.588,-0.3112223584471532,5893.38261658181
0.592,-0.2704543797938213,5894.694245057932
0.596,-0.2318712946781761,5897.145751382722
0.6,-0.20460453180202162,5902.5245776365
0.604,-0.19599906457960814,5902.962037009215
0.608,-0.20858699225729865,5896.519083967044
0.612,-0.2385228648787836,5905.702680025915
0.616,-0.2764925682614507,5898.2146279789495
0.62,-0.310977572318554,5899.936579984504
0.624,-0.3324871515063173,5905.201961999174
0.628,-0.336714353541417,5899.63596646458
0.632,-0.32514886944034355,5904.684106150329
0.636,-0.30323427108347256,5898.896121703416
0.64,-0.2775015982517446,5904.552880457257
0.644,-0.25327058082755083,5897.625760349988
0.648,-0.23364878771916786,5898.600049356762
0.652,-0.21958435587468078,5897.71536111399
0.656,-0.21034381684398737,5904.360126509316
0.66,-0.20401362700435496,5907.579650281469
0.664,-0.19798948989208873,5901.652381193896
0.668,-0.18954901039126343,5907.10931405989
0.672,-0.1765496427813582,5899.888038608666
0.676,-0.15823880545475297,5900.034909725271
0.68,-0.13607488126218598,5900.859658828944
0.684,-0.11424202043685495,5888.680656716972
0.6880000000000001,-0.09939593173139825,5894.816020176777
0.6920000000000001,-0.09939828838037364,5900.868091469705
0.6960000000000001,-0.12125727562481622,5900.753206050054
0.7000000000000001,-0.16878566200920375,5895.872046579254
0.704,-0.24053244247072156,5895.86975592859
0.708,-0.32856805396863004,5896.778453113843
0.712,-0.4187319422694874,5892.936415562865
0.716,-0.4927330004878163,5900.350114339551
0.72,-0.5319291194652851,5906.580343863337
0.724,-0.5219493796503426,5893.635056103898
0.728,-0.4568969617818743,5897.637544960637
0.732,-0.34185104273426054,5902.315353177488
0.736,-0.1927674652069449,5893.461640880816
0.74,-0.03359744081823441,5900.19815127026
0.744,0.10862539075460825,5905.590136022196
0.748,0.20920743464475985,5902.942741372962
0.752,0.2501256506663328,5901.077565703964
0.756,0.2223983858096124,5899.639285148704
0.76,0.1266020534899398,5901.448953648596
0.764,-0.02784051617282871,5901.354877784167
0.768,-0.2240754351010483,5904.960909065762
0.772,-0.4398008986917959,5890.647598301708
0.776,-0.6498771806187754,5902.889914842654
0.78,-0.8294025772360221,5893.346620984366
0.784,-0.9567727510945486,5897.410668051577
0.788,-1.0162661685346823,5893.870878832106
0.792,-0.9999908203326503,5892.988992349732
0.796,-0.9091751194710445,5901.341683626732
0.8,-0.7547028923962392,5893.447107905787
0.804,-0.5566697251609961,5899.383820605369
0.808,-0.3426529594859196,5906.717894143478
0.812,-0.1444030362191796,5904.470477927118
0.8160000000000001,0.007032162994880577,5901.595538357142
0.8200000000000001,0.08710498791624775,5903.911518200936
0.8240000000000001,0.08315122519187705,5902.372043652978
0.8280000000000001,-0.00232575105557859,5894.609000038896
0.8320000000000001,-0.1518020645459538,5903.742622061304
0.836,-0.33652288507014244,5907.712396315279
0.84,-0.5228244069521037,5908.24555565524
0.844,-0.6792103794931001,5906.978003675703
0.848,-0.7825453720780836,5891.909186380235
0.852,-0.8221025195220077,5901.797620860592
0.856,-0.800568710980676,5900.796030564104
0.86,-0.7318105246000435,5899.951462262729
0.864,-0.6362735452646842,5898.583905673107
0.868,-0.5356402621006705,5909.479374900718
0.872,-0.4482433012175078,5905.809521905328
0.876,-0.38604598721239386,5902.337695031266
0.88,-0.35342537215035447,5889.624307738671
0.884,-0.3476567814318081,5898.584898424036
0.888,-0.3607136810074403,5892.615417955109
0.892,-0.38180039694101436,5900.625099719385
0.896,-0.40003611892081503,5899.955602993217
0.9,-0.4068044058767938,5902.709261637599
0.904,-0.39735030598445814,5904.778845428121
0.908,-0.3712964585808223,5899.406922421043
0.912,-0.33196457815166236,5900.551584520715
0.916,-0.2847508692496564,5898.457924790045
0.92,-0.23517798875011514,5905.910545231058
0.924,-0.18735791730861176,5896.307908086168
0.928,-0.14335968820753522,5897.558070701628
0.932,-0.10364187001409314,5891.338367412725
0.936,-0.06841327901514968,5903.187852024728
0.94,-0.03933229687665731,5903.414271652852
0.944,-0.020480514111494486,5904.047905123691
0.948,-0.017705783273307615,5894.8750957617785
0.952,-0.036431686326384674,5903.810893329718
0.956,-0.079067706899734,5899.396575953892
0.96,-0.1433136387766272,5902.635825228001
0.964,-0.221963705155474,5889.742804673374
0.968,-0.3040349290688199,5897.640616201068
0.972,-0.37673957031647376,5898.772112690824
0.976,-0.4279132196418303,5907.478435441641
0.98,-0.4485395182922595,5893.944707635604
0.984,-0.4348056694273307,5904.181700207483
0.988,-0.38901854740964914,5900.392679217926
0.992,-0.3190072972852589,5903.086003354231
0.996,-0.23619159142409335,5900.360704605881
1.0,-0.15296910260860602,5907.895955082071
1.004,-0.08020538881533254,5899.244140850071
1.008,-0.025341575531505938,5904.341412108855
1.012,0.008715601791173692,5894.146657283447
1.016,0.023803257341691645,5903.181623572198
1.02,0.025541370892385624,5898.285648757569
1.024,0.02111063723945782,5906.911798892584
1.028,0.016382741222147543,5898.822345986523
1.032,0.01366139281480715,5893.286507329367
1.036,0.011129291411074991,5893.563228704247
1.04,0.004163425147109975,5902.908465611738
1.044,-0.012270901250062659,5894.794023245153
1.048,-0.04130684030564049,5900.035829186543
1.052,-0.08279857514858141,5907.049242587941
1.056,-0.13303300099318197,5906.756866987751
1.06,-0.18517799592162823,5896.158618856378
1.064,-0.23030513291779064,5888.7509802382965
1.068,-0.2593323674281477,5903.860691900134
1.072,-0.2660335201352025,5896.053335945919
1.076,-0.2501567826092908,5903.042552324521
1.08,-0.21885457854563437,5900.2049624772335
1.084,-0.18516066313023202,5896.294751971983
1.088,-0.16380503187523038,5903.686916855319
1.092,-0.16596881953880915,5892.027182588844
1.096,-0.19494635294492466,5906.822780924759
1.1,-0.24426680533729017,5906.431791624006
1.104,-0.2989695766614669,5900.633756909148
1.108,-0.33968076118028073,5905.933974799616
1.112,-0.348244927508146,5903.272748087676
1.116,-0.3132458898354432,5891.937397496206
1.12,-0.23387959560060345,5894.901798310605
1.124,-0.12113523158888889,5910.389420291123
1.128,0.004130793892031174,5902.926907883333
1.132,0.11591098766009991,5897.307776045974
1.136,0.1894130238480558,5904.600261717581
1.14,0.2073176280932199,5891.530479427372
1.144,0.16412513018281763,5900.993209411964
1.148,0.06737333359895269,5906.2594831825445
1.152,-0.06452178655323172,5902.85675966058
1.156,-0.20704032903836145,5902.847714461338
1.16,-0.3354415465484174,5899.4991201874345
1.164,-0.4300011329666197,5900.516069665954
1.168,-0.4792512347349034,5904.686308256766
1.172,-0.48082504229469913,5903.694531691087
1.176,-0.44043780515186365,5903.612547619373
1.18,-0.3698496973484424,5891.991895298363
1.184,-0.2843821365861155,5897.905727713676
1.188,-0.20014181925616004,5890.675169622698
1.192,-0.13093344528096676,5904.143449511136
1.196,-0.0851910484610804,5901.316203904449
1.2,-0.06397907040503745,5900.066674150565
1.204,-0.06134489999640348,5900.590968000774
1.208,-0.06737094192644678,5898.382251279457
1.212,-0.07273292265517285,5896.415611629031
1.216,-0.07264203774770733,5899.163166311002
1.22,-0.06834048239784322,5912.538549389116
1.224,-0.06556027783237414,5898.017990573552
1.228,-0.07085330100054701,5905.7306749655145
1.232,-0.08768894663383604,5894.579414137858
1.236,-0.11419948606925226,5904.645130145455
1.24,-0.14355428001967244,5899.651092217879
1.244,-0.16672202442988254,5899.800020354047
1.248,-0.17635461000223843,5902.34912334013
1.252,-0.1700546464737496,5896.624143837295
1.256,-0.151582986013265,5893.014633651853
1.26,-0.12952072671114917,5895.723492123096
1.264,-0.11407024152276742,5898.12428020488
1.268,-0.1134414841797699,5902.288255660462
1.272,-0.13119852050281217,5903.442480101712
1.276,-0.1652553275941129,5902.875363814575
1.28,-0.20853573640156534,5902.839620398798
1.284,-0.2509030591602131,5895.48364223677
1.288,-0.2817101567698009,5897.851454914134
1.292,-0.292270680135823,5894.980119261793
1.296,-0.27775487391393516,5892.577026524999
1.3,-0.2382351910276908,5907.539869486566
1.304,-0.17866802928720987,5899.325863707912
1.308,-0.10764579351169132,5909.174158124696
1.312,-0.035057190799774075,5901.3790287718
1.316,0.030631119343284212,5898.104967585367
1.32,0.08434667372091602,5898.203481772212
1.324,0.12479533871475375,5892.963258045131
1.328,0.15334651845398675,5905.939202098823
1.332,0.17237211522521517,5898.958728131833
1.336,0.1840833998590775,5900.775196085524
1.34,0.1902247523117541,5900.745524427713
1.344,0.19220813151699506,5903.184578829037
1.348,0.19106864429685522,5900.277028967466
1.352,0.18704245029377978,5906.506031722319
1.356,0.1791767379432258,5907.806719903512
1.36,0.1656115767788635,5902.686551415989
1.364,0.14470736005263105,5894.379652151546
1.368,0.116389075777631,5893.855574641027
1.372,0.08274300125319305,5899.704447970723
1.376,0.04736160039332037,5891.036829155042
1.38,0.013727850605116042,5892.955936437627
1.384,-0.016560329040925734,5896.787837886681
1.388,-0.04491761732285188,5905.413759155393
1.392,-0.07577193597078824,5899.418035925059
1.396,-0.11536907427077396,5901.495602752008
1.4,-0.16966701750295018,5896.329270202791
1.404,-0.24189222102042007,5902.210189147083
1.408,-0.3305016643627266,5906.820614204556
1.412,-0.4282320180259827,5902.977060484002
1.416,-0.5226382936385323,5896.155138919122
1.42,-0.5981903646725785,5901.251968224593
1.424,-0.6395994516802567,5897.545429215876
1.428,-0.6355351387779634,5895.5504064755305
1.432,-0.5815914083904032,5899.277073074081
1.436,-0.48164647302295677,5899.991563103478
1.44,-0.3474228985676117,5898.076810893486
1.444,-0.19652277628857034,5901.122411444139
1.448,-0.049316100720768065,5903.519110896044
1.452,0.07486096189503838,5894.659788648711
1.456,0.16143926860014782,5897.564039707228
1.46,0.20326261096956627,5896.676843512387
1.464,0.20134521646490908,5905.531604128169
1.468,0.16361613235419994,5898.17089385104
1.472,0.10220509542805283,5904.099078510191
1.476,0.030199202405373108,5902.954553108362
1.48,-0.041156733368841514,5899.860635200513
1.484,-0.10416085255582071,5897.636499725199
1.488,-0.1551362296568999,5899.312699998895
1.492,-0.19389238374826542,5894.499870977078
1.496,-0.22235219621573837,5904.157066109963
1.5,-0.242633105230573,5903.322545184718
1.504,-0.2553090652702479,5907.637123978308
1.508,-0.25885627897369257,5904.907075579228
1.512,-0.2508366286046435,5896.333142591476
1.516,-0.23036699648975503,5901.629330359537
1.52,-0.20063864054512215,5897.618710108497
1.524,-0.17025927542878821,5909.084761905708
1.528,-0.1528211256209077,5898.450600053088
1.532,-0.1647012263603406,5897.256349860554
1.536,-0.22123516204608054,5904.780896878082
1.54,-0.33127778853115775,5906.219550066509
1.544,-0.4904331810582403,5901.495905961671
1.548,-0.6742684402937499,5892.889699685381
1.552,-0.8341098756777748,5900.994083616951
1.556,-0.8985129135505255,5891.713062083693
1.56,-0.7825369279596934,5905.48756763041
1.564,-0.4046905476520802,5899.429587505928
1.568,0.2914234897894584,5910.048123798185
1.572,1.3161955963573917,5902.456633792416
1.576,2.620502549319227,5897.172372912834
1.58,4.095649000851444,5900.400306882922
1.584,5.589660670540664,5902.290393138044
1.588,6.937177256333014,5898.808019542028
1.592,7.994204595347101,5904.471313201325
1.596,8.666625052423756,5899.167751774696
1.6,8.924581310301456,5905.396658718188
1.604,8.801154121133678,5898.957090628808
1.608,8.378887264839632,5903.3851025891945
1.612,7.769593467337623,5890.666676738831
1.616,7.092299214602743,5906.264429535241
1.62,6.4529838984333106,5897.253109615276
1.624,5.928986617581182,5897.190817192558
1.628,5.560322407929747,5905.782661076685
1.632,5.348965589889629,5897.731603721681
1.636,5.265433442880792,5909.581753883386
1.64,5.260462697668127,5900.960451899609
1.644,5.278788277327385,5905.275038892694
1.648,5.272017540869983,5899.168711667443
1.652,5.208076731105621,5911.496606930626
1.656,5.075498722915692,5898.738479855967
1.66,4.881914837791488,5901.230890083861
1.664,4.647554771726556,5902.3549852999895
1.668,4.3961347936954285,5898.309285177694
1.672,4.146552506999616,5887.405614583096
1.676,3.908482352751739,5897.06967978335
1.68,3.6830647450534597,5900.101963451961
1.684,3.467308454739965,5900.173535730666
1.688,3.259166294953724,5906.713056324494
1.692,3.0605585389863887,5906.786697445257
1.696,2.8774837420911474,5903.720248935368
1.7,2.7181523722456946,5897.324556755613
1.704,2.5905040759643203,5908.909682609425
1.708,2.499766729358079,5901.288468240638
1.712,2.4461184697439564,5897.269305467605
1.716,2.4227143649958607,5902.546409365016
1.72,2.4149295840282687,5897.433648836314
1.724,2.401848512486775,5900.734993476268
1.728,2.360390036161326,5899.667354716266
1.732,2.2712614442717367,5906.865479321587
1.736,2.1249050346010567,5899.436560512599
1.74,1.9253642591486504,5906.529541989583
1.744,1.6905851906644358,5901.059525212169
1.748,1.4487347367540429,5899.952530733333
1.752,1.2313465153538625,5899.748282307735
1.756,1.0651807808505007,5902.207934771861
1.76,0.9652036587579489,5902.494263582579
1.764,0.9308348802810328,5897.865464699276
1.768,0.9466634158093646,5907.60078698908
1.772,0.9874167830732675,5907.712908751041
1.776,1.025501508093091,5897.011942252329
1.78,1.0385323802212834,5898.053738993118
1.784,1.0144266671119513,5900.406836428001
1.788,0.9528147768524603,5896.445713626753
1.792,0.8631029686037055,5888.5867972169735
1.796,0.7606448673260487,5892.190714248204
1.8,0.6625790692333076,5897.715598756687
