时间(s),电压(V),幅值(高频80K)
0.0,-1.6095746169814615,5897.254401624213
0.004,-1.0619693161054677,5899.903466065653
0.008,-0.5665673644010211,5892.629189815238
0.012,-0.1613535346002168,5905.110592253483
0.016,0.13292093337615346,5896.237791837864
0.02,0.3129202629626172,5892.847463910264
0.024,0.3891846029904672,5906.671916436694
0.028,0.38158265504150596,5913.49175073902
0.032,0.3151315812479328,5898.472160798967
0.036,0.216196722807598,5903.551231522795
0.04,0.10889201864574964,5911.227780038824
0.044,0.011902867263920633,5895.893366718855
0.048,-0.06388560142565967,5894.61052108501
0.052,-0.11652182367923604,5895.90196029367
0.056,-0.15221272262483732,5898.417972640228
0.06,-0.18206633530826294,5904.935270979141
0.064,-0.21683156466808973,5903.831792660564
0.068,-0.2616179803525476,5896.77272057658
0.072,-0.31317388707904276,5906.617172018817
0.076,-0.3612489142110214,5896.202530267838
0.08,-0.39350528670573404,5906.405314427076
0.084,-0.4017106036212371,5896.651682408881
0.088,-0.3864717708639062,5899.989911231461
0.092,-0.35854106941982594,5902.0503416085785
0.096,-0.3360573486538801,5896.18133082955
0.1,-0.3384013839846317,5890.880293147948
0.104,-0.3785982601568681,5898.076819370359
0.108,-0.45719895688870754,5901.467722747287
0.112,-0.5604111885433906,5895.556164231952
0.116,-0.6634300866077217,5907.545510471918
0.12,-0.7375289670080939,5904.90587692038
0.124,-0.7581190485154657,5897.290948565757
0.128,-0.71115799609606,5891.187511360316
0.132,-0.5963943631813134,5904.162334520932
0.136,-0.4271888699257133,5891.510877865205
0.14,-0.22750334579398454,5897.9895023075815
0.144,-0.02699381661655598,5897.520220239799
0.148,0.14475268696572008,5888.925477646738
0.152,0.26375910359080673,5902.693463380199
0.156,0.3160092346458849,5897.811835778878
0.16,0.29993930450831896,5905.904509370685
0.164,0.22666286476079803,5907.773538610841
0.168,0.11762549633333276,5890.807456810599
0.172,-0.00031614745103825104,5908.720223652004
0.176,-0.10156122944389712,5901.944969114322
0.18,-0.16834569427911167,5894.285026997552
0.184,-0.19507963818133778,5897.170662673279
0.188,-0.1890479484673202,5906.003289547532
0.192,-0.1674407682574863,5905.407808323064
0.196,-0.151767196046577,5902.685663412545
0.2,-0.16120690756850792,5898.632707477231
0.204,-0.20661608461670797,5900.789613820986
0.208,-0.28682078937688793,5907.751519055497
0.212,-0.38834811386894724,5899.831216586373
0.216,-0.4888676606395656,5899.681242111043
0.22,-0.5635602267523068,5900.60996373724
0.224,-0.5926719561661634,5897.332241189315
0.228,-0.5679995009517538,5900.685875338134
0.232,-0.49628419352480313,5906.011624889799
0.236,-0.39837421481956775,5896.434618753568
0.24,-0.30415100491341374,5908.172302432122
0.244,-0.2444060249256771,5899.291697075215
0.248,-0.2419623722070144,5898.090621864847
0.252,-0.3048533307034486,5900.0484875762895
0.256,-0.4237745238818312,5911.600194758975
0.26,-0.5744984495259862,5897.183319208893
0.264,-0.7242585540672386,5898.151680600542
0.268,-0.8400107039404442,5896.85378992232
0.272,-0.8962859837404257,5900.641190816215
0.276,-0.8808541277484976,5903.202945086838
0.28,-0.7971063248685656,5895.857785881729
0.284,-0.6626989647288682,5900.551549549025
0.288,-0.5047379027407783,5909.382309261918
0.292,-0.3527146316343593,5899.694445343977
0.296,-0.23122325134459795,5896.026986414448
0.3,-0.1546079532858892,5899.529736029969
0.304,-0.12487884530569943,5898.008423944364
0.308,-0.13306316618090924,5903.04398145094
0.312,-0.16328923275613613,5897.753716968064
0.316,-0.19828901598304802,5902.284230910109
0.32,-0.22456028222376817,5892.788324928436
0.324,-0.23559928386268378,5899.4661054761045
0.328,-0.23256267925324792,5897.092445081362
0.332,-0.22279519100123832,5899.677914618091
0.336,-0.2171783055801023,5900.748740247043
0.34,-0.22710014243324725,5889.941976568498
0.344,-0.26137287178039326,5898.237728889904
0.348,-0.32324335466398607,5898.221887645361
0.352,-0.4081092801993161,5898.853853527925
0.356,-0.5031243640813327,5904.205070060608
0.36,-0.5895713789618228,5906.497040463289
0.364,-0.6476218892150151,5905.299496896063
0.368,-0.6619143149506732,5904.01944468754
0.372,-0.6260689405168274,5901.862123694179
0.376,-0.5446593934841457,5902.320121183587
0.38,-0.431931780518437,5905.974277077012
0.384,-0.30768647089993967,5896.384678739315
0.388,-0.1919164516715431,5904.525351918275
0.392,-0.10026277839507562,5903.967484561275
0.396,-0.04166637389453156,5902.951929893071
0.4,-0.018226216178781538,5902.563132493849
0.404,-0.02626180971518633,5899.673853940483
0.408,-0.05765006221270697,5902.753141026241
0.412,-0.10128847192475271,5899.400650722346
0.416,-0.14500875677853567,5903.70364771947
0.42,-0.17801395412218265,5887.072490909192
0.424,-0.19333140001658167,5897.825775342677
0.428,-0.18936237495438654,5905.3220442313705
0.432,-0.16970385413207054,5906.083693306593
0.436,-0.14113076998342822,5906.6061931322665
0.44,-0.11057000368186716,5907.684859560013
0.444,-0.08238471910571703,5895.176744285203
0.448,-0.05705052808798005,5900.646195865874
0.452,-0.031667770347087065,5899.214138961629
0.456,-0.002072449858346704,5901.274385795467
0.46,0.034318050016598343,5910.180570240403
0.464,0.07617964469469754,5899.458685814517
0.468,0.11754565202046649,5895.29278831478
0.472,0.14897145553379118,5896.366969444851
0.476,0.16011093587745265,5891.390971532991
0.48,0.14283064584172595,5896.793771629164
0.484,0.09401286218367805,5896.793873145756
0.488,0.017452726124815344,5897.847559140079
0.492,-0.07547098796349223,5897.097897397639
0.496,-0.16664399532081312,5895.152594912726
0.5,-0.23403160065214768,5896.31056333991
0.504,-0.2566637575608169,5894.978997469026
0.508,-0.22096406159365123,5902.570362203416
0.512,-0.1263368483204136,5893.871033977458
0.516,0.012468658082800857,5902.872311039553
0.52,0.1676886824872081,5892.9080750538005
0.524,0.3051606396032705,5899.818458111534
0.528,0.39313355428224783,5905.18189454786
0.532,0.4104380967726668,5900.963968740672
0.536,0.35152214055156195,5899.538712810752
0.54,0.2270639189646845,5897.655511105253
0.544,0.06041643387552615,5901.64592085674
0.548,-0.11864245205632691,5898.24365279578
0.552,-0.28079923513898236,5896.854538921301
0.556,-0.40276115450090944,5907.824231426467
0.56,-0.47030932608701037,5903.19118349835
0.5640000000000001,-0.47894346380300773,5899.956231633999
0.5680000000000001,-0.43305473080284457,5893.662242297395
0.5720000000000001,-0.34432609738081027,5898.072882475041
0.5760000000000001,-0.2293063502042358,5895.896032787817
0.58,-0.10597732652698091,5912.135766442099
0.584,0.010120351838367538,5899.6580674382985
0.588,0.10885336898822641,5893.441726608757
0.592,0.18621926183818624,5901.500245479003
0.596,0.24246976507465723,5897.695441338728
0.6,0.27871350390509453,5897.945326286382
0.604,0.2940000451289457,5894.717365131581
0.608,0.28451247456947326,5895.180319022387
0.612,0.24509703054366594,5901.388364902519
0.616,0.17206337024181606,5899.309472945653
0.62,0.06582515853385552,5902.142078482056
0.624,-0.0676115404065389,5894.020983609765
0.628,-0.21671072322378443,5898.1208253884215
0.632,-0.3660108460128264,5891.256352017
0.636,-0.4988936714402719,5903.656589518062
0.64,-0.6007103206238997,5907.304876332587
0.644,-0.6612600448992311,5898.952296998043
0.648,-0.6759560624358648,5909.66438355065
0.652,-0.6456895698089137,5911.012642201906
0.656,-0.575909909116353,5903.861832704972
0.66,-0.4755365023239148,5895.734547281116
0.664,-0.3560902482860041,5901.457369641164
0.668,-0.2310236588395449,5890.976309780193
0.672,-0.11486669027087089,5896.103319318739
0.676,-0.021788441546194574,5905.4270067934185
0.68,0.03640374935841207,5898.725699881129
0.684,0.05225231789128855,5894.824907570918
0.6880000000000001,0.023888953696698426,5899.671198696527
0.6920000000000001,-0.04477053677761005,5898.37157882338
0.6960000000000001,-0.14460498525429083,5897.877884542724
0.7000000000000001,-0.2622902810424771,5898.027082471219
0.704,-0.38171735069644647,5900.1176305585
0.708,-0.4859964127436761,5896.454979178673
0.712,-0.5599553560410455,5901.436743877032
0.716,-0.592599631294374,5905.510423565519
0.72,-0.578832901342417,5905.141658055183
0.724,-0.5200551256053898,5897.500662493712
0.728,-0.4237462850199435,5905.262029104889
0.732,-0.3022649368682643,5902.352513794055
0.736,-0.1708249867763501,5897.414629030205
0.74,-0.04455761042839964,5899.54836753797
0.744,0.06488035431631561,5900.188952953396
0.748,0.1518663039308515,5897.108903205692
0.752,0.21701778005514896,5904.623852168961
0.756,0.2645296407939649,5900.071917337725
0.76,0.2979798508358769,5894.421066773851
0.764,0.3171437555807204,5902.703874195798
0.768,0.31773403977898923,5897.726956022045
0.772,0.29401883180981336,5901.1494637254245
0.776,0.24253689009714158,5896.154354113775
0.78,0.16468469268016847,5900.794567660155
0.784,0.06681874690199338,5896.255837504493
0.788,-0.04186204881058021,5896.864119099932
0.792,-0.15200901464800406,5906.035767957259
0.796,-0.25564688621936393,5898.9328925917125
0.8,-0.34597425945458743,5899.394547887874
0.804,-0.4162507809299804,5892.0575471469065
0.808,-0.45914046858608726,5891.289890753103
0.812,-0.4675103158471516,5899.100349394581
0.8160000000000001,-0.43671128117352215,5896.191148189061
0.8200000000000001,-0.36730510221128193,5899.07983104262
0.8240000000000001,-0.2667140900752464,5893.071568925702
0.8280000000000001,-0.14874870294801157,5907.0845159426935
0.8320000000000001,-0.031062505077656732,5904.36336829005
0.836,0.06848430407363508,5897.816773488651
0.84,0.135335436971216,5911.647397950697
0.844,0.16080559121180005,5905.714244622837
0.848,0.14341281935475722,5903.206569365319
0.852,0.08888725398633184,5901.444324558635
0.856,0.008714307058421987,5902.933839702864
0.86,-0.08277000353020027,5897.24149911573
0.864,-0.17210653122614217,5897.296989934389
0.868,-0.24997535980509464,5896.350891216777
0.872,-0.31263781914398564,5899.974560849654
0.876,-0.3610088550541127,5906.096342808947
0.88,-0.39811203175836696,5901.429095332568
0.884,-0.42653564630452445,5894.913611174058
0.888,-0.4471764630242715,5901.81579775166
0.892,-0.45938399592623497,5906.251401716671
0.896,-0.4618037337902249,5899.210350437094
0.9,-0.4533444173102516,5901.732913171401
0.904,-0.43414333399441185,5898.092205924236
0.908,-0.406444202826794,5899.437858533738
0.912,-0.3750454932682205,5899.941096688814
0.916,-0.3469147123548645,5896.115024841443
0.92,-0.3298481835664071,5900.009173527846
0.924,-0.33052102042819576,5894.614435647844
0.928,-0.35264860292485845,5896.4406244579295
0.932,-0.39596254338777676,5898.200295026923
0.936,-0.45618516507546064,5897.274764909556
0.94,-0.5255617938377375,5892.684986183936
0.944,-0.59343864508434,5896.099926903087
0.948,-0.6469475776993945,5898.713905518587
0.952,-0.6723447046335931,5905.252415610019
0.956,-0.6573559515249864,5899.0202470979775
0.96,-0.5942579182128408,5892.037948441452
0.964,-0.4828552544417863,5901.749829475857
0.968,-0.33220534975037624,5895.289623725243
0.972,-0.16008021612116285,5894.981578135078
0.976,0.010131517274001316,5908.109415680786
0.98,0.15442893395759683,5900.00582965383
0.984,0.2537253099619448,5906.189670767595
0.988,0.2981471477133038,5903.015303021061
0.992,0.28851305478831196,5901.623289910548
0.996,0.23434170718287947,5905.7240351615455
1.0,0.1492204139150425,5890.009851238153
1.004,0.045549695613247156,5901.886940021021
1.008,-0.06912009950775314,5894.195894678216
1.012,-0.19278242484823221,5903.480645492597
1.016,-0.3267265455505341,5898.81689315846
1.02,-0.4716343717835309,5903.705285760692
1.024,-0.6238848703980125,5900.609055556448
1.028,-0.7737330275178984,5896.3865779919
1.032,-0.9062174421590631,5902.918433257456
1.036,-1.004455122106533,5890.732864187807
1.04,-1.0538851319442342,5891.89515463999
1.044,-1.0456842988230552,5896.970416752439
1.048,-0.978234710787425,5895.896658103121
1.052,-0.8566247373968638,5908.425567879005
1.056,-0.6909476141688718,5903.553969835079
1.06,-0.49438900255667234,5897.168945978292
1.064,-0.2819247353108594,5910.691953721861
1.068,-0.06991089309381837,5907.295732953056
1.072,0.12397912272094848,5902.564295031206
1.076,0.28153679751718336,5903.595525433977
1.08,0.38617252391653917,5906.562321684026
1.084,0.4260416179658597,5898.990508173051
1.088,0.39702354784226424,5909.27408449105
1.092,0.30447289179976456,5900.092815685568
1.096,0.1630554818422149,5894.304025842281
1.1,-0.00560586602962644,5902.181501348108
1.104,-0.1772209560961883,5895.126845940687
1.108,-0.33008885619131867,5894.769855334979
1.112,-0.44974625017562414,5897.384347784151
1.116,-0.5313859421883039,5897.525300545969
1.12,-0.5792041774281972,5893.890768337177
1.124,-0.6031410884581816,5899.851519148578
1.128,-0.6144808557936713,5903.594157109387
1.132,-0.621898848577985,5906.338426638051
1.136,-0.6290723995413182,5892.680805441454
1.14,-0.6344476422394792,5898.510259349588
1.144,-0.6331012826608919,5892.577531873795
1.148,-0.6197352953229328,5902.935038888046
1.152,-0.5913342858818276,5913.148947114007
1.156,-0.548453592827674,5909.770285744232
1.16,-0.49501968960771436,5899.76875721885
1.164,-0.43716413869488874,5905.249529868759
1.168,-0.38183360946228917,5897.265781103675
1.172,-0.33581555829240123,5903.352130984877
1.176,-0.30534324429344667,5891.359210094506
1.18,-0.2957977287074575,5904.970712103316
1.184,-0.3108269727946474,5900.710927961109
1.188,-0.35085638266299846,5902.282993003348
1.192,-0.4119770450777975,5895.089521670468
1.196,-0.48642618410369304,5904.408621664815
1.2,-0.5647901909517878,5897.216676216542
1.204,-0.6385955104338336,5901.320104653696
1.208,-0.7016084735165719,5895.34207043081
1.212,-0.7493095073357438,5896.458396848586
1.216,-0.7774849645829717,5909.464769056945
1.22,-0.7813851271404204,5902.308217339285
1.224,-0.7562491441683177,5898.641327920733
1.228,-0.6989198868468044,5910.567016224584
1.232,-0.60956364455953,5889.263909166134
1.236,-0.4925912668909329,5899.103183520034
1.24,-0.3565217980275191,5901.779630792487
1.244,-0.21305042238478544,5894.522259204905
1.248,-0.0756217246131831,5897.846149951415
1.252,0.04233473228717745,5902.240419378906
1.256,0.1293005199434015,5897.774599863263
1.26,0.17731559925325133,5898.863463974108
1.264,0.1830116953488984,5901.923494829652
1.268,0.14794463139352979,5899.165259478919
1.272,0.07838990590526794,5890.520250347693
1.276,-0.015275828710323718,5908.221074731405
1.28,-0.11969164077583985,5895.623182702502
1.284,-0.2202445449639846,5899.825819868189
1.288,-0.303308350690511,5894.526194136733
1.292,-0.3585894172900466,5897.32861672847
1.296,-0.38102433904158534,5897.848023983775
1.3,-0.37179004781969627,5910.619402334607
1.304,-0.3382801066392921,5894.543340052988
1.308,-0.2930393276777127,5908.233390348981
1.312,-0.25164055902969096,5900.276921821412
1.316,-0.22971906932482766,5889.836562350065
1.32,-0.23981241932752617,5890.257242584276
1.324,-0.288813831789766,5901.008886816347
1.328,-0.3765777276855568,5898.77568946568
1.332,-0.49578869732160724,5898.463517847412
1.336,-0.6329269735365973,5899.820945983915
1.34,-0.7701262919668934,5897.238139790051
1.344,-0.8877555065702853,5900.130636840571
1.348,-0.9674582347254765,5903.19780713176
1.352,-0.995186446574598,5897.605977242633
1.356,-0.9636648187885116,5909.333958904056
1.36,-0.8738371122992954,5903.308115650577
1.364,-0.7351204535541666,5902.334463501965
1.368,-0.5645446608070439,5901.561560657909
1.372,-0.3848524067400524,5901.279662192239
1.376,-0.22143642381811987,5897.18481899242
1.38,-0.0980991578687687,5896.432944333551
1.384,-0.03233726057234399,5903.813759836293
1.388,-0.031613741799321096,5902.142434104808
1.392,-0.0920360066710506,5896.606453785495
1.396,-0.1998767277546005,5900.887820814264
1.4,-0.3351306147050827,5902.608328378702
1.404,-0.47565071171087203,5899.115157281616
1.408,-0.600695983193078,5904.260915024607
1.412,-0.6935136624089374,5899.545455129297
1.416,-0.7431809081739249,5887.647472143067
1.42,-0.7459719137831933,5905.067674881112
1.424,-0.7060465272394639,5903.837538030084
1.428,-0.6347849072988897,5902.00889292454
1.432,-0.5482838277407414,5895.565220288378
1.436,-0.4633845659952625,5888.102904444611
1.44,-0.3934858390949959,5892.281749374714
1.444,-0.3458139356653982,5900.590308412633
1.448,-0.32144754397340625,5897.464327879067
1.452,-0.3180148619591064,5896.288562940509
1.456,-0.33324302391734467,5898.522054544491
1.46,-0.36688160727309477,5903.006989445805
1.464,-0.41966917030959333,5908.273788451026
1.468,-0.4901203863560776,5899.813146317982
1.472,-0.5714478042120626,5906.104438026583
1.476,-0.6509455207093732,5900.953219098356
1.48,-0.7127242670943034,5907.619699452657
1.484,-0.742687134068042,5895.175748454665
1.488,-0.7332895533302699,5902.993833764987
1.492,-0.6857732352699155,5898.055137584585
1.496,-0.60907471903686,5903.652594833047
1.5,-0.5164508700347932,5902.300372649675
1.504,-0.42183682282853857,5906.815224299284
1.508,-0.33752654866439047,5902.421621103945
1.512,-0.27340553624468106,5897.98750483633
1.516,-0.2367928831376194,5896.841210710595
1.52,-0.23186021170551932,5903.666382590516
1.524,-0.2584323893801633,5905.060736463627
1.528,-0.3107998267748057,5903.852909490165
1.532,-0.37738659413032616,5896.552901238687
1.536,-0.4418999402438095,5900.294144785054
1.54,-0.48617402317451425,5901.598898590983
1.544,-0.49423210628484326,5902.821160930141
1.548,-0.45632926950326697,5902.281477161115
1.552,-0.37157307847962295,5886.767689243626
1.556,-0.24840138115837748,5896.053178413869
1.56,-0.10307078435935207,5904.814472738932
1.564,0.043308413490944934,5898.9466876973465
1.568,0.1686375192687865,5901.120794411002
1.572,0.2539190606782195,5896.678558705278
1.576,0.2866582744731373,5894.435494598714
1.58,0.2626940175477055,5894.431130561501
1.584,0.1860967018411832,5900.131666056524
1.588,0.06749382015467179,5899.01653169224
1.592,-0.07846314995368348,5899.51829925124
1.596,-0.23586484753731415,5889.702995750255
1.6,-0.38996831450791947,5897.483928945129
1.604,-0.5286819006903076,5907.104386376359
1.608,-0.6428690482206487,5908.952999842048
1.612,-0.7258647885478182,5898.163256024635
1.616,-0.772906795287852,5899.329456167211
1.62,-0.7810070547510413,5901.548670931511
1.624,-0.7494723058901737,5903.639787730348
1.628,-0.6809846010265579,5889.653493281409
1.632,-0.5827447706116003,5897.994987306011
1.636,-0.4667344854490706,5909.928460205385
1.64,-0.3481652841007347,5909.566292558234
1.644,-0.24204055495527282,5896.071435322911
1.648,-0.1590704697370092,5891.48691310945
1.652,-0.10291604327296285,5901.664474180703
1.656,-0.07014222555006963,5904.729449511712
1.66,-0.05269140932202477,5899.0447640981465
1.664,-0.0413913661959698,5895.984167593421
1.668,-0.02889909299816444,5906.427626408473
1.672,-0.011328269959977202,5897.850071567217
1.676,0.011307846159473396,5904.039241422301
1.68,0.035431280516303613,5906.634901802061
1.684,0.054830348974381375,5903.744907592189
1.688,0.06218119302447379,5893.158522024625
1.692,0.05099518072698845,5899.737156867905
1.696,0.017557460171326224,5901.416442539695
1.7,-0.03765126466928005,5902.361982649767
1.704,-0.10940158082365933,5908.2598417287445
1.708,-0.1881561928654978,5893.875833319873
1.712,-0.2615117786902008,5902.565419640513
1.716,-0.3166630630127488,5898.226045086554
1.72,-0.34375101161768973,5888.9055430603785
1.724,-0.3392911617226335,5894.92346513022
1.728,-0.3080516351768936,5900.196211318468
1.732,-0.2618009255530022,5893.821515508592
1.736,-0.21483801840392053,5904.128893955241
1.74,-0.17825095808232655,5891.867660116422
1.744,-0.15579706006763613,5891.773989281579
1.748,-0.14344667497940616,5895.147542496871
1.752,-0.13264400478210558,5907.1922928204895
1.756,-0.11547745797279614,5898.399677102109
1.76,-0.08926984855200924,5898.9644597212455
1.764,-0.05875718516007816,5905.770966900995
1.768,-0.035172576090732745,5903.291053065514
1.772,-0.03236207669706418,5900.453149702407
1.776,-0.06062396989138642,5893.399007969187
1.78,-0.11966454453236283,5903.310823579577
1.784,-0.1926835115967617,5900.232449348348
1.788,-0.24366756103188653,5898.013237928041
1.792,-0.21946270099000878,5903.198442491672
1.796,-0.057383327279700864,5905.778378556008
