时间(s),电压(V),幅值(高频80K)
0.0,-2.684112434145223,5902.2187585240135
0.004,-1.7726806654764071,5888.086643266272
0.008,-0.9627219649580249,5894.814973649764
0.012,-0.3310173258540847,5912.27237166648
0.016,0.08488327400796225,5899.216849582947
0.02,0.2892396712026736,5907.459517292985
0.024,0.3201089787190687,5900.94491524872
0.028,0.23520610699853925,5897.054923792226
0.032,0.09612840213609278,5896.046152563013
0.036,-0.045232026466496274,5899.901946333349
0.04,-0.1550434403193362,5907.087461691558
0.044,-0.21921372187051316,5899.979114050801
0.048,-0.23941489632494503,5905.15578824762
0.052,-0.22645754865263892,5899.517388124544
0.056,-0.19410938853026738,5904.80151071748
0.06,-0.1549084163547957,5897.078161072535
0.064,-0.1180716381368774,5898.017591569352
0.068,-0.08918966797098354,5897.923272477017
0.072,-0.0712579936446907,5901.487519350949
0.076,-0.06609720541985978,5899.668385391463
0.08,-0.07505465721901382,5897.561450104051
0.084,-0.09865735677599795,5896.795120651662
0.088,-0.1359369684685985,5896.65770523243
0.092,-0.18442803375696945,5898.78128595512
0.096,-0.24108867684680557,5907.060050455585
0.1,-0.30335680227201894,5891.000191545253
0.104,-0.36934896145405,5905.250537065443
0.108,-0.4370797595550956,5905.532299621535
0.112,-0.5035318987833604,5901.90320442852
0.116,-0.5644644135602944,5903.96921856398
0.12,-0.6151101395351196,5903.229868931886
0.124,-0.6512001597688604,5902.033886992616
0.128,-0.6697241201334726,5897.255160597524
0.132,-0.6693797363458128,5895.0883428645
0.136,-0.6509942331452625,5911.755999987958
0.14,-0.6178481851953899,5911.206592923754
0.144,-0.5753298845284075,5896.740021662852
0.148,-0.5295016153615306,5895.879420740012
0.152,-0.48491586671078346,5897.839851585123
0.156,-0.4425490470181026,5902.68231957348
0.16,-0.39860275239224463,5896.091173945849
0.164,-0.34463542290274807,5894.013465730569
0.168,-0.26942084258623156,5899.604680234838
0.172,-0.1626707322211132,5904.051633752338
0.176,-0.01987816857351978,5898.0941792420335
0.18,0.1535210956205754,5905.815945000712
0.184,0.3407973584952805,5900.862661651943
0.188,0.5166587502637201,5895.204971214077
0.192,0.6536724143312088,5900.939683735154
0.196,0.7303772532304125,5898.301230783277
0.2,0.7383064665950557,5904.945962427698
0.204,0.6853471003405085,5905.346517185581
0.208,0.5938990707691288,5896.1363760353215
0.212,0.49405788041982684,5889.468897213636
0.216,0.41411630245586856,5908.597059258519
0.22,0.37198680635904346,5890.985234311252
0.224,0.3707445585505234,5903.1252804951055
0.228,0.39954268381993996,5904.929884457284
0.232,0.4388335384140109,5895.74241920075
0.236,0.4673792756828229,5894.563645313175
0.24,0.4684581793955062,5897.550420036788
0.244,0.4336396648884352,5901.896224095684
0.248,0.3636697929189551,5899.546924748517
0.252,0.26673079493130625,5906.660487031297
0.256,0.15481692498483146,5900.96712763192
0.26,0.039650922162499345,5903.814374883264
0.264,-0.07004597008661805,5889.975455222982
0.268,-0.168890484540569,5901.385412937789
0.272,-0.2533258227499542,5904.304605999263
0.276,-0.3198642631569232,5901.6840923782565
0.28,-0.3645200781499752,5899.3008569206695
0.284,-0.3838715530236182,5901.239279039626
0.288,-0.37701763451420667,5905.488257765391
0.292,-0.3469393996571011,5902.588439618126
0.296,-0.30004687274105174,5898.674336382916
0.3,-0.2439877888643978,5906.697031484501
0.304,-0.1850575877747763,5906.024641657836
0.308,-0.12674014812546502,5895.124859905527
0.312,-0.07016168285845062,5897.810728688367
0.316,-0.016233934230503472,5891.115593659798
0.32,0.03167191868397421,5901.655065973401
0.324,0.06616398949369705,5894.993833230517
0.328,0.07656087064063656,5903.548835150828
0.332,0.05189931688523363,5912.01114488615
0.336,-0.014913962432235807,5904.412036498805
0.34,-0.12349336703509323,5906.249376767814
0.344,-0.2644787259005722,5897.927970639908
0.348,-0.4209000054368569,5909.58906649688
0.352,-0.5719594654701524,5904.02973398281
0.356,-0.6978841088056554,5904.211401842634
0.36,-0.7841966947791646,5899.208898234617
0.364,-0.8240331547861619,5894.542295975038
0.368,-0.8180296910523651,5897.633317448855
0.372,-0.7725210744372455,5893.6899900990575
0.376,-0.6974622007029657,5899.534967533562
0.38,-0.605023066634557,5902.501573746518
0.384,-0.5087166230475079,5907.216350628359
0.388,-0.4222747920018658,5900.78158495215
0.392,-0.35777606788451194,5906.572362349209
0.396,-0.3232907436066035,5906.815051685286
0.4,-0.3208761719004849,5900.709228982422
0.404,-0.3458658727963617,5897.8388468752855
0.408,-0.3879990647102309,5898.227616565789
0.412,-0.43408325388216934,5892.553846635649
0.416,-0.47110591314666167,5896.193091597482
0.42,-0.48868530404962723,5900.090074642028
0.424,-0.4804123567339413,5901.922860495284
0.428,-0.4443192558411791,5901.832395081548
0.432,-0.38294229623447484,5896.94038784113
0.436,-0.303189619975917,5896.452981232524
0.44,-0.21577455054270384,5904.920652641582
0.444,-0.13379556859907182,5903.473214708267
0.448,-0.07038073504310835,5907.323158453799
0.452,-0.035939060321507676,5895.677048426885
0.456,-0.035939473512112484,5902.276082891609
0.46,-0.06990937162814487,5894.361858571844
0.464,-0.1316941170356864,5900.373550807996
0.468,-0.21049603619460305,5907.0548387097015
0.472,-0.2922564147709724,5896.598676678281
0.476,-0.361457919798707,5906.349334840212
0.48,-0.40369261220641933,5903.037868248932
0.484,-0.40886811092485353,5903.302309627483
0.488,-0.37418461116391377,5903.687044096562
0.492,-0.30573270136441166,5900.498926920396
0.496,-0.21784180019882698,5901.669679935621
0.5,-0.12995656448014004,5897.667868168251
0.504,-0.06174374363853807,5901.145076269441
0.508,-0.02801292313689646,5908.42864300307
0.512,-0.035177354077037135,5911.171424626438
0.516,-0.08011673484823724,5904.450725922397
0.52,-0.15122572782180876,5891.599512866098
0.524,-0.2310887129244309,5908.17011849701
0.528,-0.3003958441173214,5899.416412103814
0.532,-0.3425029942635649,5896.160030822506
0.536,-0.3474279456389021,5893.646039330397
0.54,-0.31398898920891744,5897.621549786341
0.544,-0.2495883102760741,5908.529546789765
0.548,-0.16809728018398995,5910.085198467538
0.552,-0.08668943655896491,5906.313456573791
0.556,-0.022373067169101833,5896.991518197826
0.56,0.011200399943656202,5906.286675838889
0.5640000000000001,0.006260013895561508,5897.24555125444
0.5680000000000001,-0.037434861082970436,5900.614648041831
0.5720000000000001,-0.11205425782876392,5901.351381769546
0.5760000000000001,-0.2027010116695621,5906.586149174773
0.58,-0.2902720770030468,5896.069284560648
0.584,-0.35579616405147524,5897.938523173356
0.588,-0.38498292631693376,5899.864932914544
0.592,-0.3713587568430013,5889.347446372311
0.596,-0.3169781935501507,5903.928994069245
0.6,-0.2309853320910151,5908.420236560733
0.604,-0.12727247594547267,5902.262280912635
0.608,-0.022361213837275188,5892.28650976661
0.612,0.06636149135290566,5893.018562287815
0.616,0.1227323846233579,5896.603062210302
0.62,0.13469725404287092,5904.11472323161
0.624,0.09752517749621388,5900.322886707542
0.628,0.016229294227341803,5900.5164935902885
0.632,-0.09388568746379575,5899.016613348184
0.636,-0.20923091838775168,5907.881258751556
0.64,-0.30255516437554847,5899.21790466
0.644,-0.34924671228702175,5901.768770475816
0.648,-0.33339188901820116,5899.350325639155
0.652,-0.2515407824016505,5900.94919233153
0.656,-0.11315912004751552,5902.979680224791
0.66,0.06187851631008859,5895.4125889524985
0.664,0.24765696418166036,5902.041924078138
0.668,0.4173480948985378,5895.187485986225
0.672,0.5482259567933219,5895.955863949416
0.676,0.625776842725949,5891.612620061187
0.68,0.6459861586333636,5898.264277887445
0.684,0.6149457940688595,5904.270887316777
0.6880000000000001,0.545679520027642,5907.585686439054
0.6920000000000001,0.45328886347778397,5899.02638312125
0.6960000000000001,0.35027779750602045,5901.970337349171
0.7000000000000001,0.24376066889387796,5904.645391641025
0.704,0.1354815754742111,5904.842906576199
0.708,0.024519423006752264,5902.801882769066
0.712,-0.08860466196723235,5906.560837722237
0.716,-0.19852221962276445,5898.262640376921
0.72,-0.2942560968854499,5910.965190216101
0.724,-0.3617717170096821,5895.167626058335
0.728,-0.3888266658519073,5893.138604399682
0.732,-0.36996076033429515,5898.7924957901705
0.736,-0.3094100598537138,5899.2235337852
0.74,-0.2207100193846947,5891.342516632723
0.744,-0.12324291252890392,5893.32378973602
0.748,-0.03723282541441847,5893.619594125327
0.752,0.02085427100231808,5905.9028144539725
0.756,0.041013767793825054,5902.713900717203
0.76,0.020136170845650492,5892.812267251589
0.764,-0.03907103443872051,5899.978618925452
0.768,-0.12953382376728478,5893.209935098595
0.772,-0.24104305291770534,5901.70095778064
0.776,-0.36143888665416035,5910.647563822084
0.78,-0.47803897111644045,5897.746530768961
0.784,-0.5791180851601233,5893.770859475852
0.788,-0.655001586584979,5903.823824718424
0.792,-0.6987181961911593,5899.201552896372
0.796,-0.7065944982976181,5904.832529195332
0.8,-0.6790738528284659,5902.590154511834
0.804,-0.62154148612772,5898.4854577793685
0.808,-0.5444863948055454,5909.414464019297
0.812,-0.46223829597284544,5894.801324498335
0.8160000000000001,-0.3899959478511625,5905.239067920616
0.8200000000000001,-0.33987317625542846,5904.578575378338
0.8240000000000001,-0.3176003495099569,5902.89003275689
0.8280000000000001,-0.32146233018906756,5903.960110677683
0.8320000000000001,-0.3438811210529741,5905.009382078023
0.836,-0.3746478093513178,5899.383929620901
0.84,-0.4042234768247865,5898.263957781938
0.844,-0.42595574305779804,5900.370012134903
0.848,-0.43685690627617196,5894.705926024145
0.852,-0.4371567136186267,5901.36247773422
0.856,-0.42909198424100264,5902.429790883605
0.86,-0.41547678757716905,5902.949334894141
0.864,-0.39861240103805984,5905.555039773665
0.868,-0.38004258802685975,5897.661218650775
0.872,-0.36135201541979095,5903.037443947378
0.876,-0.34551440597942473,5902.937139179896
0.88,-0.3376200773762266,5900.576447180005
0.884,-0.3439163574645011,5892.924098397815
0.888,-0.36920432255463315,5899.522741296208
0.892,-0.413893046189285,5906.794911221919
0.896,-0.47231106600080536,5902.460436621856
0.9,-0.5331430198588557,5897.958208406105
0.904,-0.5818937601701977,5901.203303847787
0.908,-0.6045889892318165,5905.535975778239
0.912,-0.5914904932806357,5902.677365309552
0.916,-0.539477817996318,5909.7101225129945
0.92,-0.4521783847540024,5895.962185351705
0.924,-0.338022695662315,5903.1792862771335
0.928,-0.20766188310508427,5900.763507818427
0.932,-0.07251679422031318,5900.027412968922
0.936,0.0549995728388518,5903.024504079255
0.94,0.1608847877536455,5905.214109521647
0.944,0.2305199455354044,5907.897095351601
0.948,0.2519414612614655,5900.180759019465
0.952,0.2201527767397106,5904.659397838083
0.956,0.14003614424914063,5905.704440854013
0.96,0.025882399700181795,5896.744740641984
0.964,-0.10261228839754027,5903.597201396307
0.968,-0.22606741308249326,5901.438116790406
0.972,-0.3303265411182743,5900.134639013475
0.976,-0.40887745639826284,5901.602256460234
0.98,-0.4626035562395468,5899.7915939601535
0.984,-0.49772905896666625,5899.046129031944
0.988,-0.5230445102695136,5893.58855930141
0.992,-0.5471814165153132,5905.733788796498
0.996,-0.5763188798121319,5898.699721464884
1.0,-0.6125664664883865,5893.217619127494
1.004,-0.6533321110556389,5902.246326669039
1.008,-0.6919782250713359,5900.09515816516
1.012,-0.7198142311338507,5896.027595754438
1.016,-0.7290436882956045,5901.25775891698
1.02,-0.7159025534489254,5901.168847036784
1.024,-0.6830048610736775,5904.082254851397
1.028,-0.6398614819910431,5899.9431849697885
1.032,-0.6008465486826016,5902.132793352032
1.036,-0.5807602721858075,5899.962815654609
1.04,-0.5893055410377939,5891.908872044683
1.044,-0.6265747021267013,5907.016965897409
1.048,-0.6815017886361382,5902.124571541065
1.052,-0.7342094749906091,5896.1626818925
1.056,-0.7617534914989607,5905.218119010043
1.06,-0.7454457382726357,5903.231192108094
1.064,-0.6771603318369708,5899.705418871634
1.068,-0.5622866627438775,5899.1358441981465
1.072,-0.41839226215222025,5897.43684553184
1.076,-0.2703871692148176,5898.436339565729
1.08,-0.14397403090104624,5905.605946780626
1.084,-0.05928444956043385,5902.544587749731
1.088,-0.026416887484966234,5897.8763057123015
1.092,-0.04419354067104338,5897.481973711019
1.096,-0.10243615133785898,5903.172041480754
1.1,-0.18659434037080547,5910.1187685660125
1.104,-0.28258812102919983,5896.471444989889
1.108,-0.3799400880507791,5902.210112267805
1.112,-0.47237453299186394,5896.917310815124
1.116,-0.5562850241595669,5902.829989168928
1.12,-0.628369257843652,5898.402211423751
1.124,-0.6840476190225805,5899.144295805391
1.128,-0.7177486598798,5901.50285067475
1.132,-0.7249331351025072,5905.214072752281
1.136,-0.7046110697521994,5904.400375568418
1.14,-0.6608193089416167,5894.266978143628
1.144,-0.6021970939242504,5898.756576357846
1.148,-0.5399194182692811,5898.162616633795
1.152,-0.4850610040392144,5901.797068755126
1.156,-0.4464926055358166,5904.988457273281
1.16,-0.4297719590993377,5904.813872340957
1.164,-0.4367286038174436,5902.418368039816
1.168,-0.46511752250735716,5909.428028274359
1.172,-0.5080537759818603,5898.145734825968
1.176,-0.5537020968923457,5907.172311502874
1.18,-0.5862773294913772,5895.617526398375
1.184,-0.589143292362833,5894.134827540735
1.188,-0.5495988377068937,5903.391453944194
1.192,-0.4636787183736223,5908.355054166372
1.196,-0.33897198077281293,5898.23805672756
1.2,-0.19414515695994333,5907.14965887882
1.204,-0.05494159246905243,5902.80549566823
1.208,0.05244515744875072,5894.4795989174
1.212,0.1086453238356683,5897.86639555597
1.216,0.10647885732402967,5900.791981867931
1.22,0.052399328539968475,5904.562792610326
1.224,-0.036428714624163604,5901.952354586839
1.228,-0.13810528825358676,5906.818407411285
1.232,-0.23264559063150964,5899.474228403134
1.236,-0.3070077519208904,5900.784450968124
1.24,-0.35722158671461257,5903.34375246575
1.244,-0.3875667227413341,5896.832537758845
1.248,-0.4075723514059524,5891.345593045994
1.252,-0.4279597479463689,5903.417974452404
1.256,-0.4566824201223148,5899.532737981347
1.26,-0.4961158364769901,5900.122834079164
1.264,-0.5422854647309959,5898.901795272503
1.268,-0.5865355682313358,5896.962807009569
1.272,-0.6190173800161404,5900.954484755975
1.276,-0.6323579324146351,5901.28266375545
1.28,-0.6237973093336412,5904.398049380653
1.284,-0.5951555886347324,5896.730386328441
1.288,-0.5513791624400565,5900.815599295272
1.292,-0.4990278418594423,5902.573984923491
1.296,-0.4454677772409433,5897.485709556109
1.3,-0.398361941540046,5889.231302269023
1.304,-0.36450632428624813,5902.016087944821
1.308,-0.34773308861651336,5905.164622423977
1.312,-0.3468321307631206,5904.322094503124
1.316,-0.3550377670291233,5906.64140539673
1.32,-0.3619831467018726,5902.651026696255
1.324,-0.3575831749916518,5896.327905179939
1.328,-0.3361349950227173,5896.5537276182695
1.332,-0.2987485761460263,5902.149291855839
1.336,-0.25292163337951795,5896.4625367314575
1.34,-0.2092274828854664,5904.793799996216
1.344,-0.17642320217585206,5894.239017757789
1.348,-0.15730294897252783,5896.794335886403
1.352,-0.1474861462544803,5893.994066099064
1.356,-0.13782208270144594,5906.736192756318
1.36,-0.11913566906267486,5903.950489143957
1.364,-0.08688842631622552,5895.916389154821
1.368,-0.043546101966627365,5891.010139908086
1.372,0.0022881398824488187,5907.35756606441
1.376,0.03936545031690945,5898.663299660948
1.38,0.05821466378661308,5906.390764289864
1.384,0.054667257193298964,5891.85758669547
1.388,0.031401763607833755,5893.119787020111
1.392,-0.002636727288333995,5889.975120960509
1.396,-0.03459061801840949,5904.600817957011
1.4,-0.05130477434028304,5899.3197821335925
1.404,-0.04345340318709646,5894.918424011224
1.408,-0.009117484528706216,5899.907720830077
1.412,0.044311325220588366,5902.198500427032
1.416,0.10067325013532655,5898.89368683828
1.42,0.1382024314823246,5905.182931486372
1.424,0.1348130217727407,5899.557722242112
1.428,0.07426326738056209,5895.308708159886
1.432,-0.0486904747911374,5898.796363321663
1.436,-0.22600494107072283,5903.452940987554
1.44,-0.4377986439193565,5905.810029694641
1.444,-0.6569392347676392,5896.602798454147
1.448,-0.855022505698173,5897.498493753617
1.452,-1.0077518917393151,5899.60229211326
1.456,-1.0983902998942034,5902.424097236319
1.46,-1.1190092707442492,5896.116974093381
1.464,-1.0700930073027544,5900.401213118922
1.468,-0.9592893999948684,5891.001027639072
1.472,-0.7997515555938228,5900.408904996154
1.476,-0.6080673130106737,5896.780876384652
1.48,-0.4018327536792302,5897.009562250596
1.484,-0.19749736487684125,5894.879305945357
1.488,-0.009412609344656465,5904.693349979375
1.492,0.1496753313749323,5903.160374916107
1.496,0.2677155673199333,5904.612874849801
1.5,0.3335631388150013,5895.697972314279
1.504,0.3389903223519019,5904.752771899913
1.508,0.2818166054876275,5905.646223928463
1.512,0.16868105335955283,5901.732553118487
1.516,0.015936119909015254,5900.560330061519
1.52,-0.15232395472405544,5902.887693323028
1.524,-0.3090154373443451,5902.319282281642
1.528,-0.4302797283668298,5899.484928688476
1.532,-0.5011626498984545,5903.586040280348
1.536,-0.5189986356846807,5903.66230684664
1.54,-0.49365668263273194,5890.710385329959
1.544,-0.4448166482621747,5900.084413484317
1.548,-0.3970224266558161,5883.6768673844135
1.552,-0.3734547751412889,5906.825338339745
1.556,-0.3896918314016954,5900.685869833331
1.56,-0.4491748911065766,5901.117419777087
1.564,-0.5419748328517825,5895.158758153952
1.568,-0.6474809909060385,5901.096074784358
1.572,-0.7403445524545273,5899.365765791151
1.576,-0.7979348661541906,5895.853653222286
1.58,-0.8069856357648902,5899.945245725215
1.584,-0.7673278973984435,5900.011167372976
1.588,-0.6915954842099242,5895.785870516985
1.592,-0.6010187820220705,5897.512697576499
1.596,-0.5185278848285024,5900.917903005596
1.6,-0.4612694929681172,5904.056721173616
1.604,-0.4349853036380721,5907.886690031359
1.608,-0.4321702384545196,5897.795069469544
1.612,-0.4347142744271329,5900.398331994759
1.616,-0.4203129773458593,5909.628238699344
1.62,-0.3706286816507305,5907.538907637017
1.624,-0.27834367388760256,5899.912604485113
1.628,-0.15042270112521575,5905.714252979254
1.632,-0.006343307634685996,5899.962649063686
1.636,0.12780215333822112,5902.927174352586
1.64,0.22674952342781962,5901.189934573361
1.644,0.2722602012724138,5903.6455876084165
1.648,0.2565306885710079,5896.3614932650935
1.652,0.18287335518016273,5900.263356236579
1.656,0.06455281129741114,5902.03421070058
1.66,-0.0774927018809293,5901.904977764633
1.664,-0.21788929120316416,5906.261934744475
1.668,-0.3311453176061734,5900.93510688905
1.672,-0.39671617230501727,5897.812375275964
1.676,-0.4035901600514378,5896.432802739799
1.68,-0.3527895580801887,5904.461048285401
1.684,-0.2568352927110144,5893.107609254107
1.688,-0.13636078178526387,5899.734712296581
1.692,-0.014990328687818109,5903.248497666506
1.696,0.08584721409477723,5896.561319118961
1.7,0.15056164929386143,5899.919498937594
1.704,0.17084829326602533,5909.490115298784
1.708,0.14554136812999427,5902.816854494487
1.712,0.07989104922994561,5892.944562539651
1.716,-0.015415056646650284,5895.537681490306
1.72,-0.1259672169360633,5899.356859300237
1.724,-0.23642409693399039,5891.815605567214
1.728,-0.3337471231793134,5894.912062720385
1.732,-0.40948719919062204,5905.599173876499
1.736,-0.45998229532687673,5904.852362796895
1.74,-0.48452988042397466,5893.081033713376
1.744,-0.4830103283320902,5896.286278107806
1.748,-0.45499609049396506,5905.13573944815
1.752,-0.4013864540105869,5893.206213603085
1.756,-0.3275547255853939,5904.81520072909
1.76,-0.24544746142370602,5890.080074955658
1.764,-0.172296834749674,5902.067758059447
1.768,-0.12549014621381493,5891.0866946295455
1.772,-0.1154757263553447,5901.420340482278
1.776,-0.1399771001612059,5893.891871499224
1.78,-0.1824514508653996,5891.751170951104
1.784,-0.21589364265579283,5903.446462921842
1.788,-0.21078071760049996,5903.7470882415
1.792,-0.14437888507559346,5890.364498736426
1.796,-0.008522716439873923,5903.0215623752965
