时间(s),电压(V),幅值(高频80K)
0.0,-0.3096263926419584,5905.76564609187
0.004,-0.422738946373699,5902.430070454015
0.008,-0.5273627878678834,5903.945996566458
0.012,-0.6156487096153147,5899.193974259975
0.016,-0.6835515941308773,5898.161390826289
0.02,-0.73117402592167,5909.768515526422
0.024,-0.7618582224269468,5895.061100646711
0.028,-0.7804890189996864,5894.901614212264
0.032,-0.7919139311063665,5901.569207900542
0.036,-0.8001306016060388,5897.658188029086
0.04,-0.808012821350054,5892.49023881562
0.044,-0.81688115750408,5898.21641333502
0.048,-0.8257705121847686,5905.174476744204
0.052,-0.830979807065587,5900.652472559776
0.056,-0.826360339715042,5897.757405011856
0.06,-0.8040772939638097,5903.19584100259
0.064,-0.7554175122878287,5905.934672834153
0.068,-0.6719569732356817,5904.221744291857
0.072,-0.5479353794400216,5906.370184426041
0.076,-0.38382503741822555,5902.224277035668
0.08,-0.1893755243775476,5897.454275728237
0.084,0.016155715963127818,5893.519073236923
0.088,0.20739768044139623,5902.642745901782
0.092,0.35860855892384247,5898.065410543035
0.096,0.4496914347719355,5901.664871871247
0.1,0.4709393649189073,5903.046811293873
0.104,0.4255125440934161,5898.804147614785
0.108,0.3286900129698835,5899.677296437287
0.112,0.2033626354623744,5901.375566062323
0.116,0.07277614194082775,5898.790110734768
0.12,-0.046621464612381196,5898.333797247428
0.124,-0.14887305393065778,5900.951627927834
0.128,-0.23700520809502,5896.833759995752
0.132,-0.31746531194931393,5894.532382293774
0.136,-0.3938475573747914,5906.110468637682
0.14,-0.4631788276574157,5900.834704174015
0.144,-0.5160533542049509,5893.801177283277
0.148,-0.5398840266116816,5891.814863594035
0.152,-0.5236121033236892,5894.194297853139
0.156,-0.4620578028222137,5900.033907664175
0.16,-0.3583431470131506,5889.171678275922
0.164,-0.22366767793631626,5904.362463820833
0.168,-0.07489509025994306,5900.654218463501
0.172,0.0689502210018694,5898.382255275909
0.176,0.1903652394749074,5899.835397666553
0.18,0.2767189829119452,5909.11121392777
0.184,0.3227413237576082,5901.344665687349
0.188,0.33127557733411356,5885.676662388059
0.192,0.31152216976778185,5899.857794503673
0.196,0.27509534006591535,5898.399218970295
0.2,0.23167801249164074,5893.847849122307
0.204,0.18650828602797126,5904.853186729581
0.208,0.1407469262930963,5904.337120197765
0.212,0.09382104236642655,5903.260463276512
0.216,0.04567457108469036,5896.89931130089
0.22,-0.0026240869695983568,5901.152441046756
0.224,-0.04983697528670572,5901.785546560023
0.228,-0.09572594220898335,5904.709688876026
0.232,-0.14114383523673202,5898.82062725567
0.236,-0.1868602034378742,5906.157504331261
0.24,-0.23201663288824656,5899.857200616308
0.244,-0.27329399300877105,5910.03009791765
0.248,-0.30525625990136623,5895.586257047536
0.252,-0.3216673518961551,5908.321220134271
0.256,-0.3172832566460631,5902.643140943023
0.26,-0.28956694324667626,5897.276363668325
0.264,-0.23983769121226817,5899.3421210041415
0.268,-0.17356616413759418,5889.933944081667
0.272,-0.09973609011198509,5904.239851608363
0.276,-0.02934685750198642,5900.268908771592
0.28,0.026578578455519794,5896.9027264235065
0.284,0.058750037462508765,5893.577306589051
0.288,0.06047670956044345,5898.109090501847
0.292,0.02769562266535218,5907.353811793182
0.296,-0.04104814593585723,5893.076582891915
0.3,-0.14389363763319507,5905.456376965608
0.304,-0.27442989711120486,5896.31206647726
0.308,-0.42129230222736447,5890.236492144292
0.312,-0.5698759462097343,5907.623431774512
0.316,-0.7057483978701554,5897.323410317925
0.32,-0.8176645068446119,5905.976650051538
0.324,-0.8984339716292223,5909.760697680964
0.328,-0.9439418048832698,5900.649163253136
0.332,-0.9520755500490011,5901.937539238722
0.336,-0.9228489700472058,5893.433224588637
0.34,-0.8595260458413583,5905.45742604111
0.344,-0.7695203917096342,5900.979283514451
0.348,-0.6638597680635886,5894.706536822514
0.352,-0.55493663184996,5898.881707512506
0.356,-0.4535620816358251,5896.728999692546
0.36,-0.3669951804502837,5897.163248162738
0.364,-0.29893150712078126,5892.52358131797
0.368,-0.25096554752178096,5893.12377188627
0.372,-0.22410656864798092,5897.003934401614
0.376,-0.21914134188202125,5898.937803947298
0.38,-0.23557704111334127,5897.448229990484
0.384,-0.2699203872087802,5898.751447942583
0.388,-0.3146438463370206,5894.136667182194
0.392,-0.35893584655055955,5909.292476523876
0.396,-0.3912972079941152,5898.454958427493
0.4,-0.40294038069544996,5897.702612170404
0.404,-0.39049279316514207,5909.472804526367
0.408,-0.3568300214429121,5905.931242658553
0.412,-0.3096247147316821,5905.098043763499
0.416,-0.25810273508712633,5895.915290656314
0.42,-0.20938111376027493,5900.097595214478
0.424,-0.16618018267571888,5893.259546954047
0.428,-0.1271431478751541,5906.908182505527
0.432,-0.08964038674323366,5901.327346973214
0.436,-0.05365040047630478,5902.117795638222
0.44,-0.02478571383197953,5904.341011803856
0.444,-0.014787876501617767,5902.5550735523175
0.448,-0.03862246310112849,5905.349086093743
0.452,-0.10863808416700801,5909.090513363225
0.456,-0.22786380515806598,5903.256608747121
0.46,-0.38550155767761024,5896.351561774257
0.464,-0.5571507804661282,5900.536196345491
0.468,-0.7103565743512325,5902.526867531177
0.472,-0.8136807697451226,5897.9702358941895
0.476,-0.8458831496727593,5896.981998845837
0.48,-0.8017730837093915,5900.518495167952
0.484,-0.6927850165932887,5889.190708480496
0.488,-0.5425197232193438,5904.000056182005
0.492,-0.3793838464673392,5895.9442861590005
0.496,-0.22928592186564636,5902.894226948222
0.5,-0.11074606055019133,5892.025766379786
0.504,-0.03317236252080481,5902.594744153944
0.508,0.0024050153034253733,5897.438946279763
0.512,0.0013322016352938536,5901.385122378809
0.516,-0.027058637432561136,5896.145984705186
0.52,-0.07178112584884516,5899.115431275613
0.524,-0.12221608409422714,5902.023224238047
0.528,-0.1695798552902656,5896.121333181057
0.532,-0.20760945574281683,5906.367786381637
0.536,-0.23238449225581734,5906.032236770657
0.54,-0.24150658010562742,5888.961040250426
0.544,-0.23318837931365813,5907.061337615374
0.548,-0.20592749873842692,5909.611845486932
0.552,-0.1591345461818817,5904.2377664206815
0.556,-0.09443027194745032,5902.001989652191
0.56,-0.01678385422731149,5900.899114098953
0.5640000000000001,0.06534546632853165,5903.306333357653
0.5680000000000001,0.1411876423011049,5892.694395694219
0.5720000000000001,0.19978917117004713,5897.052953653794
0.5760000000000001,0.23224548090186273,5904.482587123032
0.58,0.23321059926107732,5905.903567737983
0.584,0.2013077551790999,5905.578095786132
0.588,0.1386339743752117,5897.7545440731965
0.592,0.04982541206515071,5896.135711990872
0.596,-0.05893884483216851,5911.132852740831
0.6,-0.18057723654638014,5897.557044707481
0.604,-0.30671291946071877,5901.562356015995
0.608,-0.42601195466036856,5901.609025715742
0.612,-0.5225234075364955,5901.270746204096
0.616,-0.5763722100443905,5893.946928313365
0.62,-0.5682084913356618,5913.17117747452
0.624,-0.4863345170527329,5898.028931372412
0.628,-0.3333704541807092,5902.32358689868
0.632,-0.12909829168097317,5899.79058918032
0.636,0.09222494926058639,5901.3285356457145
0.64,0.28933037886928586,5906.810594479563
0.644,0.4236253946765503,5899.946165045566
0.648,0.4682850829517871,5896.822632506504
0.652,0.4147235873946341,5894.232746688155
0.656,0.2752136630895447,5899.307999585641
0.66,0.08089663723903849,5897.727534678166
0.664,-0.12486729089120664,5899.930156669831
0.668,-0.29662577616806013,5896.372004403142
0.672,-0.3979516862373563,5901.203923397105
0.676,-0.41038002773349036,5902.757019039126
0.68,-0.3374151294574573,5902.125086769783
0.684,-0.20245141875945669,5899.408065552609
0.6880000000000001,-0.041562470128739884,5898.48549766015
0.6920000000000001,0.10634658261264754,5897.452440497893
0.6960000000000001,0.20912634039703684,5900.86306891004
0.7000000000000001,0.24827027855333178,5891.391219743719
0.704,0.22157205333273325,5900.880603121143
0.708,0.14127808742132567,5899.423983677404
0.712,0.02878864001066989,5896.216749089432
0.716,-0.09219535578474249,5898.641597502649
0.72,-0.20202707126796127,5899.30347041019
0.724,-0.28922362350257136,5894.385219149209
0.728,-0.35129866412055405,5904.953218132164
0.732,-0.39244749251758826,5897.166065079088
0.736,-0.4193959750760718,5898.981840546568
0.74,-0.4372747765876937,5891.572331384571
0.744,-0.44711626625763656,5903.576408811142
0.748,-0.44578612429335995,5900.692865487727
0.752,-0.4281746439720363,5897.58562163964
0.756,-0.3905638395147646,5898.445020916599
0.76,-0.3336704472682046,5902.435579195844
0.764,-0.2642071223040518,5900.3652986189845
0.768,-0.19455930739850882,5901.746716083996
0.772,-0.14069003729971996,5899.703579444024
0.776,-0.11854653275529567,5898.783240958413
0.78,-0.13957398986295688,5900.881085975596
0.784,-0.20664575069173105,5890.739516255468
0.788,-0.31212411147749525,5900.487257304214
0.792,-0.4391605319030002,5898.551809795645
0.796,-0.5659298205624055,5901.934695060981
0.8,-0.6711696690954118,5896.451064993373
0.804,-0.7389962412239859,5904.337081931198
0.808,-0.7617086836975153,5916.847917721341
0.812,-0.7405132149034689,5908.914367884959
0.8160000000000001,-0.6846864153708534,5899.713871682161
0.8200000000000001,-0.6093451312528461,5904.909000056517
0.8240000000000001,-0.5316556770518632,5894.860004782861
0.8280000000000001,-0.4659404396051029,5904.648264763416
0.8320000000000001,-0.41925117579250576,5903.955456200881
0.836,-0.38927672956869297,5897.757473179596
0.84,-0.3655075410784609,5901.961647144083
0.844,-0.333158351434118,5895.710613938461
0.848,-0.2783666430586181,5899.885361287812
0.852,-0.19296429353519715,5899.623731393568
0.856,-0.07746492047527578,5901.468263492512
0.86,0.05850380365020615,5902.230864718938
0.864,0.19840296161948676,5888.280991863026
0.868,0.32296195330258676,5899.462943524771
0.872,0.41507136966194563,5907.157637167143
0.876,0.46390523991308646,5898.91316154141
0.88,0.4671071138209506,5896.298317734998
0.884,0.43061927520987675,5906.8999589599935
0.888,0.3664992410070206,5896.997890888996
0.892,0.28948749215055747,5889.394376292816
0.896,0.2131927401394823,5899.821822209493
0.9,0.14678290558027357,5904.822357430033
0.904,0.09301540650608786,5900.650551492937
0.908,0.04810896753815641,5902.193858274838
0.912,0.00335746126703738,5906.612782798741
0.916,-0.05215877547907682,5907.2332088023
0.92,-0.1285601113760863,5897.391904795759
0.924,-0.23238482421085957,5895.338183104362
0.928,-0.36422395819949926,5894.434697053813
0.932,-0.5169650525766075,5898.403298396219
0.936,-0.6752744470586756,5894.463317777739
0.94,-0.8173005917010349,5896.219856166323
0.944,-0.9190678427207387,5895.897280709012
0.948,-0.9605866639496407,5900.955540876471
0.952,-0.9314289682707141,5904.027891706221
0.956,-0.8335879369265257,5903.996821486902
0.96,-0.680795171963604,5901.966047322826
0.964,-0.49502252813655967,5903.150716534163
0.968,-0.3017292966067321,5909.225555362704
0.972,-0.12531249942903835,5902.340763830046
0.976,0.014469824619569744,5903.063001340203
0.98,0.10494698610482237,5907.136428545953
0.984,0.14176298627497558,5901.456367425763
0.988,0.12856284814246538,5912.52095635354
0.992,0.07501406905941316,5897.567465004081
0.996,-0.0062075534308487,5894.859447518591
1.0,-0.10225248379412757,5899.317935689762
1.004,-0.20177745081515558,5892.914967319979
1.008,-0.2953363149542073,5900.275130890107
1.012,-0.3750165781612738,5898.891934039318
1.016,-0.43397651470447035,5904.647292314548
1.02,-0.4663665457811928,5897.771987972015
1.024,-0.46794978836651224,5908.012034408903
1.028,-0.4374648820787835,5900.567586201157
1.032,-0.37821299308542605,5893.991030342299
1.036,-0.298815313207713,5898.49731001902
1.04,-0.212227662172576,5899.699476565304
1.044,-0.13299214160289655,5897.417911569198
1.048,-0.07362425422143767,5902.634394337324
1.052,-0.04137563413792096,5899.532456617685
1.056,-0.03646806962286944,5910.064438884129
1.06,-0.05244256021442397,5897.830954098261
1.064,-0.07846782473969725,5905.461989889947
1.068,-0.10267650707879145,5903.231491072404
1.072,-0.11550094026995286,5903.649221838764
1.076,-0.11243673816920723,5898.936833512936
1.08,-0.09584104644386113,5903.129590879956
1.084,-0.07505736609175499,5900.8265282406055
1.088,-0.06412573776365077,5895.2380092867525
1.092,-0.07719713968300831,5891.998893496547
1.096,-0.12304807000325337,5906.731031681888
1.1,-0.20076892206235736,5892.69201936723
1.104,-0.29830571810480255,5902.611687338841
1.108,-0.3944559320692067,5903.5856855187
1.112,-0.4638642271089644,5902.05666685505
1.116,-0.4838244105934482,5902.140912778909
1.12,-0.4410989992332455,5894.33750865921
1.124,-0.336597585419146,5890.0109875376265
1.128,-0.18613097814702673,5891.391070063496
1.132,-0.016772804913147282,5895.444858880172
1.136,0.14001999593306907,5900.7503569830815
1.14,0.2563624125078616,5898.243600682376
1.144,0.3147126882602521,5901.075823936073
1.148,0.3116837144263313,5902.133949539143
1.152,0.25788209021671876,5894.366308837708
1.156,0.17378704714222062,5893.158235562109
1.16,0.0828112418456288,5896.399832012229
1.164,0.003596136238258823,5899.757580863126
1.168,-0.05594048163743531,5905.4539694962095
1.172,-0.10051321535896533,5903.389934771261
1.176,-0.14424669866417808,5901.179348003572
1.18,-0.203293985230078,5904.744764057687
1.184,-0.2873184240295263,5897.085551396126
1.188,-0.3936577213447445,5897.241354623021
1.192,-0.5068159295046044,5906.265302157095
1.196,-0.603341285799682,5900.385958728454
1.2,-0.6597294173528072,5894.985210526876
1.204,-0.6600953186503968,5894.466088289345
1.208,-0.6010061744334988,5902.416242510641
1.212,-0.4921827705544867,5902.053451123968
1.216,-0.35317394799007384,5893.280883874474
1.22,-0.20741219140308628,5899.105244285861
1.224,-0.0759299315877429,5898.71478063059
1.228,0.026982870260094823,5899.045994739096
1.232,0.09487594298022069,5900.900914674818
1.236,0.1272542430249774,5900.220058766858
1.24,0.1263443546017989,5902.262517547124
1.244,0.09453544844074148,5899.682139318318
1.248,0.03375118187318844,5895.7111867603135
1.252,-0.05333200606405791,5902.8009086003885
1.256,-0.16139601702073936,5897.071028845191
1.26,-0.2814577020186813,5891.794498031317
1.264,-0.4017340661083641,5894.590340636308
1.268,-0.5102057735073503,5899.385840637988
1.272,-0.5975363851219253,5900.401052000926
1.276,-0.6588360722918267,5895.687177605832
1.28,-0.6936405993375573,5898.3650881144
1.284,-0.7045760856360447,5900.581626723176
1.288,-0.6957149669846776,5898.406813461154
1.292,-0.6714424388029183,5891.612557125399
1.296,-0.6360571847044538,5895.563951549721
1.3,-0.593797300017602,5899.743886322721
1.304,-0.5488967719809736,5897.120374193679
1.308,-0.5056080568096789,5896.822098144114
1.312,-0.46837344566331546,5900.318055112453
1.316,-0.44214650895547913,5898.570805218335
1.32,-0.43251232251554095,5897.264289468538
1.324,-0.44510133510954086,5897.26868665167
1.328,-0.4838800846875283,5903.494772762664
1.332,-0.548209170790077,5900.745343254049
1.336,-0.6290700891144292,5888.751308602454
1.34,-0.7053885691293166,5901.780983454454
1.344,-0.741741157567245,5910.853495767532
1.348,-0.6888856594596681,5905.548619656675
1.352,-0.48842180398856566,5895.429998186844
1.356,-0.08230322459496436,5899.854709701504
1.36,0.5732473934905932,5900.623146967447
1.364,1.4916831645485893,5885.860240992158
1.368,2.6424187635526772,5901.218547001055
1.372,3.9455086316132584,5901.843515977784
1.376,5.279819225414112,5900.914977274788
1.38,6.505168052508636,5903.179692841131
1.384,7.4924257912448295,5902.802871301552
1.388,8.151590693895706,5906.410736660148
1.392,8.44899917966829,5901.311791931153
1.396,8.40953530237669,5893.128717963722
1.4,8.104764518334768,5907.334694144639
1.404,7.631728120270781,5903.55653709231
1.408,7.089142678969791,5896.6377115378045
1.412,6.557518865908663,5888.953283621351
1.416,6.087647722611035,5899.553676095945
1.42,5.699073662262179,5903.578535728263
1.424,5.3872490713604,5893.765971564677
1.428,5.135556745320704,5902.632321700095
1.432,4.927194990016186,5899.732768321884
1.436,4.7526312835057105,5909.990163839704
1.44,4.610611334865519,5906.4805820206775
1.444,4.50363714064909,5904.474410167448
1.448,4.431229202506468,5893.3159862959465
1.452,4.385046900024138,5905.129694702302
1.456,4.348625456929429,5899.218372527069
1.46,4.301794683899724,5900.933134858203
1.464,4.227284893560974,5904.847094185597
1.468,4.115999994525425,5896.606019491015
1.472,3.96840799335614,5902.021657883594
1.476,3.7918084981108295,5906.520594842263
1.48,3.595482354574547,5897.087681791166
1.484,3.386538023689687,5904.054876029192
1.488,3.16828112723,5904.55444754412
1.492,2.9410901083090235,5898.449012602016
1.496,2.7044824353197456,5905.130531741249
1.5,2.45903410282698,5899.999631718075
1.504,2.207647785390468,5898.961267289192
1.508,1.9562709607732391,5897.364216181112
1.512,1.7140289473455086,5909.967488534677
1.516,1.4924546287659484,5902.82802554676
1.52,1.303774117417619,5903.764691065432
1.524,1.1588435328017224,5896.655177187928
1.528,1.0655867441468954,5902.227211419553
1.532,1.0283224942663123,5892.2040396117545
1.536,1.047620174474606,5900.149139332308
1.54,1.120058766607306,5898.213106133647
1.544,1.2377455925999374,5904.435965372589
1.548,1.3880658947320947,5899.993566270808
1.552,1.5541561528659242,5899.29126102677
1.556,1.7161529534489908,5890.38185522403
1.56,1.853069152349676,5903.319572914449
1.564,1.9453381497933229,5904.213331306977
1.568,1.9780651691553335,5896.231088807388
1.572,1.9444925529537576,5900.554158487095
1.576,1.848483840791964,5900.078055569264
1.58,1.7045822593194837,5897.127637667101
1.584,1.534855715122088,5903.65583939954
1.588,1.3631828887658002,5892.967842763604
1.592,1.208971905430161,5898.595814660093
1.596,1.082568415455584,5893.867806212204
1.6,0.9837095950457464,5893.582615670959
1.604,0.9030486116839668,5899.948133797449
1.608,0.8257555660807132,5896.202014119744
1.612,0.7358051839093572,5900.432706099739
1.616,0.6198392193329403,5891.644113405338
1.62,0.4702198490611437,5886.423080012336
1.624,0.2873892932431924,5899.881915730911
1.628,0.08138105550566459,5888.315499813205
1.632,-0.1282784878986624,5886.28158342299
1.636,-0.3150259551985173,5890.374621169812
1.64,-0.4499664593425325,5882.963519273803
1.644,-0.507762476844799,5883.189980295409
1.648,-0.47226896125302237,5879.478034045621
1.652,-0.3406759332305038,5884.136155022058
1.656,-0.12535033906470122,5887.166162952518
1.66,0.14697115434891317,5882.098069550504
1.664,0.4385753498437874,5886.949560149155
1.668,0.70629523834648,5881.955305560629
1.672,0.9082933969231538,5880.719949630332
1.676,1.0109731124260568,5881.295882405976
1.68,0.9949016840651869,5881.022679572471
1.684,0.8587503019279534,5881.286131378262
1.688,0.6203454550000833,5880.0319233702185
1.692,0.31421035008301634,5874.606775540371
1.696,-0.014309922613349003,5876.503611988794
1.7,-0.3172643237138182,5872.736764120359
1.704,-0.5528200771208001,5875.928092997254
1.708,-0.6924591123825048,5877.651261701752
1.712,-0.7249640274808657,5889.588278794784
1.716,-0.6564151389079627,5881.570697184356
1.72,-0.5067229956090752,5879.611302912213
1.724,-0.30425261522060876,5875.624296612873
1.728,-0.08029716509349281,5878.613173727839
1.732,0.1353097222209859,5881.961938014684
1.736,0.31697363229517134,5880.092851616356
1.74,0.4449756250354029,5873.185229196178
1.744,0.5068893503134815,5877.109728267892
1.748,0.4992061702331729,5872.238032504855
1.752,0.4285622670289721,5872.662264424677
1.756,0.31135377923704266,5872.012607897143
1.76,0.17085780856998634,5887.051361063298
1.764,0.03199991489805305,5875.054809265842
1.768,-0.0849164689652492,5867.73424107534
1.772,-0.16939194089714474,5874.394995200653
1.776,-0.22282713969275536,5868.019361892768
1.78,-0.25678216687112587,5878.888815189005
1.784,-0.28818023827015987,5870.869230779964
1.788,-0.3330084816997142,5867.8149535008015
1.792,-0.4000878128257871,5879.043975218534
1.796,-0.48644606230388215,5869.61198608716
1.8,-0.5759167877563885,5857.209997528822
1.804,-0.6422603319921009,5870.666254484746
1.808,-0.6568049337788413,5873.791520995796
