时间(s),电压(V),幅值(高频80K)
0.0,-1.316195740824938,5900.855153047195
0.004,-1.0326742256793673,5891.930243936034
0.008,-0.7739217759262066,5899.709129106796
0.012,-0.5594018680049678,5896.815301417528
0.016,-0.4002974616254927,5899.4814964785855
0.02,-0.29876275949515874,5908.110309277665
0.024,-0.2491471765149528,5897.988476681532
0.028,-0.2403420344421817,5896.675498426606
0.032,-0.2584722782990748,5901.332697378658
0.036,-0.2892261320936117,5897.566944677358
0.04,-0.31934822570490873,5904.523689694367
0.044,-0.33739635221160635,5899.929135835331
0.048,-0.33442008380163835,5904.782658629015
0.052,-0.30516036564394083,5897.900285279968
0.056,-0.2495519706807919,5894.974343949362
0.06,-0.1734414013677378,5898.952396307024
0.064,-0.08749078350966957,5896.658887053421
0.068,-0.0043105255019137735,5904.447979731272
0.072,0.06501356868333512,5901.306629712031
0.076,0.11354229850990036,5904.003998280518
0.08,0.13936491788017383,5898.998589129692
0.084,0.14475047463322754,5893.625787414805
0.088,0.13428010419560368,5897.920097664397
0.092,0.11291834828058296,5902.948309551386
0.096,0.08481620158789563,5907.042435233268
0.1,0.05319218039512459,5903.337281731299
0.104,0.0209945297754677,5912.25460839054
0.108,-0.008514443469516334,5901.522340991805
0.112,-0.03206210408229398,5896.043726632786
0.116,-0.04753501072919398,5900.878141105364
0.12,-0.05506111790693624,5906.573446157307
0.124,-0.0569800334883148,5903.899692704931
0.128,-0.05654915329869575,5898.21228235934
0.132,-0.056130809848779335,5895.3446530876445
0.136,-0.05577370456498238,5893.006345645724
0.14,-0.05271608167605618,5899.6635465236295
0.144,-0.04192703016068207,5897.035632054704
0.148,-0.017574313903102382,5907.32461717126
0.152,0.02480816400037125,5906.674394041231
0.156,0.08585772070971746,5901.04225798813
0.16,0.16038066914988144,5896.806209234395
0.164,0.23684094114801615,5898.691064263912
0.168,0.2990549247643189,5902.154923685113
0.172,0.3297979521021337,5893.693726801432
0.176,0.3150364485224587,5895.509431423614
0.18,0.24740944581745972,5903.624989320272
0.184,0.12834878069415517,5903.899008633994
0.188,-0.03113866654875837,5899.709464313162
0.192,-0.21117041386708343,5905.228692838885
0.196,-0.38573124947595927,5898.000090246094
0.2,-0.5276320218368942,5899.406480612294
0.204,-0.6145900948517918,5899.178042605874
0.208,-0.6343598614848422,5891.64370304869
0.212,-0.5871240319787308,5905.799761825776
0.216,-0.48459368835161315,5902.233633646763
0.22,-0.3464883953902323,5906.682493377773
0.224,-0.1957066188690775,5900.510874830608
0.228,-0.05357254346104445,5903.2783906995055
0.232,0.06373259107038336,5896.320362866792
0.236,0.14693123895924384,5900.655927903589
0.24,0.19351515226578236,5909.87776840348
0.244,0.206073046369883,5890.2776083112185
0.248,0.18981134886627252,5905.831258895946
0.252,0.15026708897263677,5893.959715147688
0.256,0.09205915250316495,5892.973415021202
0.26,0.018842452242125312,5904.693899774636
0.264,-0.06607519414471373,5898.935274940619
0.268,-0.15913980158623622,5901.347673173021
0.272,-0.25625578955836686,5894.898338186959
0.276,-0.35259851476112275,5885.246704261832
0.28,-0.4423006176619229,5906.073966157407
0.284,-0.518154219198615,5905.41133122219
0.288,-0.5718634993323425,5891.650766406774
0.292,-0.5953864531077498,5905.900684500273
0.296,-0.5833593667868023,5912.296409793816
0.3,-0.5357298980946216,5905.05667208173
0.304,-0.4592043694208073,5904.104977089265
0.308,-0.3665374653996531,5908.885130588908
0.312,-0.27381830822998543,5902.469637627436
0.316,-0.19679793289835126,5897.111740934317
0.32,-0.14740929509308856,5903.784840140655
0.324,-0.13131190635917733,5899.863137169874
0.328,-0.14700902968157023,5895.1530440140505
0.332,-0.1866976358420147,5899.445248738262
0.336,-0.23836723889605915,5896.662116762485
0.34,-0.2882255364474639,5897.7495727417945
0.344,-0.3227733666530852,5897.920272819266
0.348,-0.3304822678990199,5897.820293071328
0.352,-0.3033625683137477,5906.359655924657
0.356,-0.23852730123175084,5902.439397244531
0.36,-0.1394345532180096,5898.240874819134
0.364,-0.016189354461406322,5901.427726732587
0.368,0.11558323128577162,5899.681182603253
0.372,0.23716317683566962,5911.335209306402
0.376,0.32972063332621687,5893.24039593161
0.38,0.37715507652350694,5906.838667020066
0.384,0.36862183177444735,5900.155198340595
0.388,0.3008293409345731,5896.201737231425
0.392,0.17979460527298374,5911.390210185802
0.396,0.021228259828602332,5891.607580147083
0.4,-0.15127679580251793,5888.134761643581
0.404,-0.3104711760526171,5904.901422794164
0.408,-0.43136124759886957,5906.40395683914
0.412,-0.497125275652147,5893.197684117782
0.416,-0.5028913978243298,5902.957856308408
0.42,-0.4558269197169352,5901.973127727119
0.424,-0.37159349273123593,5897.46932394862
0.428,-0.26892555673353513,5889.996741874756
0.432,-0.16475226602894105,5904.401518767712
0.436,-0.07152658965915255,5906.541502886003
0.44,0.003047675120666611,5898.604174677231
0.444,0.054829249285899655,5891.938471902483
0.448,0.08185566955736724,5887.246901479508
0.452,0.0837035949721362,5899.35329460482
0.456,0.06180799739940917,5894.502344239428
0.46,0.020156019164698193,5897.422622620082
0.464,-0.034544736153047456,5905.300689762482
0.468,-0.09370699756325887,5891.933656820584
0.472,-0.1484920576387878,5892.825376686487
0.476,-0.19160113109275553,5901.497016723379
0.48,-0.2186316112836919,5892.786102437116
0.484,-0.2286619093125771,5896.031826301722
0.488,-0.2240553282324087,5900.810450764297
0.492,-0.20970359730008517,5911.439879164594
0.496,-0.19191240013721347,5903.790827011093
0.5,-0.17695752925367364,5893.583877465926
0.504,-0.16934470895976692,5898.74105061441
0.508,-0.17013477896774576,5899.544635149327
0.512,-0.17605856898548097,5901.931808307715
0.516,-0.18011385255793783,5895.916093338219
0.52,-0.17377515283824238,5900.897201498652
0.524,-0.15016143682075128,5899.859673305984
0.528,-0.10702457547542224,5904.013338219603
0.532,-0.04849981074599744,5898.041572474658
0.536,0.015022775782791053,5899.11758677541
0.54,0.06903817222911177,5902.699303517436
0.544,0.09860751838771853,5903.195651394637
0.548,0.09253318078600634,5895.554926444391
0.552,0.046745349613885614,5897.68707109093
0.556,-0.0341727365879595,5899.644879623431
0.56,-0.13785837195358214,5902.494608958293
0.5640000000000001,-0.24722752302252377,5901.208588137014
0.5680000000000001,-0.34471861418081506,5899.731683615219
0.5720000000000001,-0.41626772788475075,5896.782901798095
0.5760000000000001,-0.4538075529125727,5902.105550700882
0.58,-0.45600692547310984,5901.903224088092
0.584,-0.4278525120093692,5906.789279354117
0.588,-0.3796648675328589,5894.720097613744
0.592,-0.3254018886467976,5920.49696121459
0.596,-0.27981832882713215,5892.392102725732
0.6,-0.25481694608391664,5896.779123598911
0.604,-0.2562624572660083,5903.3409938272725
0.608,-0.2825696402216944,5905.660028642417
0.612,-0.325613396712548,5906.217441970724
0.616,-0.37362981937400364,5900.4489181746185
0.62,-0.4151063396635954,5903.379319950343
0.624,-0.4422939939375762,5908.784067385857
0.628,-0.45309435196217335,5893.989694128465
0.632,-0.45070194731211966,5901.703791505567
0.636,-0.44127378927380956,5903.20589990176
0.64,-0.4307163842896303,5895.258085382964
0.644,-0.42208585342868016,5900.63932390046
0.648,-0.41481858838303515,5902.888878119122
0.652,-0.4060860709222545,5898.506966834797
0.656,-0.39342446349531685,5899.849429939776
0.66,-0.3770370485669523,5893.484114596299
0.664,-0.36030161495454927,5895.664957668929
0.668,-0.34808524919787776,5895.865595025753
0.672,-0.3438477809700985,5905.450183839717
0.676,-0.34722231906853723,5908.361433771658
0.68,-0.3533413738772503,5892.137575439088
0.684,-0.35413949299786046,5892.446665928218
0.6880000000000001,-0.34103373514844737,5900.577961879035
0.6920000000000001,-0.3080558013936507,5894.217576723699
0.6960000000000001,-0.2544563319932583,5902.777359251175
0.7000000000000001,-0.1858543969286962,5895.936017493771
0.704,-0.11335162569070345,5902.121792897307
0.708,-0.050858638538690375,5895.578671186479
0.712,-0.011783910424957774,5903.866341864338
0.716,-0.006367212478845437,5900.639902157724
0.72,-0.04008575742615602,5895.0473563306405
0.724,-0.11262862384745474,5905.365551685504
0.728,-0.21693069055801648,5907.370109106858
0.732,-0.3386034480359127,5894.84025555818
0.736,-0.456830461636116,5902.493408924639
0.74,-0.5476282038791186,5901.244499380007
0.744,-0.5893256646989742,5894.772160032218
0.748,-0.5688192258079796,5894.47977974741
0.752,-0.4863682304688749,5904.460804923488
0.756,-0.35689585231804694,5905.54877477984
0.76,-0.20695308837540716,5900.3726265890655
0.764,-0.06820543458686429,5895.382260565144
0.768,0.03031702249892002,5892.790335070122
0.772,0.0687028009786586,5908.6705049015845
0.776,0.03984299079972169,5898.502580501038
0.78,-0.04984226842953414,5892.956332296756
0.784,-0.18199125991441867,5901.0028325313415
0.788,-0.3294963587706057,5897.201842760992
0.792,-0.4608481776082908,5894.758488275484
0.796,-0.5454152935405516,5900.752160553593
0.8,-0.5594607997746462,5904.07866144133
0.804,-0.4921394621060429,5899.158841414246
0.808,-0.3497418131755007,5900.365897148055
0.812,-0.15602531841201148,5895.604620950168
0.8160000000000001,0.05253531713537544,5896.355922787594
0.8200000000000001,0.2356529160243764,5898.869839816528
0.8240000000000001,0.35947365454000874,5896.265145408067
0.8280000000000001,0.4047971104687381,5892.699691260612
0.8320000000000001,0.3708149076830637,5906.26267782859
0.836,0.27363085548820154,5898.229412542869
0.84,0.1405932923805967,5902.092045743751
0.844,0.0026706378014454617,5904.943013806208
0.848,-0.11274115526268409,5903.883716813251
0.852,-0.1870374808624926,5897.363447019878
0.856,-0.21319547445009054,5898.839218740271
0.86,-0.1961922760851226,5896.803132304062
0.864,-0.15106616371014328,5894.471193285924
0.868,-0.09876704183681563,5900.545557305616
0.872,-0.06061802618960677,5898.244721484004
0.876,-0.05287990806881801,5901.790805321085
0.88,-0.0828416265683541,5900.662696344956
0.884,-0.14717691031433902,5888.070143768065
0.888,-0.23274018168689592,5904.117461953355
0.892,-0.3197082703385587,5899.617698450738
0.896,-0.38657072435037676,5895.0138055121415
0.9,-0.4158204390530523,5912.31888754866
0.904,-0.3987241660093872,5899.087797949853
0.908,-0.3376676173896668,5892.989107144974
0.912,-0.24535236435548752,5894.736615885125
0.916,-0.14123864893560423,5897.916598065386
0.92,-0.04648393747014574,5892.460411671119
0.924,0.021115880443355595,5913.1313038231865
0.928,0.050911225023949194,5904.158788408403
0.932,0.041164557841013374,5897.552927631266
0.936,-0.0013214601898111885,5891.804772357459
0.94,-0.06336662016426832,5907.469831818428
0.944,-0.128788041544849,5897.580629999818
0.948,-0.18220100500284697,5896.978116601597
0.952,-0.21223967799076746,5904.210024545649
0.956,-0.21331785526414646,5898.17309090687
0.96,-0.18574710597731037,5897.471051516986
0.964,-0.13486016795056135,5895.176416789069
0.968,-0.0700013939934614,5907.555851742573
0.972,-0.003642345878974083,5909.53976200584
0.976,0.04996054224245017,5904.650112045248
0.98,0.0774281066674421,5894.803097466809
0.984,0.0703919925691604,5901.168448238422
0.988,0.029840391692905487,5894.563863205512
0.992,-0.031655540758724475,5904.821443422761
0.996,-0.09181116847896398,5894.173628413943
1.0,-0.12475088662536461,5891.175857242783
1.004,-0.10944720548696912,5907.584343888523
1.008,-0.037472758112261625,5899.350801538581
1.012,0.08263425962702148,5901.297297085597
1.016,0.22590701406937258,5902.169802744191
1.02,0.35641101236846207,5891.01189387115
1.024,0.43622383438159695,5895.600503932947
1.028,0.43559420115691355,5909.258537499058
1.032,0.3418750546252968,5900.272537589509
1.036,0.16550028200475733,5903.593777870883
1.04,-0.057886124296861956,5908.254925701674
1.044,-0.2694878988110382,5898.050668642367
1.048,-0.39372627447691405,5899.6532015538805
1.052,-0.34893027595375076,5899.620664868266
1.056,-0.061894640639792345,5893.241368933182
1.06,0.5153222186964722,5892.6227225708135
1.064,1.3896740453634504,5899.628895089238
1.068,2.517232079005826,5903.7670382283495
1.072,3.804089961219006,5896.262491836734
1.076,5.1208766014824265,5899.164208994447
1.08,6.3287374048198615,5905.130008361207
1.084,7.309029825790971,5897.447992434931
1.088,7.986700996805979,5901.585563783815
1.092,8.34030782975245,5896.8984662997655
1.096,8.397606614403541,5898.553073836617
1.1,8.220713938769803,5899.582704003466
1.104,7.8870050586718,5895.401937242562
1.108,7.471386026971912,5900.887668765502
1.112,7.033598480224691,5900.5171631509465
1.116,6.612138826829676,5904.622972273663
1.12,6.22482652462595,5888.715723216863
1.124,5.874711407720441,5903.417452280142
1.128,5.558576198564669,5903.3758699415575
1.132,5.2744146763484965,5899.1054680159805
1.136,5.024914627957162,5898.896499472274
1.14,4.816137681890278,5899.35741888563
1.144,4.653042232423494,5900.588049139595
1.148,4.534851614804847,5897.163000023746
1.152,4.452954191688831,5897.402562319262
1.156,4.392352982504721,5898.39761637956
1.16,4.335634672457342,5909.278423629846
1.164,4.267275187979903,5903.972064586167
1.168,4.1764667769329025,5904.499152845767
1.172,4.057904220357987,5908.405312708375
1.176,3.9110283515516766,5905.730391143612
1.18,3.7386548619374222,5893.32970340214
1.184,3.5458304000731538,5901.483614334316
1.188,3.3392933415383266,5904.159872268981
1.192,3.1272707220027653,5906.346096054456
1.196,2.91893821698817,5908.8036434104815
1.2,2.7230882627547106,5905.000657559579
1.204,2.546304534645148,5902.852642677597
1.208,2.39157815258199,5895.363459297945
1.212,2.258180705716926,5903.022293612138
1.216,2.14285255908799,5903.312281761371
1.22,2.0416835560956956,5904.230492695081
1.224,1.951871695446938,5895.074300705949
1.228,1.8726959641164105,5896.099347355353
1.232,1.8053173980059647,5907.483769601219
1.236,1.751431112473513,5911.408542819753
1.24,1.7113137062752968,5900.788964811928
1.244,1.68219553616071,5901.526063351608
1.248,1.657843089080736,5907.659703332841
1.252,1.6297307666244476,5895.247109683932
1.256,1.5894789113379046,5896.427198813505
1.26,1.5316550018809874,5904.117844830224
1.264,1.455782118574709,5910.01658163121
1.268,1.3666347382574624,5899.313981531966
1.272,1.2726438958733626,5902.387801233725
1.276,1.183108403184804,5902.716306249597
1.28,1.1053968590048302,5897.9816187085
1.284,1.0432379941724834,5892.064887590641
1.288,0.9966607907616416,5908.25872700035
1.292,0.9633787903752761,5905.303753140307
1.296,0.9407355454316082,5896.342753862697
1.3,0.9270940112326622,5900.930793597834
1.304,0.9219144094918049,5901.221401098025
1.308,0.924561477578748,5891.439454123227
1.312,0.9326347274043629,5886.957681540756
1.316,0.9407987542492384,5891.011012592916
1.32,0.9407032721991133,5887.809190463424
1.324,0.9221427948358079,5890.836316426583
1.328,0.8753671878409516,5882.965950879119
1.332,0.7941464519125583,5890.828862479534
1.336,0.6786964428284309,5886.66492563477
1.34,0.5372511782961527,5883.870962791011
1.344,0.38530910111602346,5888.1396367426405
1.348,0.24240973670761404,5893.9164160506325
1.352,0.1273705272280701,5876.900194161167
1.356,0.05366013939483997,5879.953413355726
1.36,0.0265376284630975,5887.450056986802
1.364,0.042735152189922236,5877.372675067194
1.368,0.09229592104766614,5881.983660363195
1.372,0.16143168349876144,5884.164364321996
1.376,0.2353640541573633,5874.821242119889
1.38,0.30071770160288386,5884.3623053751135
1.384,0.347405450797307,5874.50526056514
1.388,0.3698736044207287,5880.652653959802
1.392,0.36748709117788847,5880.701028217732
1.396,0.3440113861579713,5875.531673912337
1.4,0.30636257075020107,5872.82731275779
1.404,0.26281265319672853,5875.303145852599
1.408,0.22082687161468542,5871.963398528723
1.412,0.18495639086261642,5871.17635907057
1.416,0.1556003158187681,5881.148430442461
1.42,0.1294624984649348,5877.578959484336
1.424,0.10181599436244791,5875.812698991736
1.428,0.06961111664167119,5870.679569492968
1.432,0.03382511150201697,5867.362897392131
1.436,-0.00024734153497889825,5878.100440289379
1.44,-0.024975451666875353,5869.567212893593
1.444,-0.03360225576010129,5875.869129976635
1.448,-0.022963617219273508,5877.026192798327
1.452,0.005635942883287176,5867.506315049859
1.456,0.04752753654907852,5869.342863837303
1.46,0.09665419966713437,5863.5305805386015
1.464,0.14692001495779186,5870.677515013865
1.468,0.19212727623585193,5867.840534181573
1.472,0.22494148330095484,5869.759328903814
1.476,0.23618810249159317,5868.487928174551
1.48,0.2157999365453249,5870.6052632378005
1.484,0.15584880759439154,5865.614741282508
1.488,0.05468575685953412,5858.23133093333
1.492,-0.0798233763205259,5869.7744508598
1.496,-0.2298409043705117,5866.415950106485
1.5,-0.3705487522577576,5870.371852999136
1.504,-0.4757878533903955,5863.160746493492
1.508,-0.5245287386953894,5869.122001914337
1.512,-0.5061499032802237,5863.174988965313
1.516,-0.4230513132724772,5868.444896931826
1.52,-0.29005685433488704,5869.21307497484
1.524,-0.1309851950518846,5867.009428258772
1.528,0.026519856103789284,5859.589610769054
1.532,0.15646468739334948,5863.180391083776
1.536,0.238949786936785,5863.001959046882
1.54,0.2627187323908839,5860.5525671332125
1.544,0.22563889167833256,5866.069592070123
1.548,0.1336013657974789,5861.035627821205
1.552,-0.0013475626993862976,5855.035796304842
1.556,-0.16301148503247992,5862.644654309328
1.56,-0.3330100191469317,5855.874392213511
1.564,-0.492759960249992,5859.459767331195
1.568,-0.6253650504202958,5860.109595186959
1.572,-0.7171543357746145,5857.405534955157
1.576,-0.7587490756676123,5860.62192562454
1.58,-0.7457511709434058,5861.011709985248
1.584,-0.6791824894428526,5867.645347678315
1.588,-0.5656978426718011,5856.7689511513445
1.592,-0.41744169600833164,5865.527196492731
1.596,-0.25128254432225466,5861.477309737964
1.6,-0.08713855935276711,5866.810798294339
1.604,0.05471718824609862,5857.189544164754
1.608,0.15714206092185629,5856.949684434947
1.612,0.20972873958994934,5855.117091697585
1.616,0.21139687085062495,5867.239216286008
1.62,0.1706871807341071,5853.9234824156165
1.624,0.10314640620501829,5860.471808941934
1.628,0.02658819910539412,5867.115914780582
1.632,-0.043884650366862545,5859.977567245206
1.636,-0.09925554530520131,5856.07951051716
1.64,-0.13745061629251853,5859.648791119414
1.644,-0.16178451435871213,5857.136447273238
1.648,-0.1778297146203024,5853.988525822168
1.652,-0.18994996851262144,5864.263835971294
1.656,-0.19883509802187352,5857.331396061796
1.66,-0.20106847106753664,5861.026380435359
1.664,-0.19097263458698044,5853.844150724716
1.668,-0.1639637542883925,5858.932238037417
1.672,-0.11994429589113798,5855.059053177499
1.676,-0.06524192965804006,5851.924173700701
1.68,-0.012234503425660959,5856.15313857315
1.684,0.023264578132150972,5855.011448164507
1.688,0.02605282026147954,5857.890514473898
1.692,-0.014096397149242495,5868.241438826441
1.696,-0.0989279343268762,5855.447876125786
1.7,-0.22015059183936106,5855.527631738638
1.704,-0.36048925664759635,5852.822324238368
1.708,-0.49718843989451256,5854.442101516164
1.712,-0.6070112324414857,5854.019883109058
1.716,-0.6713906967409391,5858.39474021896
1.72,-0.6805027580438553,5851.843862544875
1.724,-0.6354192125953472,5856.877362586808
1.728,-0.5479009679022646,5847.806507482937
1.732,-0.43777476025246653,5849.740200426227
1.736,-0.32836004895376014,5857.45814300551
1.74,-0.24107802486758997,5859.50248985174
1.744,-0.19085020178228831,5858.502395647834
1.748,-0.1837516183169885,5853.217583232418
1.752,-0.2174974147763049,5854.522658332811
1.756,-0.2840753486163277,5849.665199314377
1.76,-0.37289840076023306,5853.431891224544
1.764,-0.47287939827695236,5853.197685505437
1.768,-0.5728699709545413,5849.781843490699
1.772,-0.6612287443910436,5848.65747433422
1.776,-0.7258858211495783,5858.840314118317
1.78,-0.7557348952156744,5858.17930352432
1.784,-0.7430620193193067,5850.682897236636
1.788,-0.6859253684300414,5857.116173760315
1.792,-0.5893345673420258,5852.72613364018
1.796,-0.46459953434627865,5853.71840417776
1.8,-0.32704591543403017,5859.599250684554
1.804,-0.19299429900666065,5851.041165880358
