时间(s),电压(V),幅值(高频80K)
0.0,-0.5564061077233493,5894.786770934526
0.004,-0.638876896850876,5898.417346912333
0.008,-0.6805691180994848,5898.590020716629
0.012,-0.6533716195429845,5895.640623816606
0.016,-0.5499221397055176,5905.921734855981
0.02,-0.3858491494843914,5903.382472117785
0.024,-0.19492763777750577,5899.99058517813
0.028,-0.01873375819133932,5900.209212665665
0.032,0.10534803304421693,5902.977796733835
0.036,0.15368002661390626,5913.8970009627255
0.04,0.12119692524096747,5898.480207022479
0.044,0.02123570772910702,5897.015473610654
0.048,-0.11894319728532045,5891.037347338929
0.052,-0.2658708992999267,5895.5607359377445
0.056,-0.3890302463060174,5912.625448226109
0.06,-0.46885638465303003,5902.598682372752
0.064,-0.5010251604441207,5895.889591222953
0.068,-0.4957943092242179,5899.379714449452
0.072,-0.47305561822195463,5899.004932599863
0.076,-0.4551317012723735,5897.93216700638
0.08,-0.4597037122262216,5901.859554215742
0.084,-0.4948042723777356,5895.06765573821
0.088,-0.5569639534214205,5905.104132553946
0.092,-0.6326184353830648,5902.077755411222
0.096,-0.7019290415020102,5901.041496598443
0.1,-0.743558691924616,5896.657988344191
0.104,-0.7390761778396321,5912.066142147438
0.108,-0.6764087800352124,5908.617047803067
0.112,-0.5523388010161748,5906.385085504964
0.116,-0.3739048294445074,5903.7918492521785
0.12,-0.15816399696610925,5897.507928735276
0.124,0.07006203305871496,5888.757959542821
0.128,0.2820380932240591,5904.657745497232
0.132,0.4496123077956099,5899.788303076519
0.136,0.5497099920943886,5903.119574103983
0.14,0.5686594468656535,5897.898422388472
0.144,0.5059674617787289,5904.991513881359
0.148,0.3763896234066941,5903.577823433953
0.152,0.2086984683486538,5901.103613258227
0.156,0.04019024307901688,5899.420287230933
0.16,-0.09227640453530303,5895.839339721788
0.164,-0.16202691507938238,5905.418691624141
0.168,-0.15971574042317566,5895.972615765272
0.172,-0.09540237338017073,5897.7539234260985
0.176,0.004988812423229944,5902.59175835161
0.18,0.1074114820283324,5891.829412466187
0.184,0.1789956899433379,5890.354307092887
0.188,0.19606270095400655,5902.316741511966
0.192,0.1487474824871671,5905.395158757257
0.196,0.041473808037002874,5909.780134134336
0.2,-0.10997895546826715,5896.027127072758
0.204,-0.28314570343936635,5902.456611770921
0.208,-0.45365791783708087,5897.05018551799
0.212,-0.5992386122517686,5897.413988480466
0.216,-0.7026942576133166,5902.072737481207
0.22,-0.7538627219992782,5902.126063493164
0.224,-0.7503148467456133,5901.4026481587
0.228,-0.6966661466309834,5907.323890624411
0.232,-0.6027784714312665,5894.124715211542
0.236,-0.4814240074202626,5900.92656934925
0.24,-0.34586482911979066,5895.050690357538
0.244,-0.20770092804453874,5895.039460354323
0.248,-0.07553611761373345,5891.142632373439
0.252,0.04503114212618455,5904.820689009273
0.256,0.15031263023478858,5905.210053442226
0.26,0.23740604049742967,5898.473530869012
0.264,0.3041433272335159,5900.445585716245
0.268,0.3501687116003481,5904.10181048171
0.272,0.3779156832913241,5888.137765756832
0.276,0.39203518182689306,5901.0275046942215
0.28,0.39711756101596174,5899.078342467848
0.284,0.39516257090538387,5904.5856362622
0.288,0.3845669297773779,5894.042260587395
0.292,0.36117685579578224,5905.730875243278
0.296,0.3204624966201648,5901.983604546394
0.3,0.2593578764383269,5892.080107628942
0.304,0.17684399792667058,5900.739650453235
0.308,0.07328264673093479,5902.157455355342
0.312,-0.05068816921566381,5898.603295795785
0.316,-0.19462531311040887,5893.7709182003
0.32,-0.35761505386012304,5891.671384246587
0.324,-0.5369300944271647,5899.700681269944
0.328,-0.7269119822357551,5901.279736620037
0.332,-0.9186515310248923,5906.256792966055
0.336,-1.100521587493559,5898.466058278479
0.34,-1.2594249093134056,5892.4878699726505
0.344,-1.3826911270984348,5898.331061814861
0.348,-1.4605340411556014,5889.957727942603
0.352,-1.488601015957311,5898.818469701198
0.356,-1.4695398087049294,5898.341723075212
0.36,-1.412369379615358,5899.684709696254
0.364,-1.3294169208348279,5902.646431722402
0.368,-1.23218984999314,5894.656349471878
0.372,-1.1283997904247458,5904.386028704676
0.376,-1.0216651164840047,5893.501833324203
0.38,-0.9136815164413707,5896.162245141019
0.384,-0.8070446363214395,5895.882619327965
0.388,-0.706575414237391,5901.193284823564
0.392,-0.6182595477100596,5899.618224001996
0.396,-0.5467572643562277,5909.337852755984
0.4,-0.49332023973249345,5909.136936365162
0.404,-0.45529987723100135,5898.371409317012
0.408,-0.4270917853227685,5892.987012916229
0.412,-0.40157868431663574,5898.505408051034
0.416,-0.37130330948598356,5901.046750603815
0.42,-0.3291474346455253,5897.307278341538
0.424,-0.2686966093485439,5909.002054254607
0.428,-0.1847926453903524,5897.291905176112
0.432,-0.07493021621164088,5904.932394419219
0.436,0.0583462311855639,5889.678198931333
0.44,0.20500240800817912,5895.837329355516
0.444,0.3467491226967565,5897.037283673965
0.448,0.45921806053948133,5901.763563545193
0.452,0.5170055344598201,5898.726430729546
0.456,0.5003391818708114,5903.086168186157
0.46,0.40154964997901677,5906.705881941906
0.464,0.22928698486502763,5896.470449912048
0.468,0.008591641008542325,5901.633758447839
0.472,-0.22404072723565763,5889.243042801293
0.476,-0.42970727204077125,5894.6764898353695
0.48,-0.5776353863228566,5898.317075373634
0.484,-0.6536093641136245,5900.552099087362
0.488,-0.6630221298777951,5909.449215481713
0.492,-0.627131953869026,5904.519880209324
0.496,-0.5738418234654228,5898.081992156094
0.5,-0.5266920533508662,5899.47658259514
0.504,-0.4965638336895626,5902.39800425186
0.508,-0.4793681578756128,5899.302515957341
0.512,-0.46031079472687975,5902.733841679728
0.516,-0.42242445942574286,5897.721045062664
0.52,-0.35527036961959496,5894.148110667307
0.524,-0.25994048758037974,5902.1340142624085
0.528,-0.14861819566703868,5897.799363921878
0.532,-0.03967433894284444,5904.428501138528
0.536,0.04896454365501584,5900.309123876317
0.54,0.10528698342125269,5907.865864090295
0.544,0.12571330904673123,5895.917833732479
0.548,0.11446466487276134,5897.762148142349
0.552,0.08088625198991849,5905.348720688278
0.556,0.03619020200909562,5903.598979213745
0.56,-0.009397300105956446,5908.42384378506
0.5640000000000001,-0.04870997011630824,5903.766717181296
0.5680000000000001,-0.07881128431246791,5904.524611056123
0.5720000000000001,-0.1010828907557314,5906.778365169922
0.5760000000000001,-0.12000930379570027,5901.695756228564
0.58,-0.14075686261963297,5886.831369644674
0.584,-0.16634115655734188,5901.498070930079
0.588,-0.19564926291925325,5897.453980170775
0.592,-0.22332502277530514,5898.807098164085
0.596,-0.24176663779832808,5899.590857491735
0.6,-0.2446824387910275,5898.276041257136
0.604,-0.2308998825117345,5900.052274531815
0.608,-0.2065360107079886,5896.512782442104
0.612,-0.18384401618469046,5905.054302048571
0.616,-0.1765995441336104,5902.468581623013
0.62,-0.19409204467231164,5893.923412851965
0.624,-0.2369145987261167,5903.13604344179
0.628,-0.2967765460706656,5893.734520538733
0.632,-0.3602181696019259,5900.366194419963
0.636,-0.414016416824049,5895.358717229589
0.64,-0.44940107104945615,5901.021181957726
0.644,-0.46315878948916117,5906.047587491828
0.648,-0.45571362670747334,5894.074015032164
0.652,-0.42815584880271723,5896.274592558886
0.656,-0.3806557660209532,5900.23899809411
0.66,-0.313409150881438,5888.721386503272
0.664,-0.22929045331681033,5900.576390915208
0.668,-0.13625393023549223,5898.3078244776925
0.672,-0.047825646351027755,5904.869817507135
0.676,0.01884994078899549,5905.142597748259
0.68,0.04699487639783456,5901.375346883265
0.684,0.02534907179728969,5899.884486747914
0.6880000000000001,-0.04673896046964307,5902.614140464341
0.6920000000000001,-0.1560394482378997,5906.312695804665
0.6960000000000001,-0.2759373678161725,5902.536324434802
0.7000000000000001,-0.37181236893604325,5897.292047623574
0.704,-0.41059631803759794,5904.429158630101
0.708,-0.37180438787236697,5903.203607497288
0.712,-0.2561587808191121,5895.185028519509
0.716,-0.08827241079837501,5905.484982487023
0.72,0.08824425897510002,5913.1061761695
0.724,0.22219394505171952,5899.222836780664
0.728,0.26925983164037515,5902.515890435479
0.732,0.204936399895757,5890.493988906562
0.736,0.0319444246836161,5904.485201879112
0.74,-0.21985543246258749,5899.923161014645
0.744,-0.5006410009967343,5892.29985184062
0.748,-0.7525601970243783,5898.877310363269
0.752,-0.923016004731599,5895.295210557515
0.756,-0.9758500476557189,5897.229654156979
0.76,-0.8979489573118556,5896.017205239668
0.764,-0.7004964723757389,5903.558775631924
0.768,-0.4156720162955479,5894.2768410029685
0.772,-0.09023835896279402,5906.5891443753
0.776,0.22274197657142014,5897.09600991088
0.78,0.47300834709689143,5898.628949585749
0.784,0.6217185349162004,5902.874618864868
0.788,0.6481072620553888,5897.910369395656
0.792,0.5530361704694784,5899.192111350844
0.796,0.35874065845182107,5902.49474400089
0.8,0.10446087142534989,5904.522611235442
0.804,-0.16161017775677375,5910.146978846479
0.808,-0.39241484100130286,5895.460294608482
0.812,-0.5515497461638714,5897.375452038102
0.8160000000000001,-0.6197086826891054,5902.216144110745
0.8200000000000001,-0.5967710430878307,5904.786824240996
0.8240000000000001,-0.4997948325683046,5896.000089725883
0.8280000000000001,-0.3580744041918369,5902.209211722644
0.8320000000000001,-0.20656055321703573,5899.130985582249
0.836,-0.07881237348125002,5897.2550297945945
0.84,-0.0005912164320043818,5896.303480056488
0.844,0.014797882542518936,5900.424638412076
0.848,-0.031541159942184586,5895.293958758624
0.852,-0.12532443977052618,5904.156121853366
0.856,-0.24323666201467087,5898.094583170291
0.86,-0.3590614048164446,5910.365823507927
0.864,-0.4504087536396472,5897.6947409596005
0.868,-0.5043920392070775,5900.708697982519
0.872,-0.5205306452561821,5899.015645251829
0.876,-0.5094820083328906,5896.513812556882
0.88,-0.48734196850583067,5903.720770044829
0.884,-0.4673619514676909,5893.845622515451
0.888,-0.4530182232759522,5892.384063257791
0.892,-0.436462994192634,5886.639987440292
0.896,-0.403611098192272,5904.322396795422
0.9,-0.3431374929453856,5901.314871483965
0.904,-0.2543560234824633,5901.257246656095
0.908,-0.1498330791842711,5905.618923928351
0.912,-0.05172426567719052,5904.787682938604
0.916,0.01606412503081164,5899.435558453958
0.92,0.03634739459209803,5890.357135154003
0.924,0.004595417131644058,5894.15244080451
0.928,-0.06948324418526823,5895.294802954427
0.932,-0.16493988119033018,5905.906370260115
0.936,-0.255965865115358,5899.345723427827
0.94,-0.3193807056491939,5904.083809588126
0.944,-0.3406489141834109,5901.086037120344
0.948,-0.31662131588180076,5904.78326570459
0.952,-0.25471852919202675,5897.401455730341
0.956,-0.169620583082029,5909.735481651498
0.96,-0.07899225696672074,5890.452449730648
0.964,0.0005511449972461869,5897.36513643858
0.968,0.056577333900160474,5907.702083757485
0.972,0.0827512596773208,5893.380662156558
0.976,0.07936602689840216,5897.255371276493
0.98,0.0525801138650631,5903.313613398185
0.984,0.01284401310691373,5903.866039991221
0.988,-0.02688128901245584,5900.6924656286565
0.992,-0.052899183176251516,5898.095759113931
0.996,-0.052751512886099736,5899.0714307486
1.0,-0.017507736037727827,5904.766039611674
1.004,0.05595771811513293,5898.225378981399
1.008,0.16330601424602859,5903.766074606676
1.012,0.29220421725221885,5903.224064362346
1.016,0.4231162956181996,5904.0599064937605
1.02,0.5313817651562118,5904.455616495271
1.024,0.5906445382327982,5902.043273780621
1.028,0.5777775997790783,5905.748162035777
1.032,0.4788845344675725,5899.254812808623
1.036,0.2948629879302,5908.49079311079
1.04,0.04436293045050265,5900.205364805199
1.044,-0.2376187660528929,5897.987111036769
1.048,-0.5060211007192932,5904.141570263975
1.052,-0.7156991623916604,5898.583829539444
1.056,-0.8322744242197283,5910.741493678349
1.06,-0.8403914646888335,5896.827261349761
1.064,-0.746926195134362,5902.214334398337
1.068,-0.5786894984813732,5899.825470235685
1.072,-0.3758815315304017,5898.014956774528
1.076,-0.18333497838455146,5898.138406444046
1.08,-0.04157067254799816,5898.847071557828
1.084,0.020767556577477066,5901.29110792118
1.088,-0.007913923807464541,5895.184797445659
1.092,-0.1200095249124035,5907.181743172481
1.096,-0.2900598537885141,5905.100317216789
1.1,-0.47982503927851416,5907.202338597477
1.104,-0.6465698231522639,5903.374574194554
1.108,-0.7528273255700366,5889.2943405039805
1.112,-0.7750387073137329,5905.566033127731
1.116,-0.7086948765871899,5885.387614419888
1.12,-0.5687232127356511,5892.6592800256085
1.124,-0.3851163715934666,5912.762763739902
1.128,-0.1949054721620573,5903.632149087724
1.132,-0.03265284324155048,5898.444272457661
1.136,0.07765819129676464,5904.223267571575
1.14,0.12684287295463115,5893.888865636117
1.144,0.11991193469578364,5901.895783243989
1.148,0.07165557571759915,5913.563261377916
1.152,0.0007309248223319365,5894.400724958995
1.156,-0.07537127372211673,5896.446527405387
1.16,-0.14317141081122603,5905.04040984881
1.164,-0.1939359750910958,5896.1226965486485
1.168,-0.22322141173500185,5901.907153123647
1.172,-0.2301387846854362,5901.254953739279
1.176,-0.21675284645806067,5898.188005122846
1.18,-0.18757892728853318,5897.622480104765
1.184,-0.14893241048874048,5899.570989010686
1.188,-0.10785046773494514,5901.213568377115
1.192,-0.07048939430750845,5897.048932902659
1.196,-0.04032059236141434,5901.3137437280375
1.2,-0.016861431789282164,5897.986338646831
1.204,0.004252479697527987,5905.414230077287
1.208,0.029539981690318896,5899.825860231725
1.212,0.06488355334346206,5898.761645148396
1.216,0.11292950847728507,5887.313373884793
1.22,0.17178773716202086,5907.886216434114
1.224,0.23539433295246484,5903.668613432104
1.228,0.29520324304579276,5909.544772413574
1.232,0.34248559539720025,5900.758243449053
1.236,0.37029282920637274,5899.087580108019
1.24,0.374136249144807,5887.33338885488
1.244,0.35098250539928544,5901.081388568496
1.248,0.29729216691857396,5902.3904176389415
1.252,0.20788261276211303,5916.118029618231
1.256,0.07737634677567079,5889.612578799896
1.26,-0.09548772465371903,5903.502571264096
1.264,-0.3024891611377136,5902.82811104951
1.268,-0.5225624009490734,5898.565970966051
1.272,-0.7230750098206352,5896.900551442848
1.276,-0.8664913073801446,5894.6720599759965
1.28,-0.9206786238321386,5901.92943125746
1.284,-0.869266226495522,5897.5780547767
1.288,-0.7182154844227256,5894.321565131695
1.292,-0.49613471820497046,5909.453208663727
1.296,-0.24804726657410217,5905.765287192851
1.3,-0.024406798183264494,5898.764403306414
1.304,0.13134571487022537,5898.686609901512
1.308,0.1928958432983421,5895.469124007365
1.312,0.15599021158247495,5907.596110665637
1.316,0.037415966160479736,5908.466795458523
1.32,-0.1307306824331671,5908.919779491006
1.324,-0.30926269902343934,5910.035863948108
1.328,-0.4604145013106681,5910.709895939552
1.332,-0.5549960818640964,5898.442532117384
1.336,-0.5772344163397986,5890.518039518802
1.34,-0.5268953748733488,5905.531764645594
1.344,-0.4184692245402247,5902.87933766098
1.348,-0.27729449264661304,5905.469051176653
1.352,-0.13296546723152952,5905.000969894937
1.356,-0.011291991960512336,5900.1760759511935
1.36,0.07294875908144904,5901.149022402477
1.364,0.11985695453944681,5898.858035491184
1.368,0.14306751346433907,5906.992277862903
1.372,0.1634362929864675,5895.693723385662
1.376,0.2001680736387853,5897.315122284525
1.38,0.26285974336587475,5897.796642576112
1.384,0.34723373214392617,5898.805211289006
1.388,0.4355801521377493,5893.275460274493
1.392,0.5014700784804912,5904.682491721929
1.396,0.5176459654177431,5898.385136631072
1.4,0.4653787665616538,5902.093225488889
1.404,0.3424922824922687,5904.230674547865
1.408,0.16665381915030028,5890.998213011554
1.412,-0.02822314791875468,5900.488253440429
1.416,-0.2016752295628311,5899.514412347682
1.42,-0.31880652023787864,5912.59882408337
1.424,-0.3600934755924118,5903.893845255418
1.428,-0.3254815492849181,5895.247095674975
1.432,-0.23219303918257214,5899.447783870985
1.436,-0.1081448430137755,5902.3432952085295
1.44,0.016262445093934656,5898.155361550012
1.444,0.11571228693090083,5892.859228273194
1.448,0.17539514632433512,5913.696874996872
1.452,0.19331862039538278,5903.270400076387
1.456,0.17909089365293154,5899.144745609447
1.46,0.14962950960396149,5903.323001463617
1.464,0.12322966607068131,5905.864591357775
1.468,0.11398640034874699,5892.649267224168
1.472,0.12831604919218137,5905.641708370601
1.476,0.16437159049016092,5911.781342925906
1.48,0.21398335103496013,5895.010814990643
1.484,0.26595056890265456,5899.395566721665
1.488,0.3094416032505822,5889.473892303471
1.492,0.3367219239887076,5896.886241164007
1.496,0.3447560458287205,5892.536583612131
1.5,0.3353027362704754,5889.737843254425
1.504,0.3134475306592563,5898.963498924331
1.508,0.28508754159734223,5893.637248136349
1.512,0.25419673250437136,5908.031169659544
1.516,0.22075024943020463,5905.205373779576
1.52,0.18023918010692258,5908.7402490285285
1.524,0.12547981077174705,5906.749320797121
1.528,0.05043026529121917,5900.71834199675
1.532,-0.045684007347841414,5887.538599001807
1.536,-0.1562332883425018,5887.578063754268
1.54,-0.26837567406383395,5892.211584409843
1.544,-0.3671051434230133,5906.589459375813
1.548,-0.4402263445384631,5897.282862649892
1.552,-0.4818916909018963,5901.620216642519
1.556,-0.4931435827236341,5901.273564893731
1.56,-0.4796937051185092,5903.40786734791
1.564,-0.44882356711668225,5898.805405470684
1.568,-0.40744444536476804,5895.7391497457165
1.572,-0.36183425075202025,5885.922323545414
1.576,-0.3178932298734125,5898.389330176173
1.58,-0.2805871945608034,5910.261048687191
1.584,-0.2524173840894557,5899.54217197959
1.588,-0.2318356590870726,5901.279020302659
1.592,-0.21279326627609618,5905.316277334121
1.596,-0.18624186097269047,5899.492973235727
1.6,-0.14348839164635718,5894.790325126396
1.604,-0.08009710167674634,5902.447676336661
1.608,0.0015645152816830034,5908.833845012961
1.612,0.09236479656305176,5897.835909365426
1.616,0.178889730542253,5890.794133224112
1.62,0.247322226057504,5910.274110754396
1.624,0.2875867297743327,5898.174721992905
1.628,0.2967586310206086,5905.109385727941
1.632,0.2806975063789211,5903.896023136832
1.636,0.2529840990153007,5899.682086906412
1.64,0.23088816797392744,5891.854878846209
1.644,0.22912705692966828,5901.136649294662
1.648,0.25317100000463805,5901.380223244362
1.652,0.29442820420564486,5901.675189945692
1.656,0.32957142340749085,5907.202200280747
1.66,0.3254975460059957,5896.147694656562
1.664,0.24996882201404835,5906.141184383536
1.668,0.08596564191419317,5906.476655936489
1.672,-0.15434049788489368,5889.746438200104
1.676,-0.42133724768927366,5901.108503587843
1.68,-0.6301826433523753,5901.651302848554
1.684,-0.6754103934526584,5894.769225320476
1.688,-0.45552965814929963,5900.716141761865
1.692,0.09894926088491182,5900.213656917688
1.696,1.0025894544417222,5898.052509036574
1.7,2.204519956318072,5905.570897343335
1.704,3.5941391368501345,5895.696925687269
1.708,5.022346119883757,5900.931648599821
1.712,6.33291006560412,5899.360165259415
1.716,7.394801546757148,5901.584382188342
1.72,8.12574392492508,5900.098125603736
1.724,8.50103686702296,5902.496684253042
1.728,8.547762240429892,5903.635677215001
1.732,8.329212802512028,5891.442607616925
1.736,7.925889059234639,5888.682101129183
1.74,7.418279648727268,5901.015444577774
1.744,6.87449993783685,5899.826889925668
1.748,6.343889194726136,5900.864564377832
1.752,5.856189467247868,5897.966271538588
1.756,5.4248777027427595,5898.784762891201
1.76,5.0526080431083535,5902.283648576558
1.764,4.736631663556911,5896.415227953813
1.768,4.472486928580046,5901.778148398885
1.772,4.25520131346183,5911.314678202865
1.776,4.078670182947961,5893.918767412427
1.78,3.9350476588921808,5894.597732476473
1.784,3.815696759331636,5903.2485288754415
1.788,3.713514166211338,5905.228947285991
1.792,3.624999163319776,5895.926931320264
1.796,3.5505937526754963,5903.818344683778
1.8,3.493051411791192,5899.658137488617
1.804,3.454668402135351,5908.137963981538
