时间(s),电压(V),幅值(高频80K)
0.0,0.9311040612259248,5901.421619607876
0.004,0.578464697415902,5896.56934295398
0.008,0.25523262412416087,5902.726385348607
0.012,-0.01442144844378143,5899.751404031879
0.016,-0.21594163227604954,5892.574802739883
0.02,-0.34592321843437235,5901.633933547663
0.024,-0.4106692250331949,5901.537743415815
0.028,-0.4226708443823375,5901.339204017735
0.032,-0.39669496613657734,5884.223498959826
0.036,-0.346849616025935,5908.315140264308
0.04,-0.2850175090916507,5891.531152865964
0.044,-0.22031130405397698,5902.001239259926
0.048,-0.1591280793173965,5904.709495301069
0.052,-0.10561520682130708,5903.291268990769
0.056,-0.06240987138773919,5906.871384014059
0.06,-0.03141057654057437,5900.80784454755
0.064,-0.014429653230930982,5910.198233230138
0.068,-0.013797203665281775,5904.6827764855325
0.072,-0.03286143829286902,5901.605628847688
0.076,-0.07581589902515141,5896.23429405733
0.08,-0.14612737410929294,5889.615674148597
0.084,-0.24366111461201334,5897.6844365340685
0.088,-0.36187821055032987,5894.023376844654
0.092,-0.48694512300983295,5905.067946849624
0.096,-0.59965861008353,5897.173209365448
0.1,-0.6795122127686698,5899.187124244269
0.104,-0.7092937153258223,5899.4985537697685
0.108,-0.6788313972107001,5901.244318226452
0.112,-0.5873450480890364,5906.16454048371
0.116,-0.4443881337545762,5901.885152667464
0.12,-0.269208474516688,5906.658209999373
0.124,-0.08805829413640874,5893.50880962758
0.128,0.07059255438221532,5897.91828970859
0.132,0.18191623209021393,5903.687050152999
0.136,0.22994801603786788,5897.237104836349
0.14,0.21075102251052294,5892.225362295264
0.144,0.13291821375126736,5893.194339111867
0.148,0.0154519360068066,5900.52177368978
0.152,-0.11659062597889823,5898.723924640058
0.156,-0.23797230778907466,5901.451803845879
0.16,-0.3294453272229087,5896.557856405048
0.164,-0.3824378732967503,5900.8465108309465
0.168,-0.40044594552254587,5894.103751109714
0.172,-0.3963469360167359,5898.908845532077
0.176,-0.3866586017568688,5908.167973211671
0.18,-0.38515981172396785,5910.110132928406
0.184,-0.39833680808230243,5904.536050749623
0.188,-0.4240684100780152,5889.107115578889
0.192,-0.4536708167973015,5896.011024671191
0.196,-0.47631557148524684,5894.851802499637
0.2,-0.48396701245211793,5901.299956636484
0.204,-0.47473790760928447,5900.811008539423
0.208,-0.4534035994962067,5906.224687702369
0.212,-0.4293587043282076,5911.622813939391
0.216,-0.41337158815615754,5903.103821382983
0.22,-0.4143935303836512,5897.439691452398
0.224,-0.4369695577163331,5899.704034056779
0.228,-0.4794990235023164,5902.785161155837
0.232,-0.5338421215695163,5902.212182661652
0.236,-0.5867889057144757,5903.9105527962565
0.24,-0.6232937937768912,5900.10289959373
0.244,-0.6306068252493142,5899.933277188673
0.248,-0.6020305365568285,5892.959404883051
0.252,-0.5390753277127214,5901.827197461425
0.256,-0.45123231596660746,5890.436693302807
0.26,-0.3533565270088566,5897.718868728877
0.264,-0.2614859352107297,5897.513226841253
0.268,-0.18847849751029175,5891.56619550924
0.272,-0.1408702319951979,5888.462704395539
0.276,-0.1177757429645337,5908.414468179831
0.28,-0.11185011835968547,5908.894026357854
0.284,-0.11188020815880355,5892.912668839756
0.288,-0.10647258197517069,5898.425635861904
0.292,-0.08804825233184502,5901.645753083267
0.296,-0.05591044227274914,5905.559883601778
0.3,-0.01713741648965974,5901.283191235814
0.304,0.015225582315462905,5904.581311157817
0.308,0.026149562273852865,5900.413661276063
0.312,0.003412954256567814,5904.945527661178
0.316,-0.05848353280382821,5894.065387229655
0.32,-0.15658240657898984,5909.53901735829
0.324,-0.2802568555458255,5907.934793267136
0.328,-0.4138774523152916,5893.097557259455
0.332,-0.5402831328065743,5896.297003896738
0.336,-0.6441118703784822,5898.029006051345
0.34,-0.71435345501693,5891.967037034802
0.344,-0.7457738970415938,5896.605793431414
0.348,-0.7391473158115253,5899.065115765116
0.352,-0.7004411060313219,5905.97345915212
0.356,-0.6391562433485336,5897.059526473276
0.36,-0.5660836703628057,5887.827300765139
0.364,-0.4909914286500342,5896.412556326539
0.368,-0.42100242431304546,5906.156651541177
0.372,-0.3601885295540897,5894.159323126485
0.376,-0.3101904981985399,5902.082547511583
0.38,-0.271107399050416,5894.322558120432
0.384,-0.24196150997168117,5905.967170045503
0.388,-0.220582621347048,5896.112159998985
0.392,-0.20334006799061943,5902.648767997571
0.396,-0.18540435741891498,5903.428794823951
0.4,-0.16193923833747595,5903.836158306674
0.404,-0.1299908157316545,5901.088376327934
0.408,-0.0903366621381476,5893.767387086786
0.412,-0.048483698404819905,5894.082985538565
0.416,-0.014262638163227101,5897.535840225237
0.42,0.00012278093319611607,5906.99895627167
0.424,-0.01677515772024592,5902.958013388987
0.428,-0.07218364739045713,5895.839687310083
0.432,-0.16631582571806955,5899.994521046422
0.436,-0.291018806919659,5894.625671489022
0.44,-0.43025812096488547,5893.800557604107
0.444,-0.5625698871952088,5895.690265697585
0.448,-0.6653153022291343,5901.936894363363
0.452,-0.7199325480774799,5896.667252961171
0.456,-0.7166364313694021,5897.878257065562
0.46,-0.6569163239708405,5894.553387344071
0.464,-0.5530032575357866,5905.4370341144495
0.468,-0.4246420766555568,5901.556276009497
0.472,-0.2943156661843561,5895.918634652493
0.476,-0.1822943230567744,5904.37945945661
0.48,-0.10268373344648637,5898.673816035685
0.484,-0.06126407523231753,5893.408744369294
0.488,-0.055452108344746176,5901.854586913819
0.492,-0.07617357969666756,5899.5336410831815
0.496,-0.11092577897234691,5904.064836501919
0.5,-0.14707714959919346,5900.918384299674
0.504,-0.17456681503937346,5898.461581043451
0.508,-0.18747520725515018,5895.201170713756
0.512,-0.1842901786292289,5899.791581742603
0.516,-0.16706019605622208,5897.713145810813
0.52,-0.13994508599045766,5907.187295442679
0.524,-0.10779440900194708,5899.2192554832045
0.528,-0.07520268272771634,5892.089317453925
0.532,-0.04608922034747925,5896.86208164454
0.536,-0.023494033155430426,5902.996636609503
0.54,-0.00923574244836733,5892.350021840592
0.544,-0.003385612662604856,5903.41203278843
0.548,-0.003986358414702783,5907.041357858387
0.552,-0.007699119450390164,5885.247332698353
0.556,-0.01163384870396715,5898.966748452948
0.56,-0.015568648076084518,5901.80862745992
0.5640000000000001,-0.023017427183329792,5903.563905164064
0.5680000000000001,-0.0400621432351208,5892.071018830188
0.5720000000000001,-0.07228519405342956,5901.779310494089
0.5760000000000001,-0.12136918555835638,5895.472842733753
0.58,-0.18312861538948438,5896.490305136777
0.584,-0.24799552163467792,5896.941912710172
0.588,-0.30387843183845376,5892.14110221592
0.592,-0.3403193929557017,5893.243023697873
0.596,-0.3523316829064683,5897.398136715442
0.6,-0.3424572719796337,5894.138530817447
0.604,-0.320311853580864,5902.396018550217
0.608,-0.2997587254273175,5892.205708294657
0.612,-0.2945933132421464,5898.586713208851
0.616,-0.3141407843974595,5900.783065300889
0.62,-0.3602451230454479,5902.579252148273
0.624,-0.4265218031700261,5901.562883065356
0.628,-0.49977025467653663,5901.258239947373
0.632,-0.56287308127153,5903.449835192568
0.636,-0.5986019939849314,5899.729194428384
0.64,-0.5938466130844235,5896.694118162021
0.644,-0.543353474657422,5895.56008753409
0.648,-0.4516298761126336,5898.225231230465
0.652,-0.33208093789050275,5897.549528786394
0.656,-0.20363545269139974,5899.8822821630965
0.66,-0.08614584368784677,5897.065396913323
0.664,0.003955022655456093,5898.111140042257
0.668,0.05671998103618868,5899.665797347942
0.672,0.07002498691910111,5898.620298041719
0.676,0.04914773962316772,5897.803902551483
0.68,0.004873274979071002,5909.646567391398
0.684,-0.04942098822488674,5900.333110967393
0.6880000000000001,-0.10122612208489688,5891.851193859358
0.6920000000000001,-0.14226350947699806,5903.220496358566
0.6960000000000001,-0.17069851580786913,5897.151135079765
0.7000000000000001,-0.19108260244994874,5900.552665500563
0.704,-0.21169450435049514,5897.698981895453
0.708,-0.240271010500021,5901.295415380157
0.712,-0.28004221488121767,5910.675743976656
0.716,-0.327885572068943,5898.142781306237
0.72,-0.3753084083183161,5902.2769555516725
0.724,-0.41150511192743555,5895.747057117433
0.728,-0.4268780882619172,5900.408558988047
0.732,-0.41562880859342505,5906.242523988651
0.736,-0.37682667075168685,5904.380516709411
0.74,-0.31402908361212967,5904.389632344478
0.744,-0.23389684654194476,5901.624313056195
0.748,-0.14443896537562495,5895.560297576631
0.752,-0.05347747879806491,5901.37784776785
0.756,0.03233400105084438,5901.868463179781
0.76,0.10784102079546976,5896.221569653164
0.764,0.16913821744694268,5892.127553832187
0.768,0.2131288541791437,5895.604650925325
0.772,0.23764013175342222,5907.800206104344
0.776,0.24255780347690423,5906.059012820972
0.78,0.23131837856802087,5900.242164860663
0.784,0.21119914310587493,5891.168833893399
0.788,0.19137982114576524,5901.6401792442175
0.792,0.17939005854072762,5903.487967752862
0.796,0.17780323498791006,5893.5633853429
0.8,0.18294097175089852,5894.608104325045
0.804,0.18621413599911796,5899.384707851807
0.808,0.17744587847370102,5894.32108926259
0.812,0.14879023984783407,5903.327685016957
0.8160000000000001,0.09780408768524058,5902.140423802732
0.8200000000000001,0.028618737429302727,5907.467817867581
0.8240000000000001,-0.04920293227476051,5894.599222278896
0.8280000000000001,-0.12374727903658378,5898.756214831422
0.8320000000000001,-0.18464807494875465,5897.100834057737
0.836,-0.22630122857624588,5894.912660523177
0.84,-0.24911353166259886,5909.085144356417
0.844,-0.2583081115451053,5898.772914600299
0.848,-0.2609321966705141,5909.405425499408
0.852,-0.2626301827071977,5894.756592179692
0.856,-0.2658254485310668,5900.259032558169
0.86,-0.27000555617556565,5901.604333758503
0.864,-0.27346497989722296,5904.356889387693
0.868,-0.27510637697450063,5905.925298286908
0.872,-0.27519237412454034,5894.467232079855
0.876,-0.2749010675455581,5906.987261635728
0.88,-0.27534346550786976,5904.47087867143
0.884,-0.2768037564956699,5893.761716513728
0.888,-0.2785514291313125,5890.523133193274
0.892,-0.2791868601722889,5898.314153561154
0.896,-0.2773419609510973,5903.096919541566
0.9,-0.27251069959254043,5897.738413749168
0.904,-0.2656729999815282,5892.467409734542
0.908,-0.2592512577973648,5892.929640279185
0.912,-0.2560375234541672,5897.393998697963
0.916,-0.2572777045321095,5896.016887936414
0.92,-0.26091404314844835,5908.477473167542
0.924,-0.2613280577793492,5907.31784477495
0.928,-0.25122091565834287,5904.648518787754
0.932,-0.22494579619284397,5901.268648846836
0.936,-0.18166800878715117,5895.806453039188
0.94,-0.1267199401735934,5904.973711270665
0.944,-0.07038954966320426,5897.0323032941205
0.948,-0.02472837831467939,5906.927607058483
0.952,4.3724122416613816e-05,5902.303569785916
0.956,-0.001908177182650837,5902.395616997488
0.96,-0.03095227005234447,5901.456494843238
0.964,-0.08198007773115419,5891.960105871346
0.968,-0.14510565667081637,5893.462942686718
0.972,-0.20723047919487447,5889.878998554678
0.976,-0.25472817486170823,5905.15025426893
0.98,-0.27685317985394603,5893.889653471394
0.984,-0.2687448914696333,5901.833147819512
0.988,-0.2328528392523013,5901.374426001273
0.992,-0.1782142503709597,5899.786486019486
0.996,-0.11778091341782702,5900.896797403967
1.0,-0.06465215555523887,5905.77163974846
1.004,-0.028498139106369252,5901.654446848703
1.008,-0.013385952667323921,5898.608573307229
1.012,-0.01752202805027093,5900.816697444996
1.016,-0.03451654261741522,5898.248132724066
1.02,-0.05535386267230053,5906.180410067108
1.024,-0.07049738915149804,5903.544228105016
1.028,-0.07195392211170666,5902.515153403693
1.032,-0.05518378393719205,5900.808910172719
1.036,-0.020507862012607778,5899.177525210875
1.04,0.02652762854947089,5895.242548761559
1.044,0.0762226718547625,5910.041453751516
1.048,0.11709178680524657,5894.927751299091
1.052,0.13878203017222984,5909.875201639903
1.056,0.1346005304285346,5898.05965985116
1.06,0.10303050594231987,5902.231082071528
1.064,0.04801827587685971,5898.975453067446
1.068,-0.021990274751826817,5897.376472358847
1.072,-0.09607571970354417,5891.947576024681
1.076,-0.1633472277439621,5903.86107409565
1.08,-0.21505349969278356,5901.806090940078
1.084,-0.2456370877616755,5890.258280508885
1.088,-0.25270101736706196,5905.314845008483
1.092,-0.23651029124419468,5895.242224281819
1.096,-0.19982541391693687,5895.672564418239
1.1,-0.14835106883954835,5901.982788194747
1.104,-0.09127201557128056,5891.207092275533
1.108,-0.04094192788476905,5898.642412540221
1.112,-0.011109424565873407,5887.262080494495
1.116,-0.013844005806270087,5910.24363496507
1.12,-0.05603537797907201,5894.16795463125
1.124,-0.13656447178182995,5903.8186165434845
1.128,-0.24501388686903772,5893.622983146867
1.132,-0.3624895563392155,5901.200245595691
1.136,-0.46486681694733906,5899.323887854077
1.14,-0.5282338551540139,5892.470850717652
1.144,-0.5354073636667154,5904.645925591833
1.148,-0.48157222356528917,5897.337145069881
1.152,-0.3769012777304511,5898.846347135256
1.156,-0.24479055140593556,5898.82849987672
1.16,-0.11598429637044577,5892.8034745894765
1.164,-0.02057872698708139,5901.270360031696
1.168,0.019354340689082435,5897.267460595273
1.172,-0.005615454390848433,5904.449699552935
1.176,-0.09121122640962977,5896.663152904685
1.18,-0.22156684450398875,5905.302253837078
1.184,-0.3735572946869251,5897.349368967333
1.188,-0.5221044854630524,5901.028382777968
1.192,-0.6451422649027753,5901.353588375038
1.196,-0.7271560410203155,5893.302379294532
1.2,-0.7607856323405237,5899.977625308644
1.204,-0.7466270701269085,5898.538582891055
1.208,-0.6917512846297789,5905.0611756439575
1.212,-0.6075112934011357,5900.955144365335
1.216,-0.5071415543299806,5899.667340289134
1.22,-0.40357358826238354,5904.574664888451
1.224,-0.30776078997449174,5897.040877829688
1.228,-0.22766970652194576,5910.551750456432
1.232,-0.16797092993281867,5901.434393020426
1.236,-0.13024760864125032,5893.107812169953
1.24,-0.11333578687068013,5907.038526830433
1.244,-0.11351487410410861,5898.096466283469
1.248,-0.12471204057252122,5907.059359114139
1.252,-0.1393145469707876,5903.284701652768
1.256,-0.1501132849710004,5897.973115529718
1.26,-0.15310948254358658,5906.115905522628
1.264,-0.14988671428460532,5894.961043122686
1.268,-0.14793181199023525,5898.639518275658
1.272,-0.15808995690431937,5902.099757838795
1.276,-0.1897602080312159,5902.478478922662
1.28,-0.24571187049211274,5902.397974436871
1.284,-0.3189000161059798,5887.364987214603
1.288,-0.39296451015149747,5904.789328340616
1.292,-0.4464609456229211,5896.811543659751
1.296,-0.4592909787667831,5902.483432241078
1.3,-0.41912110593062474,5901.784753451964
1.304,-0.3258054046628944,5904.165233246558
1.308,-0.19251952980282191,5897.722100209825
1.312,-0.04322349852411946,5898.367057069898
1.316,0.09290843626885614,5891.355571600892
1.32,0.1885888893984709,5902.203220835148
1.324,0.22515735810059972,5896.048538824464
1.328,0.19724701327654254,5908.333729599247
1.332,0.11426581530627608,5899.006823461449
1.336,-0.0016382755779142707,5900.570368078168
1.34,-0.12067009232759254,5907.513921902886
1.344,-0.21240648222359626,5898.036718756082
1.348,-0.2531670636313249,5899.39710040502
1.352,-0.23198759811897532,5906.870178822152
1.356,-0.15354719101057757,5899.215976415844
1.36,-0.03698408464053742,5893.779048995679
1.364,0.08919934534477487,5905.994348124244
1.368,0.19446814687265837,5902.34531430525
1.372,0.25345839227987405,5902.892413422866
1.376,0.25116920333162907,5896.4642767015175
1.38,0.1853097657029187,5907.274546588298
1.384,0.06586514788760994,5902.591663125841
1.388,-0.08754010705072075,5895.498930733506
1.392,-0.2497618396216764,5900.00093498654
1.396,-0.39512908242089767,5900.009871285581
1.4,-0.5026636862965199,5900.579670911296
1.404,-0.5604798089548114,5909.230344637103
1.408,-0.5680076309461585,5899.240899937909
1.412,-0.5351172043268233,5892.124948961287
1.416,-0.47834535221772495,5903.139333485052
1.42,-0.41552103291635006,5899.366951733657
1.424,-0.3605503869362477,5893.628722355899
1.428,-0.31996225981913695,5894.5439093880805
1.432,-0.2922349290634216,5893.694435475182
1.436,-0.2700001184180383,5900.146364672855
1.44,-0.24415273598522533,5904.048707418116
1.444,-0.20816442148604958,5908.063101258073
1.448,-0.1609239711768117,5900.835951479668
1.452,-0.10719230958545134,5902.365031733401
1.456,-0.05579105628447596,5898.908710672729
1.46,-0.01642425340909511,5896.738246453975
1.464,0.0035932860641944573,5904.278700862827
1.468,0.0014460657244685067,5893.432524062156
1.472,-0.02097636340977488,5899.3627238646295
1.476,-0.05860488605109318,5893.999195323672
1.48,-0.10546445493306314,5897.522418743759
1.484,-0.15648172771175847,5915.6765672081965
1.488,-0.20802208899565652,5894.531007111255
1.492,-0.2571966842526943,5899.946198139617
1.496,-0.30080119267905114,5903.530093355793
1.5,-0.3348853619827067,5908.273920508768
1.504,-0.35525228004873083,5893.038839516776
1.508,-0.3583797708767834,5896.0490101066325
1.512,-0.342143487434169,5901.904560391087
1.516,-0.30626833972113515,5902.492399591798
1.52,-0.25289610910548393,5894.736883741057
1.524,-0.1874181123800687,5893.430365919034
1.528,-0.1189744961145941,5904.60283809899
1.532,-0.059598955781458116,5906.112948114099
1.536,-0.021509110341769264,5893.639270262524
1.54,-0.013287865401022152,5905.0686938216495
1.544,-0.03674576922562014,5905.415579165508
1.548,-0.08618962064219264,5899.60104680197
1.552,-0.15059389195949713,5902.158595379026
1.556,-0.21769999966360612,5902.429202078612
1.56,-0.27830047648913636,5894.964378667183
1.564,-0.32905046852544406,5893.991213729008
1.568,-0.37276086912317896,5901.502271323685
1.572,-0.41605564251709753,5902.336233918459
1.576,-0.4653093976072029,5905.087722553021
1.58,-0.5224750584104446,5906.476982280515
1.584,-0.5824511731632582,5902.259067656995
1.588,-0.633144615913503,5903.310492165411
1.592,-0.6585611901085728,5900.69063565051
1.596,-0.6441595140841331,5905.376154654232
1.6,-0.5826195722139094,5895.3955303648345
1.604,-0.4777571259928673,5897.346029893118
1.608,-0.34496337709523395,5893.79518124166
1.612,-0.2079004371815997,5899.101533363738
1.616,-0.09248310337702392,5899.173460454169
1.62,-0.020019249075331185,5898.729633364581
1.624,-0.001673453224825559,5903.946778336259
1.628,-0.03597841431084981,5910.277610469499
1.632,-0.10996524260896991,5904.264088016321
1.636,-0.20318941992501813,5902.645693757037
1.64,-0.2931319899425721,5899.422228118067
1.644,-0.36033059546403906,5899.637118209502
1.648,-0.3919812133965127,5907.39376388417
1.652,-0.3834170740545222,5889.265411239952
1.656,-0.3375654665795029,5887.86500793414
1.66,-0.26298925159731934,5900.429476092833
1.664,-0.17136600723901907,5898.188773309823
1.668,-0.07526679858901816,5909.802843340072
1.672,0.013181428935039142,5907.610496083222
1.676,0.08274887013395855,5901.125123703883
1.68,0.12326785197946519,5901.102354655769
1.684,0.12627193879635817,5900.185573430184
1.688,0.0864517244408917,5900.436278770311
1.692,0.003529647173836396,5902.95627398971
1.696,-0.11639275153385491,5891.577790279383
1.7,-0.26085851112700026,5897.784886419508
1.704,-0.4125596570079005,5904.186785670232
1.708,-0.5516729272457483,5901.707231285482
1.712,-0.6582471806314371,5893.296736336151
1.716,-0.7144057601023102,5900.400246233556
1.72,-0.7066992061651393,5893.957245354439
1.724,-0.6288900910175805,5902.076163652022
1.728,-0.4847893091350047,5886.73226080059
1.732,-0.29007865936409555,5894.837806138176
1.736,-0.07193126104227471,5896.618920280805
1.74,0.13416053002355452,5900.49177175664
1.744,0.2899857238940368,5892.987855033874
1.748,0.36156001051787057,5889.734300277926
1.752,0.3261711088079357,5904.753884721053
1.756,0.1785570150428711,5892.704076397961
1.76,-0.06440191176267153,5896.473185280421
1.764,-0.36100577836832315,5897.881970213193
1.768,-0.6448774957063558,5901.590474724817
1.772,-0.8292431531150292,5895.6217429611615
1.776,-0.8169960880800313,5898.528107830853
1.78,-0.5174997196083618,5899.287765042956
1.784,0.1313362576152955,5892.035625708065
