时间(s),电压(V),幅值(高频80K)
0.0,-1.4485848483112815,5894.248930775582
0.004,-0.807827572070234,5904.308934956814
0.008,-0.22654783555614433,5902.332156782354
0.012,0.24055181786775492,5903.045716711502
0.016,0.5546305731934215,5893.840116878999
0.02,0.6976453082933314,5904.66732608762
0.024,0.6742382242342978,5898.7955113637245
0.028,0.5103044182758252,5904.742642259883
0.032,0.2481159564735801,5896.953617931054
0.036,-0.06108358573455311,5901.492330035422
0.04,-0.36488327023467665,5903.258725258316
0.044,-0.6159244645514684,5902.508066302037
0.048,-0.7762920098219139,5893.12912174731
0.052,-0.8213373075253756,5904.378493972659
0.056,-0.7436793211352103,5900.33530817588
0.06,-0.5561699884893896,5899.090891338937
0.064,-0.29146405423203814,5895.631276277214
0.068,0.0032633021824436097,5894.794893104334
0.072,0.27576547305163046,5888.850426211743
0.076,0.47976043327715145,5904.770293383018
0.08,0.5842762493512648,5900.522285259878
0.084,0.5787440955246467,5895.616206354394
0.088,0.47289664692616834,5899.585669414073
0.092,0.29222378874982313,5911.081322327856
0.096,0.07093495158632636,5899.461259060635
0.1,-0.15525022608725364,5893.349723584863
0.104,-0.35473310022747884,5898.417652067237
0.108,-0.5034969357300921,5901.163028135191
0.112,-0.5868312976352478,5911.910222641374
0.116,-0.6000396475101704,5898.354732491594
0.12,-0.5483704611419858,5895.947971427746
0.124,-0.4459014580520015,5903.497956118944
0.128,-0.3133007107933764,5895.872107410383
0.132,-0.17498687145664715,5911.102617463717
0.136,-0.056270868197783416,5898.2162084232605
0.14,0.019540528392077445,5894.587363566003
0.144,0.03446305240060969,5901.519799687974
0.148,-0.020474040779592962,5905.563373883372
0.152,-0.1420280488789331,5897.292494365959
0.156,-0.3134430187159834,5892.202703239939
0.16,-0.5062932172305502,5903.554999381248
0.164,-0.6856661175885914,5902.1774849185085
0.168,-0.8175091993011366,5899.285110894214
0.172,-0.8762526321226394,5886.322083172578
0.176,-0.8509404100100924,5892.58758605308
0.18,-0.7483924991211739,5892.076557812584
0.184,-0.5922410524794915,5904.998509242339
0.188,-0.4176261538804993,5899.1595559365405
0.192,-0.26283531918143377,5900.09903202332
0.196,-0.16018582416527505,5898.639272721351
0.2,-0.1284362272773587,5900.4940652568575
0.204,-0.1684673021545157,5903.112382070156
0.208,-0.26327580568922765,5903.774486311118
0.212,-0.3823466961239759,5907.497178455479
0.216,-0.48931743699011293,5906.819584368754
0.22,-0.5509598695137862,5898.79127309226
0.224,-0.5451708961056052,5900.055374717223
0.228,-0.46600524983245933,5910.852426655336
0.232,-0.3247406863156725,5899.549101764477
0.236,-0.14704778594701784,5901.438178289899
0.24,0.0329727416844534,5894.363925231897
0.244,0.18067624835078477,5889.135063894552
0.248,0.268903887580959,5907.172284322771
0.252,0.2840151619113474,5900.850028717386
0.256,0.22828694724619653,5898.048894615096
0.26,0.1183225887945921,5906.842193403617
0.264,-0.019616174132890348,5899.956009602965
0.268,-0.15579239194528666,5900.178871303366
0.272,-0.2631277581645817,5896.9281052309
0.276,-0.3220796236685042,5904.412759244718
0.28,-0.3235474318598914,5903.891566564016
0.284,-0.26962920936725343,5903.393355580603
0.288,-0.1724843213597944,5894.042479778938
0.292,-0.05171069994429297,5911.140480505903
0.296,0.06948073469681508,5903.399037960809
0.3,0.16906519207528714,5900.94270025319
0.304,0.23128660619329025,5902.050185550728
0.308,0.25046636435487285,5902.312751694311
0.312,0.23165671728019122,5902.403675137452
0.316,0.1873673445734173,5892.8334454904925
0.32,0.13167659566405357,5902.448504093604
0.324,0.07449175910959532,5894.567899482461
0.328,0.018487002958506017,5908.925639108301
0.332,-0.0402498969928456,5904.401820521822
0.336,-0.10848717835107276,5904.4869953949055
0.34,-0.19076165171356718,5898.209025628235
0.344,-0.2850324504753608,5895.125352541451
0.348,-0.3809015166687933,5903.301572045048
0.352,-0.4614349961780894,5894.013365621547
0.356,-0.5083678624222586,5899.872589993575
0.36,-0.5090002764802126,5899.027481586024
0.364,-0.46209943994723646,5901.616857982303
0.368,-0.38029504168480627,5904.899493806142
0.372,-0.2877330879093728,5907.190480574486
0.376,-0.213446303333653,5902.688848938499
0.38,-0.1823802308641025,5902.664819334616
0.384,-0.2069532009755573,5906.7642530333205
0.388,-0.28219964261002195,5891.239924609176
0.392,-0.38661725113323137,5915.019555270788
0.396,-0.48870583317033633,5891.644866706246
0.4,-0.5567680868723155,5907.437088786152
0.404,-0.5684404968048985,5901.244408761992
0.408,-0.5171333379315998,5898.922931919507
0.412,-0.413959980785429,5902.270018979618
0.416,-0.2848473062185536,5901.084665520534
0.42,-0.1635062081488224,5903.027148139889
0.424,-0.08204595531327806,5897.676166742575
0.428,-0.061883298245654,5903.622623097607
0.432,-0.10778614088443318,5894.396254455958
0.436,-0.20710897245036017,5891.65142529119
0.44,-0.3344571885056238,5891.110591186674
0.444,-0.45979759745752113,5894.606956219732
0.448,-0.5566804490001658,5910.247094283719
0.452,-0.6076843491349174,5893.522311132639
0.456,-0.6061424660298947,5902.943948378933
0.46,-0.555185733429056,5911.2678505695685
0.464,-0.4657071059126244,5904.9798507378055
0.468,-0.35399221460312397,5899.258872353278
0.472,-0.23884514295735404,5906.923859228251
0.476,-0.13822759836915022,5898.507856407216
0.48,-0.06633604011690152,5902.206455514709
0.484,-0.03228967421191886,5901.0151348792015
0.488,-0.04058357950295447,5896.182918953041
0.492,-0.09203289798420658,5905.402972876479
0.496,-0.183519940662652,5900.346963215363
0.5,-0.3061061352527674,5897.847863038898
0.504,-0.4430946138599259,5901.835311117141
0.508,-0.5705796509971522,5903.219154624157
0.512,-0.6618394893672082,5901.264713863865
0.516,-0.6944451495948288,5907.096200713699
0.52,-0.6570587734786116,5903.348315252506
0.524,-0.5528669447348874,5899.207320775174
0.528,-0.39831507931714477,5900.418785830737
0.532,-0.21808327123785579,5893.227586898078
0.536,-0.03869174350732202,5895.898732823384
0.54,0.11687446611136122,5899.276429087087
0.544,0.23216494707222748,5902.344596929923
0.548,0.2977953171092564,5908.311448907837
0.552,0.31036029553541045,5895.881421303656
0.556,0.27095008213705485,5907.568424066717
0.56,0.18424207140044366,5891.846724938349
0.5640000000000001,0.0584603636402924,5908.900030129312
0.5680000000000001,-0.09421943597032226,5892.659754640599
0.5720000000000001,-0.25767283455797185,5897.1222903694415
0.5760000000000001,-0.413082837738114,5897.340945473225
0.58,-0.541735840797723,5891.400151372574
0.584,-0.628675754061193,5897.9819639047055
0.588,-0.6658259858213691,5897.669240089276
0.592,-0.65336952249457,5907.145046071158
0.596,-0.5991321799690772,5903.389494689535
0.6,-0.5166791921916405,5895.968383080408
0.604,-0.42307370601197913,5897.688430383083
0.608,-0.3366896988361918,5893.522459846504
0.612,-0.2748177429119326,5892.960873216343
0.616,-0.25078108998903054,5906.434337052014
0.62,-0.2708875767437745,5898.533476248501
0.624,-0.3321894411982319,5907.347333207137
0.628,-0.42219591174837506,5909.691832350131
0.632,-0.5212242916493798,5904.029329198204
0.636,-0.6070926831641897,5901.215235601325
0.64,-0.6607385589668923,5895.217492630049
0.644,-0.6707551635818197,5897.397962170455
0.648,-0.6352675443478473,5900.168454155333
0.652,-0.560786045621172,5903.341931788409
0.656,-0.458927394013895,5896.898968595935
0.66,-0.34266556390133707,5903.086952218253
0.664,-0.22385290542673225,5900.005022753495
0.668,-0.11291684255518178,5906.349848927085
0.672,-0.020088527743024397,5902.7624018707775
0.676,0.04371496328285282,5905.895997649622
0.68,0.06804624783577821,5898.687618181939
0.684,0.046147078569787794,5900.070345686327
0.6880000000000001,-0.021638750845193573,5905.182021275758
0.6920000000000001,-0.12664835518587686,5899.051660107557
0.6960000000000001,-0.25393218288437835,5894.460044815224
0.7000000000000001,-0.38654725434649523,5898.9214596171205
0.704,-0.5099408577932107,5903.488477391033
0.708,-0.6145179520118621,5885.201684987615
0.712,-0.6956886951927935,5909.317621819426
0.716,-0.7519810839077954,5893.603615205299
0.72,-0.7825226858756241,5904.674933901692
0.724,-0.7851152118881057,5896.023753192466
0.728,-0.755604117143562,5901.886603673173
0.732,-0.6888776405547841,5902.188868425896
0.736,-0.5815467093575624,5898.330779761052
0.74,-0.4355695675031035,5899.048154120604
0.744,-0.2610977842393022,5895.219200758756
0.748,-0.07684088746947153,5890.096237029031
0.752,0.09247631629591287,5902.390519092559
0.756,0.22064293519847702,5908.753689239926
0.76,0.28511596383902227,5905.348398460922
0.764,0.2717315182848826,5899.336794263956
0.768,0.1782771738825248,5893.961921323411
0.772,0.016310272475955904,5900.779058181412
0.776,-0.1894614728343401,5897.866676969608
0.78,-0.4047233544101078,5902.663704549919
0.784,-0.5918040388532161,5908.717566360637
0.788,-0.7173879311637499,5899.073038332408
0.792,-0.7596180264034917,5905.943086747045
0.796,-0.7124932623631384,5908.971937456652
0.8,-0.5864742087730325,5904.147455087615
0.804,-0.40569081984152455,5900.543360808406
0.808,-0.20297487185623939,5905.513187696463
0.812,-0.013678595400991941,5892.988385920305
0.8160000000000001,0.13110966668026588,5897.693031224343
0.8200000000000001,0.21073551160721354,5904.911965092419
0.8240000000000001,0.21845257053856013,5903.853758908688
0.8280000000000001,0.1606095725391397,5894.213113142748
0.8320000000000001,0.05199762339259978,5900.592571938022
0.836,-0.09017061921379689,5896.964638245423
0.84,-0.25071350144414384,5909.846625693143
0.844,-0.4177515255302658,5907.769302805072
0.848,-0.5812954513299132,5900.025979878969
0.852,-0.7311144397499537,5906.335335018503
0.856,-0.8558137144145503,5902.028200774635
0.86,-0.943844900095481,5907.18264942166
0.864,-0.9858189044512002,5894.868904154272
0.868,-0.9767954811218745,5894.194987363723
0.872,-0.9174208644275296,5896.230714112568
0.876,-0.8136030222034787,5910.392439420265
0.88,-0.675195619698827,5895.358984394261
0.884,-0.5143877665696154,5894.711146153214
0.888,-0.3443008168050257,5888.033683836368
0.892,-0.17805300166706034,5894.255048778277
0.896,-0.028253629859614996,5895.559900937826
0.9,0.09351851193780383,5900.782007836212
0.904,0.1777613532539903,5897.332055264954
0.908,0.21848296279667193,5897.825189459761
0.912,0.21407834490807043,5892.440357365017
0.916,0.16678040122376261,5892.4172933880845
0.92,0.08101551641501749,5901.312106430589
0.924,-0.03781411807321191,5896.908245079838
0.928,-0.182804104462789,5905.251827834905
0.932,-0.3434933179206057,5899.405649098655
0.936,-0.5039271478279203,5901.625623578301
0.94,-0.6427320689751412,5888.798477430651
0.944,-0.7361899456045078,5901.783107120044
0.948,-0.7637768535542324,5913.64046410937
0.952,-0.7142013127068861,5899.583274645501
0.956,-0.5894856043953747,5898.190754545112
0.96,-0.40547446522249203,5895.270217384208
0.964,-0.1888148091752207,5904.049148314606
0.968,0.028150664565533348,5903.406779556835
0.972,0.21289554524247972,5903.423332284219
0.976,0.3377680130748616,5899.472784594441
0.98,0.3844506022085224,5896.410389895128
0.984,0.34745639329025846,5897.160941837583
0.988,0.2356738314793289,5900.992376214036
0.992,0.07094969847939028,5900.19752811203
0.996,-0.11643661950907648,5899.37877550673
1.0,-0.29428683240931525,5904.016643953139
1.004,-0.43496882949617316,5897.15053393902
1.008,-0.5199506510278359,5894.619543416133
1.012,-0.5415503572584024,5900.7954494682
1.016,-0.5023437655964993,5909.333356208221
1.02,-0.41315677406587925,5903.372201247967
1.024,-0.2902262722662928,5895.616583984749
1.028,-0.15177827022191623,5903.9243888278825
1.032,-0.01443252155936584,5903.781877859495
1.036,0.10979286182240386,5909.796382419394
1.04,0.2149798191866822,5883.107451391817
1.044,0.30076920129950757,5897.694673750133
1.048,0.37010563393074186,5892.931521233456
1.052,0.4265490184626256,5897.467973803651
1.056,0.47258717869767236,5898.774109994272
1.06,0.5093479162178896,5897.579355744005
1.064,0.5368110896232672,5902.65838241091
1.068,0.5533953577514625,5904.083054749589
1.072,0.5547773756650283,5892.855808617595
1.076,0.5329893844744051,5902.231487855879
1.08,0.4773248125694763,5906.437731811054
1.084,0.3779928250939574,5898.372685111364
1.088,0.23186415515079198,5897.165258215616
1.092,0.04779365996113196,5903.504199060004
1.096,-0.15171491456696273,5898.8775517319045
1.1,-0.33433877860660843,5893.116773570451
1.104,-0.46620253611282253,5892.480216435539
1.108,-0.5211191904511012,5893.496076833846
1.112,-0.4870966667256186,5900.643968735054
1.116,-0.36827615021962146,5893.937883772571
1.12,-0.18292388917693322,5894.648186859149
1.124,0.04055299832880955,5893.502506202671
1.128,0.26788763056777043,5902.7422354988885
1.132,0.46302215915232137,5907.6320016276895
1.136,0.5923797742261068,5894.1170997287145
1.14,0.6298196847861665,5905.035904530119
1.144,0.5620005401715719,5889.272245404786
1.148,0.39281523870146995,5900.1482188019545
1.152,0.14495450548543917,5904.140271275318
1.156,-0.1429219347675191,5895.320958708324
1.16,-0.42355579767154244,5896.369053360718
1.164,-0.6514267035927354,5898.944149354567
1.168,-0.7931142728172299,5900.880107630936
1.172,-0.8343913203461146,5903.005144952653
1.176,-0.7817738205493241,5905.877357246172
1.18,-0.6583456533311087,5898.784670509577
1.184,-0.49583286454413456,5897.967835792645
1.188,-0.3259839822937352,5901.12181428337
1.192,-0.17390244582883632,5891.366871340485
1.196,-0.054681701106871414,5899.294567201402
1.2,0.026559830147115986,5901.019919137152
1.204,0.07197749045068161,5907.988989617921
1.208,0.08693767657394715,5902.184840029313
1.212,0.07632187057843899,5902.487120968049
1.216,0.04287498914369694,5912.281326868803
1.22,-0.011731302244463242,5898.809938226581
1.224,-0.08417031422415501,5905.391497260748
1.228,-0.1673026611604606,5902.252925954427
1.232,-0.25036131555988544,5900.312136943625
1.236,-0.32145179837970006,5898.939617007552
1.24,-0.37077188081755597,5898.3917499482095
1.244,-0.39281182472542414,5900.609939377012
1.248,-0.38671896518290305,5904.307685132714
1.252,-0.3550316028657179,5897.107263402953
1.256,-0.30177754083532643,5894.257448367627
1.26,-0.23127506937694797,5892.688255149305
1.264,-0.1483705440014212,5900.307970092776
1.268,-0.05954066078413582,5895.656314742236
1.272,0.026509409734842056,5903.5229331841065
1.276,0.09962713532761792,5901.916718435529
1.28,0.1500836406213154,5897.9356430023945
1.284,0.17061904594569813,5896.971633771143
1.288,0.1579885069966222,5905.291203975764
1.292,0.11375407005217948,5899.832605765803
1.296,0.044146134731146244,5900.953284937055
1.3,-0.041152294842876865,5902.085547033917
1.304,-0.13108708404315667,5895.989195004914
1.308,-0.21552407488869463,5900.074165281512
1.312,-0.28702238945714215,5890.540421183048
1.316,-0.34167118942272345,5893.999922097951
1.32,-0.37893396562404386,5892.988825524579
1.324,-0.40069272740760326,5901.877733574114
1.328,-0.40987558271164126,5903.783796577277
1.332,-0.40917243459006114,5899.049816184269
1.336,-0.4002349506644074,5897.163616620426
1.34,-0.38343527028859126,5893.478299999437
1.344,-0.3580279579474369,5903.299258797171
1.348,-0.32261858053137743,5901.865780411978
1.352,-0.2760093250506939,5895.341878297782
1.356,-0.21839409006054164,5898.114943108443
1.36,-0.1523832370259368,5898.07263764175
1.364,-0.08298713889580416,5891.054812094737
1.368,-0.016261358856180002,5913.803443526442
1.372,0.04243456586373477,5888.445784564841
1.376,0.08910034425153306,5902.655555881832
1.38,0.1202332734223562,5896.520092533346
1.384,0.13151118343368814,5890.41867925189
1.388,0.1174700169396355,5894.789860311501
1.392,0.07263553582980352,5901.856763511571
1.396,-0.006524404803764569,5900.692640600524
1.4,-0.11968636290920777,5892.81909099443
1.404,-0.2613424450963772,5900.423212347707
1.408,-0.4203683161780966,5901.615454620217
1.412,-0.5806752173130462,5903.883044539337
1.416,-0.723009330075436,5896.246066683759
1.42,-0.827862191251528,5902.5048329143965
1.424,-0.8791934364519972,5903.155006083652
1.428,-0.8681046786298301,5891.695742555226
1.432,-0.7951518702809316,5898.579700554597
1.436,-0.6702198656332639,5905.146445551739
1.44,-0.5098628856301602,5901.50494068546
1.444,-0.3332034097026924,5903.026948560771
1.448,-0.15808342998191544,5902.985083111953
1.452,0.0012869980658270768,5902.980489426688
1.456,0.13495912593227624,5894.003236033473
1.46,0.23659052810197895,5889.783911306602
1.464,0.30207858116745373,5906.46351331608
1.468,0.3281748844190745,5912.6682702301405
1.472,0.3119526320078921,5896.026072810893
1.476,0.2517961985540306,5890.6981066639255
1.48,0.14987125549056332,5898.936768292452
1.484,0.015112738608555273,5902.495017735651
1.488,-0.13502341187611586,5900.553207336563
1.492,-0.27591083869171396,5896.113636646263
1.496,-0.3808629076822203,5903.180263173439
1.5,-0.42849213449877976,5908.205449806067
1.504,-0.40930855647029907,5903.826823176749
1.508,-0.3289273121239403,5900.880441276775
1.512,-0.2069497323943234,5904.311884151733
1.516,-0.07216555480538218,5899.71161339464
1.52,0.044442210861801626,5896.855318919429
1.524,0.11710938908759078,5906.050008368579
1.528,0.13138630923113082,5897.327079324404
1.532,0.08748590942044282,5896.236355477421
1.536,-0.00019969378008333964,5899.836935278287
1.54,-0.1078933198333355,5895.527011339633
1.544,-0.2105323742626345,5904.729625576021
1.548,-0.29017724243707144,5905.132906954147
1.552,-0.3409687779203429,5893.281329829513
1.556,-0.3684621492896876,5897.573799948377
1.56,-0.3840891231790961,5900.787561503125
1.564,-0.39771031673763446,5903.396752790879
1.568,-0.4115734695070807,5898.525451706173
1.572,-0.41785205574831114,5897.054069854308
1.576,-0.40036824707385016,5909.46428705391
1.58,-0.33985635934073555,5902.3752538414365
1.584,-0.22126316513844466,5902.04842288052
1.588,-0.040914241716235096,5890.980775682968
1.592,0.18895924394840072,5909.460695263323
1.596,0.44034198933796403,5910.066640948991
1.6,0.6747056454754248,5898.3792530257015
1.604,0.8520464064007253,5911.473965659966
1.608,0.9409410182757487,5895.2643079979935
1.612,0.9264887264325536,5893.967402355806
1.616,0.8137493411478963,5894.87017904282
1.62,0.6259588329147706,5899.637944923794
1.624,0.3984991411402819,5902.586632153381
1.628,0.17044698671812245,5897.937098356798
1.632,-0.02430675239677891,5911.293482888658
1.636,-0.1643834307219906,5901.587847428475
1.64,-0.2450772045517276,5900.335267453295
1.644,-0.27866588390120817,5894.198904426645
1.648,-0.2910194534360557,5908.65065338747
1.652,-0.3148535752523127,5899.086503860467
1.656,-0.3801538909465312,5905.527575629425
1.66,-0.5032419798728364,5898.060627827851
1.664,-0.6772372249554302,5903.870020710772
1.668,-0.8670741798836973,5904.879125046269
1.672,-1.0112002891553022,5910.150394787359
1.676,-1.030221392638073,5897.434652233244
1.68,-0.8411571225132201,5905.082073223965
1.684,-0.3750500547314649,5896.064312379947
1.688,0.404993115834393,5900.443784702212
1.692,1.488992670888608,5895.596592772115
1.696,2.812621166183687,5894.670622823146
1.7,4.2607734671812825,5907.227661884418
1.704,5.6841811029988705,5903.670514115357
1.708,6.927359163274756,5907.058064766682
1.712,7.861043703824777,5901.93950235829
1.716,8.408929212266122,5906.344202816225
1.72,8.560120909868285,5900.593278552092
1.724,8.364519804444809,5889.015072593954
1.728,7.914530627187025,5899.818887273182
1.732,7.320156570869585,5896.331996382281
1.736,6.685221315919531,5899.611201787442
1.74,6.090683932019528,5895.341192895303
1.744,5.587637264100402,5892.164940252032
1.748,5.198889109928998,5903.250274504612
1.752,4.925477091071607,5894.3017691771365
1.756,4.754032483440426,5901.756063186179
1.76,4.662465274107951,5901.624164616614
1.764,4.623738115887286,5898.036639524432
1.768,4.608945429410335,5898.48578164177
1.772,4.590798815964152,5895.922288720118
1.776,4.547577027720007,5904.735790164343
1.78,4.466707946965914,5908.502662819011
1.784,4.346826936507756,5903.487872925675
1.788,4.197314972869955,5903.676078821043
1.792,4.034941052685402,5905.464187778286
1.796,3.8782069615600596,5903.4227309096495
1.8,3.740972855256985,5891.162523340247
1.804,3.627513849932978,5904.315478243415
