时间(s),电压(V),幅值(高频80K)
0.0,0.16357128163630794,5895.0644886638265
0.004,-0.15316033442926238,5904.710018108112
0.008,-0.4258134308362762,5897.841713809549
0.012,-0.6179615974310194,5893.347487419628
0.016,-0.7105603218155454,5895.836929325193
0.02,-0.7055085515478936,5906.901885790557
0.024,-0.6237055364027951,5890.52675424312
0.028,-0.4981805169527322,5903.082055134812
0.032,-0.36487146511228197,5892.758541323765
0.036,-0.2542525490501161,5901.624976024374
0.04,-0.18604885093508225,5910.385958300103
0.044,-0.1677051176418458,5894.570751800589
0.048,-0.1960044227770553,5903.713576748739
0.052,-0.26055557203782337,5903.311157187952
0.056,-0.3476977410064359,5901.814668541113
0.06,-0.4435583772068385,5907.87371315977
0.064,-0.5355639559136864,5895.198041337883
0.068,-0.6126486915273645,5900.61276116683
0.072,-0.6652329263271448,5906.049985134714
0.076,-0.6859796447289641,5902.912470322445
0.08,-0.6713604762091443,5906.859358087302
0.084,-0.6231114931085715,5890.780299660605
0.088,-0.5485456544858872,5898.867943944143
0.092,-0.45930028494585373,5899.530670630254
0.096,-0.3688436023483063,5900.450233434362
0.1,-0.2895656903557318,5900.178783229727
0.104,-0.23043934545916006,5894.247975467869
0.108,-0.1959915153040515,5904.070592423399
0.112,-0.18666258680025993,5896.177917788695
0.116,-0.1998697974092926,5901.202885135827
0.12,-0.23081677478712734,5896.182035232591
0.124,-0.2725851346259264,5898.004139508765
0.128,-0.315940915420634,5898.652025127677
0.132,-0.34980684345678875,5895.864371983139
0.136,-0.36295638763799587,5897.553112270712
0.14,-0.3465312906696502,5903.967238922809
0.144,-0.29640066232962925,5895.546462176342
0.148,-0.2145898471312325,5901.84837857916
0.152,-0.10959167074585285,5905.44182101833
0.156,0.004302417692208426,5896.875236849525
0.16,0.10869372796474178,5909.60788454364
0.164,0.184093307064534,5904.8842271125
0.168,0.21417455623130144,5902.006386555388
0.172,0.1901447648751432,5902.4908410467215
0.176,0.1134720177470992,5900.678321314761
0.18,-0.004281722255654162,5892.693199931382
0.184,-0.14443865091161917,5900.8925157113135
0.188,-0.2857463400520005,5908.490837047668
0.192,-0.4089195667159354,5900.690770023532
0.196,-0.5000305158813002,5899.4271985076775
0.2,-0.5521121178168739,5898.224837400079
0.204,-0.5647417504563427,5904.207335869372
0.208,-0.541971233342893,5891.824821376898
0.212,-0.48969493694870847,5898.608567659429
0.216,-0.41374782207470384,5897.321679379991
0.22,-0.31941150809914515,5896.138832294286
0.224,-0.21205998433194728,5901.881653351814
0.228,-0.09809455208041895,5901.475713850263
0.232,0.014568703079027181,5901.404122841021
0.236,0.11669957933953429,5904.42763860118
0.24,0.19858401580056206,5899.900874279771
0.244,0.25135463984005396,5894.770172713009
0.248,0.26847141410155484,5893.562871447167
0.252,0.2467778709302351,5897.581090734577
0.256,0.18687594024272505,5899.815418863604
0.26,0.09323457558872038,5905.018431741424
0.264,-0.025451752496047197,5898.554798103423
0.268,-0.15587191127835684,5898.476437159727
0.272,-0.2805575681453574,5902.05425552281
0.276,-0.3798862408524928,5902.64954849824
0.28,-0.4355693776286952,5898.84359396419
0.284,-0.4349405135201609,5894.269698987461
0.288,-0.3749998786221737,5905.364989466462
0.292,-0.26491345241625985,5891.6708102562
0.296,-0.12566075183718095,5905.977168273134
0.3,0.013851492262735566,5896.965401733369
0.304,0.1236145320162319,5901.5177824326975
0.308,0.18031792101835523,5901.39544935346
0.312,0.1735221258858155,5896.174195414619
0.316,0.10808696311811815,5909.071882171442
0.32,0.002041958093853261,5898.665511902897
0.324,-0.11936290686344828,5891.929991316384
0.328,-0.23133917535942333,5895.74538003155
0.332,-0.3162672447671767,5897.591640665228
0.336,-0.3672759716859788,5908.118939620244
0.34,-0.3879776173051755,5900.988671900741
0.344,-0.3890607474386175,5904.622611983405
0.348,-0.383307832760186,5912.1145967865705
0.352,-0.3809210918998239,5901.523269180488
0.356,-0.38676560319687886,5899.93529838262
0.36,-0.40022044536149376,5904.726423114779
0.364,-0.41716684471774534,5891.129925508822
0.368,-0.43285996640438795,5899.936246088785
0.372,-0.44432496127083165,5906.036221609458
0.376,-0.4513543999346777,5903.626118594169
0.38,-0.45583868183906606,5901.086495280997
0.384,-0.45980795947613984,5901.129292393294
0.388,-0.4631190439827091,5894.0206836727775
0.392,-0.4619878143008477,5897.789843103063
0.396,-0.4492697741581745,5903.718828036951
0.4,-0.41661862405020444,5902.478149302371
0.404,-0.35790477192860004,5900.316239574916
0.408,-0.2728509940158461,5895.92187891929
0.412,-0.16959947511553308,5907.721947448463
0.416,-0.0648672482360828,5898.867258332812
0.42,0.019094999221394775,5900.327020417793
0.424,0.060191785415214895,5890.020167708149
0.428,0.042857850857648434,5900.942866529015
0.432,-0.037276807719383194,5898.781446959564
0.436,-0.17192686796813073,5896.967714677528
0.44,-0.3419078992085479,5895.228649394766
0.444,-0.5211468029232235,5909.756319096535
0.448,-0.6818587537057139,5902.088912324706
0.452,-0.8000102013607469,5895.702392082843
0.456,-0.860185376863984,5898.908188003951
0.46,-0.8587802513308741,5896.5405127200565
0.464,-0.8045028241251009,5904.340976567438
0.468,-0.7158087604360541,5897.088900855098
0.472,-0.6159422018730224,5900.681400883118
0.476,-0.5270208193289638,5896.965572754038
0.48,-0.46472609497313633,5898.377681319463
0.484,-0.43491422877942015,5896.850207952681
0.488,-0.43313313116491026,5900.4411301314985
0.492,-0.4473809853647536,5893.660635313705
0.496,-0.4632699290488257,5905.946370018743
0.5,-0.4695580118563168,5904.499589128038
0.504,-0.46165862437453126,5904.32416460986
0.508,-0.44165467618942345,5906.557227880836
0.512,-0.4150977306401179,5897.464643236242
0.516,-0.38643388363270165,5903.028799621199
0.52,-0.3554131533915313,5903.458479150622
0.524,-0.31621626285343557,5898.694107393779
0.528,-0.25976118336963494,5892.961522072236
0.532,-0.17828590299529323,5906.160344688008
0.536,-0.0703018244835246,5904.48071686808
0.54,0.056259252140630524,5904.753516101365
0.544,0.18426305826870903,5896.061550055209
0.548,0.29116285810561343,5903.326936341719
0.552,0.3550119852494062,5909.218805736118
0.556,0.3604156535261898,5901.57827563954
0.56,0.30245478196623266,5904.269821247517
0.5640000000000001,0.18786695926569866,5893.676275447578
0.5680000000000001,0.033844966354410255,5895.923007757757
0.5720000000000001,-0.13493847013949214,5905.986328645568
0.5760000000000001,-0.2905830134876308,5904.737661880737
0.58,-0.40683954596009136,5898.896495793309
0.584,-0.4637068671792649,5901.414147185303
0.588,-0.4509273962821262,5896.037220251567
0.592,-0.369911826152015,5892.184864950707
0.596,-0.2338675524395531,5905.367929241887
0.6,-0.06603913972066806,5900.550094781092
0.604,0.10384374636840565,5907.059803836671
0.608,0.2446019026482383,5902.812836241288
0.612,0.32952902354230623,5898.728716035501
0.616,0.34201566765458336,5901.96500396707
0.62,0.27906131949957536,5900.236162386868
0.624,0.1511570539661175,5891.962192343672
0.628,-0.02134146975540622,5892.280857064048
0.632,-0.2134450528779058,5900.751321089753
0.636,-0.40013729184591407,5905.039664676679
0.64,-0.55929526988615,5904.8747297640775
0.644,-0.6731546985049811,5897.987256808582
0.648,-0.7290476663453692,5910.238980786049
0.652,-0.7200309641610929,5902.701109663086
0.656,-0.6457088851325793,5897.260799658875
0.66,-0.5131061388844659,5901.778628987342
0.664,-0.33694388558929667,5913.602585778418
0.668,-0.13848607205908217,5904.567465178046
0.672,0.057406659222566256,5904.653569946247
0.676,0.22644842660202863,5900.627072063551
0.68,0.3490802398089099,5903.646460583444
0.684,0.41344553706546905,5897.060773512057
0.6880000000000001,0.4166667279925424,5905.798614523821
0.6920000000000001,0.3645342201907892,5893.3456461384485
0.6960000000000001,0.2700360519062977,5898.91371748765
0.7000000000000001,0.15106841033169616,5910.248499979017
0.704,0.0273381789689218,5893.005934745678
0.708,-0.08355357938676103,5900.803266733064
0.712,-0.1701815668790472,5904.833370670848
0.716,-0.23000773867331287,5906.304559491982
0.72,-0.2692583116891525,5905.2566483857445
0.724,-0.2997026127662797,5900.555921449663
0.728,-0.3336191720910453,5896.141280067065
0.732,-0.3790398784831055,5901.771780994538
0.736,-0.4370091427993059,5895.537662578665
0.74,-0.5015521287143164,5896.776324544408
0.744,-0.5621527005360231,5907.82294314761
0.748,-0.6080404889310322,5903.9809384440905
0.752,-0.6329895554976337,5900.178336589499
0.756,-0.6385832734397415,5895.394074366525
0.76,-0.6339470656495128,5898.408071013407
0.764,-0.6314728964947792,5897.824130478726
0.768,-0.6402666890728091,5892.960181039572
0.772,-0.6604354032157301,5906.647462521791
0.776,-0.681105297873844,5897.645396873959
0.78,-0.6834240547180481,5894.515623417177
0.784,-0.6475239648783055,5900.678992400333
0.788,-0.5606023695119293,5897.319245046662
0.792,-0.42281878843583465,5887.893647433633
0.796,-0.2487251529304848,5897.487998667475
0.8,-0.06377029584042962,5889.167287664299
0.804,0.10277497584128978,5905.505763192088
0.808,0.22591752170089638,5912.575920688288
0.812,0.29125731784529746,5893.608768091365
0.8160000000000001,0.2975268178577208,5894.517283714044
0.8200000000000001,0.2549280807106915,5902.968398952733
0.8240000000000001,0.1804475187798408,5892.1092680727215
0.8280000000000001,0.09228508111171427,5890.28249971402
0.8320000000000001,0.0055436068834581525,5900.538713106807
0.836,-0.06953093897056761,5903.0340260249
0.84,-0.12689273239736043,5904.8729922758175
0.844,-0.16308341345535982,5905.684950772945
0.848,-0.17634275530140497,5892.48885427855
0.852,-0.16695881445741464,5893.578403044345
0.856,-0.1380043347411739,5904.183617774934
0.86,-0.09535353186390463,5911.724761239855
0.864,-0.046660863257128586,5890.489102151896
0.868,0.0001851906492003359,5898.946142369999
0.872,0.03838077336195714,5902.785247542764
0.876,0.06290085480041882,5897.877489727464
0.88,0.07074490647207661,5902.976001263333
0.884,0.06116114127730231,5900.238035847328
0.888,0.03598494060880135,5900.001383865772
0.892,-0.00025003948116525653,5902.602917995168
0.896,-0.04094021641193869,5902.285377581356
0.9,-0.07897830743997601,5898.194452955423
0.904,-0.10881526850362529,5906.711936302273
0.908,-0.1280775956435091,5906.750473700118
0.912,-0.13798927860338425,5894.505365178296
0.916,-0.1426739926750349,5896.188145297355
0.92,-0.1480434277215428,5893.99551538863
0.924,-0.1607227746026675,5906.893643168242
0.928,-0.18672573124108058,5910.174764248145
0.932,-0.22945374132775145,5901.903775657781
0.936,-0.28739611019953476,5897.0598399346045
0.94,-0.35272426858690575,5908.748349239661
0.944,-0.4118709631000049,5908.178426365989
0.948,-0.44835008041386704,5895.011782149349
0.952,-0.4471892478899449,5902.811325321429
0.956,-0.39966839488438377,5899.023289150451
0.96,-0.3067129819486299,5900.933689803829
0.964,-0.17964875886383494,5899.966277131278
0.968,-0.03808842934286712,5897.911217789363
0.972,0.09418282320972383,5902.079975928183
0.976,0.1939937083747702,5909.30182967871
0.98,0.24318530252044304,5905.915099294701
0.984,0.23214233895217817,5902.208740701817
0.988,0.16222588575941543,5894.208479230981
0.992,0.046521539403540445,5899.749837285078
0.996,-0.09206742071930786,5896.425872419201
1.0,-0.2259161692672729,5900.185742703216
1.004,-0.33011418005602416,5899.190658836647
1.008,-0.38983417888035693,5901.2923793924665
1.012,-0.40461201727437757,5904.970674294451
1.016,-0.3875736950374708,5906.498195195279
1.02,-0.3599849236722845,5903.399355844983
1.024,-0.3435817984456409,5901.549375769637
1.028,-0.3536312271958457,5900.222849656826
1.032,-0.3946998590564998,5902.734133468418
1.036,-0.45978566244784036,5901.177805616385
1.04,-0.5325341769848977,5897.008671069627
1.044,-0.5917382481519599,5900.748113943322
1.048,-0.6169754969150338,5894.00903157585
1.052,-0.5940004120674877,5899.39060533474
1.056,-0.5185477645852905,5893.473261385295
1.06,-0.397695232054346,5901.32241905435
1.064,-0.2486636877430014,5903.097318953373
1.068,-0.09541653789022446,5888.877644106615
1.072,0.036432919646098766,5901.549915982098
1.076,0.12565423733649808,5902.090414430423
1.08,0.16109343088522451,5897.023237520704
1.084,0.14533430181629206,5888.66010896211
1.088,0.0947984132199241,5897.8643813552335
1.092,0.035622398639801295,5899.160731730787
1.096,-0.003964596686590869,5903.678414032129
1.1,-0.0025610399416862713,5904.709076582108
1.104,0.04732359219391668,5897.697613399647
1.108,0.1367994877752927,5904.912883665358
1.112,0.24368048657721975,5890.915694675943
1.116,0.3397296803793237,5896.649928881321
1.12,0.39928569006316456,5901.101114657396
1.124,0.406481366131376,5907.7920739349975
1.128,0.3590469579805909,5897.813481172612
1.132,0.26779128044100203,5900.800531637908
1.136,0.15225573996395908,5895.892126009672
1.14,0.034393863534015516,5908.5389447199705
1.144,-0.067374497789488,5895.533790200404
1.148,-0.14206094833509825,5899.199295738443
1.152,-0.18740990086366743,5911.28049582719
1.156,-0.20877987913082427,5894.761488730959
1.16,-0.21608850188881637,5899.145878561027
1.164,-0.21965790979187141,5895.383731357994
1.168,-0.22625926892961903,5905.387501815601
1.172,-0.23675713274401236,5895.470696420068
1.176,-0.24617595680685692,5899.967511035025
1.18,-0.24606161796232703,5896.188407887007
1.184,-0.22819445075411357,5884.192290822566
1.188,-0.18824395764918134,5905.034451982485
1.192,-0.1279866674362288,5902.317257232644
1.196,-0.055345387864861366,5898.423280790214
1.2,0.017574453088356666,5895.349205893164
1.204,0.07764960634684555,5902.564453159981
1.208,0.11412269417562107,5903.972756420016
1.212,0.12122657811796146,5886.913440929634
1.216,0.09924306224271748,5892.733039168666
1.22,0.05375414291604696,5900.398123958145
1.224,-0.006411394709989131,5892.0588534590925
1.228,-0.07160756848121072,5894.646769614611
1.232,-0.1332219673764934,5902.755804577333
1.236,-0.1842484231385645,5902.9275904430815
1.24,-0.21856844959758712,5899.764814771369
1.244,-0.229955941270378,5891.039034763087
1.248,-0.21237012911312483,5905.244090046702
1.252,-0.1623312396901261,5897.001285512574
1.256,-0.08237798258446338,5893.9818793143695
1.26,0.016753980564374996,5905.483618562426
1.264,0.11726448902819907,5897.204855831892
1.268,0.19888722489681113,5899.055028586976
1.272,0.24503364787676865,5901.750514975174
1.276,0.2477356016902066,5903.139352053589
1.28,0.20948176343289499,5898.089341128862
1.284,0.14171466702265662,5892.43971926959
1.288,0.06109805999167933,5896.748578148292
1.292,-0.014868937227319173,5908.602368595077
1.296,-0.07159797997260484,5900.353167810705
1.3,-0.09979410065692249,5895.844994242301
1.304,-0.09625228082144992,5906.845645507528
1.308,-0.06330852340543906,5894.584997834325
1.312,-0.0076181559589272784,5903.332360272499
1.316,0.0610174059961012,5900.554314314663
1.32,0.1305633899545947,5897.61879215322
1.324,0.18783220505785495,5906.704796508407
1.328,0.22039252052667682,5899.874550317081
1.332,0.21957820305540945,5909.212361365378
1.336,0.18393569825831346,5890.512407636035
1.34,0.12147307566044001,5909.645778465884
1.344,0.0489237016923433,5895.703489019349
1.348,-0.012618251758586623,5909.763614111804
1.352,-0.044461765196105375,5907.533990545987
1.356,-0.036886994080794926,5904.241984051143
1.36,0.007065657444497099,5896.235653023825
1.364,0.07190829054918906,5902.041212824972
1.368,0.1338077292821328,5891.843302650914
1.372,0.16699041542654708,5897.355128074003
1.376,0.15055135055134336,5897.499532189201
1.38,0.07398525039784819,5897.807784113908
1.384,-0.05971866929743378,5895.37149475333
1.388,-0.23408773089597118,5899.609627881741
1.392,-0.4225095093294218,5899.8596727588365
1.396,-0.594382354017995,5899.648787758634
1.4,-0.7224625283755246,5895.594956616723
1.404,-0.7890896995119264,5903.524822920601
1.408,-0.7893411377282371,5902.362643288487
1.412,-0.7304456586205795,5894.3074270947245
1.416,-0.628166806734089,5905.133841268243
1.42,-0.501741575632519,5904.552767370364
1.424,-0.3692124067444307,5897.561289471289
1.428,-0.2445693691305593,5899.189901408178
1.432,-0.13707181563037482,5895.969222694389
1.436,-0.05201853692625628,5895.470440570123
1.44,0.008129732248117512,5900.410722592228
1.444,0.04293132612239698,5895.642551990966
1.448,0.05354905517391337,5910.340845046552
1.452,0.04266993471960068,5910.718843168962
1.456,0.014733811297978688,5891.254961260311
1.46,-0.023657326434917945,5900.04997759604
1.464,-0.06358577582092181,5903.515456565362
1.468,-0.09461181313844083,5897.785516255435
1.472,-0.107028577712023,5904.334880539281
1.476,-0.0952325679505617,5888.588814068203
1.48,-0.06063488101631763,5910.146607846467
1.484,-0.01198591122320839,5902.51091193243
1.488,0.03795354112494285,5903.707716660635
1.492,0.07818447900813477,5906.383882069619
1.496,0.1046396616401225,5904.181770248303
1.5,0.12176768519039895,5903.293674538966
1.504,0.13949079533663775,5894.443653559656
1.508,0.16696681857693682,5909.697447225795
1.512,0.20610015773348653,5897.76777525093
1.516,0.24768481531143519,5904.714932132416
1.52,0.27176156721783934,5892.5079987634335
1.524,0.2521500440607524,5886.246855989871
1.528,0.16413560211464182,5904.345644622533
1.532,-0.0058336800441556565,5901.266691638741
1.536,-0.2497483220405259,5896.7227701153015
1.54,-0.5293802870357562,5899.863028784022
1.544,-0.7732901886631883,5897.834449621295
1.548,-0.8833919233454186,5893.80201486657
1.552,-0.7525016442352794,5898.353183858078
1.556,-0.2903552221331264,5894.836354062834
1.56,0.5482188129763825,5900.735422526799
1.564,1.7417279047891001,5902.511631154671
1.568,3.195763064154572,5909.495915234054
1.572,4.757051861852637,5905.36842804949
1.576,6.245535805498639,5892.612810237263
1.58,7.494494093861968,5891.483479442938
1.584,8.385322994736951,5897.72707099989
1.588,8.866634700592183,5907.766426234843
1.592,8.954500431635262,5900.876427191158
1.596,8.717572549059538,5909.573293570584
1.6,8.25445776242785,5895.128338169919
1.604,7.670519829803549,5886.433910142925
1.608,7.058822424568839,5894.242128594743
1.612,6.487460376948632,5898.126134400275
1.616,5.994140216440699,5904.830022735387
1.62,5.587968594744421,5902.802718750879
1.624,5.257202598014733,5896.175906585718
1.628,4.980354354625686,5900.103308923235
1.632,4.7371922964831885,5901.024775016282
1.636,4.516334768642063,5902.113012286471
1.64,4.317408829400295,5906.231938392961
1.644,4.147815787593997,5905.594091192656
1.648,4.016218068924033,5898.352616240471
1.652,3.9259719939115456,5907.056977496597
1.656,3.8713231511629744,5896.252002131909
1.66,3.8376372346119627,5905.371733104973
1.664,3.8052151098383744,5899.541161741716
1.668,3.754984043025863,5897.907971971175
1.672,3.673785438036597,5901.9008248681785
1.676,3.5572691871224023,5911.11012557144
1.68,3.4095590493644132,5897.543470541917
1.684,3.240366092506713,5900.960657443648
1.688,3.0612496903274,5906.352589681522
1.692,2.8826514750776036,5904.525445328242
1.696,2.7123492488848258,5889.422663739818
1.7,2.555003753201791,5897.733936332321
1.704,2.4122332545108622,5899.742587128508
1.708,2.283012338386828,5902.305683785672
1.712,2.1645249929113186,5903.278893390831
1.716,2.0535479663829794,5902.044454763583
1.72,1.948087483361782,5908.806169873687
1.724,1.8486595322862036,5902.2512170545615
1.728,1.758591129502368,5899.047537762536
1.732,1.6830603703780933,5897.679508299008
1.736,1.6270843938863915,5902.7413092260895
1.74,1.5931364459039197,5891.990877899938
1.744,1.5793628007595992,5894.019252014971
1.748,1.5792145370973503,5895.500987170547
1.752,1.5826630962021013,5894.5031368652335
1.756,1.5784581621026583,5902.100617126018
1.76,1.5566243257833325,5892.592704363388
1.764,1.5105984402733108,5901.104833229255
1.768,1.438627385080967,5897.450171420775
1.772,1.3440413314860686,5902.727708909126
1.776,1.234155505773908,5900.973232467632
1.78,1.1181454168465148,5906.550980807863
1.784,1.00484679000133,5897.950760649999
1.788,0.9013294945822263,5890.832366306038
1.792,0.8123128632667727,5896.2295403741455
1.796,0.7398825058855617,5886.122633348932
1.8,0.6831398742707349,5892.563242501029
1.804,0.6379997914402497,5879.356009165689
