时间(s),电压(V),幅值(高频80K)
0.0,1.0938609922885996,5906.483333776823
0.004,0.8705936515739777,5897.689798216091
0.008,0.6594954990725803,5898.009839425308
0.012,0.4745200752276659,5901.996010065007
0.016,0.32716279628354555,5899.414352839845
0.02,0.2237204955832573,5898.7719012408415
0.024,0.1632868015788274,5899.766795456892
0.028,0.13791428831523386,5901.865659643034
0.032,0.13463227431680544,5908.872111860127
0.036,0.13831067197127964,5901.3773002947
0.04,0.13483693806761002,5890.210305208428
0.044,0.11428313638686004,5899.5740063510175
0.048,0.07327931153408256,5907.491044969094
0.052,0.015550751877319068,5908.758594031612
0.056,-0.04985270267419618,5909.076655187609
0.06,-0.11191077200363264,5906.487958159966
0.064,-0.1609199564149626,5896.78843216684
0.068,-0.19043221288730552,5899.82836577374
0.072,-0.1979131171810106,5905.425498896653
0.076,-0.18483320756500315,5900.312265910478
0.08,-0.15630160505850282,5893.074925766084
0.084,-0.1199055988289165,5898.83983703674
0.088,-0.08396581559175023,5894.893373474243
0.092,-0.055993521860789826,5891.697136417966
0.096,-0.04185022162962721,5894.417773608479
0.1,-0.04538715500512995,5897.234716639412
0.104,-0.06808260568221818,5895.068545498421
0.108,-0.1086442549746461,5895.509509835449
0.112,-0.16303638845707744,5904.678172325606
0.116,-0.22518485483721978,5902.075699763022
0.12,-0.28799035099524245,5899.869730949635
0.124,-0.34410604068969325,5902.003773233321
0.128,-0.3863157662441326,5900.6431228693855
0.132,-0.40777912452854553,5905.4963141817525
0.136,-0.4026423194879885,5898.277835563091
0.14,-0.3674051893751577,5901.130100098888
0.144,-0.30286387609134996,5896.646462635219
0.148,-0.21579727822414285,5900.298150707325
0.152,-0.11931884229362513,5899.287729669675
0.156,-0.0309645244135622,5901.818190306245
0.16,0.03180537935202641,5902.539207172584
0.164,0.05761856751066099,5888.059215303368
0.168,0.04598271641963154,5904.750145139585
0.172,0.007794784397021135,5905.786998956978
0.176,-0.03949402623012119,5903.440060946508
0.18,-0.07983707568631325,5900.023880518595
0.184,-0.10531534453567187,5907.930529678047
0.188,-0.11797533711454242,5904.517709052938
0.192,-0.12612418532402028,5908.88818077802
0.196,-0.13748490138410205,5903.898516913999
0.2,-0.1530081268643663,5908.159910918941
0.204,-0.16460026188382065,5906.519216043639
0.208,-0.15806179497756093,5892.218187569889
0.212,-0.11992689394147363,5897.258225232516
0.216,-0.044904199113856576,5895.889331290467
0.22,0.05964458176158569,5899.248015486136
0.224,0.17429884618781194,5907.509027654708
0.228,0.27313790816928096,5895.824014422423
0.232,0.33210454765847763,5900.965982340876
0.236,0.33685835546295645,5890.163533671826
0.24,0.2871624544388918,5904.634898020894
0.244,0.1965313006333098,5892.991154830751
0.248,0.08768415474993747,5903.806214419139
0.252,-0.014576349348471743,5905.522563831745
0.256,-0.09082806606496217,5903.45092131341
0.26,-0.13222174297791223,5908.862867882909
0.264,-0.14148826951595045,5900.845736186311
0.268,-0.130067586816042,5912.309397845334
0.272,-0.11373382520568961,5903.874643894897
0.276,-0.1089430706197042,5894.347900502296
0.28,-0.13027864102510256,5899.625312565227
0.284,-0.18812567319835724,5900.556524926554
0.288,-0.28605424171843774,5901.231831118302
0.292,-0.4184752135896061,5907.30774416772
0.296,-0.5699278517479056,5898.95443930612
0.3,-0.7173026981247664,5906.24834394018
0.304,-0.8351654068314222,5897.154820071106
0.308,-0.9025665733176477,5896.611114810607
0.312,-0.9086269490399601,5900.145325282684
0.316,-0.8549478655302096,5893.999004106108
0.32,-0.7548754999280989,5897.447696728168
0.324,-0.6308081178286674,5895.998250142231
0.328,-0.5102986163073352,5898.538845390672
0.332,-0.4210462848991237,5895.061506546687
0.336,-0.38521834160249374,5900.086112316019
0.34,-0.41433398345068917,5895.72874902999
0.344,-0.5061235857498618,5897.68855666146
0.348,-0.6443205350093933,5903.615207199214
0.352,-0.8017619292526339,5906.286226649414
0.356,-0.9464661968461167,5896.291311688531
0.36,-1.049316802816737,5899.480161515638
0.364,-1.0910592503116008,5904.974514231903
0.368,-1.0663365461945662,5903.303239719733
0.372,-0.9836097111783164,5898.457872327931
0.376,-0.8613810912512868,5907.18560577633
0.38,-0.7223943214339198,5898.582764681766
0.384,-0.5879462679208853,5891.464141157562
0.388,-0.4739833882832714,5896.036298504539
0.392,-0.389601210046895,5902.732356590407
0.396,-0.3375649017237831,5892.974765655512
0.4,-0.3159865923629172,5901.636254743927
0.404,-0.320276018863753,5896.74901243275
0.408,-0.3445687234183246,5895.65530128432
0.412,-0.38198418081751223,5900.600714633233
0.416,-0.423680201318771,5896.1397345866735
0.42,-0.4578333925422013,5895.923475729677
0.424,-0.4704691324745667,5907.531660217188
0.428,-0.44929601293450033,5905.969206625823
0.432,-0.38949030157711956,5898.530300671013
0.436,-0.2984263588194209,5900.52315732377
0.44,-0.19629990951327927,5898.094481997863
0.444,-0.11149068996653948,5892.177419859272
0.448,-0.07198925077930035,5892.037320827186
0.452,-0.09583885847752678,5906.511433533013
0.456,-0.18386129155261252,5901.106466359547
0.46,-0.31726631842663866,5901.293545209524
0.464,-0.4614142060817357,5896.741043790933
0.468,-0.5751687336662294,5896.640246788754
0.472,-0.62330882807021,5901.875581744242
0.476,-0.5880309977979119,5909.42964645515
0.48,-0.47536993513398473,5900.366145306443
0.484,-0.3138573979444379,5897.429316825155
0.488,-0.14578805743254053,5908.2049030253165
0.492,-0.014706743000174799,5906.006131220004
0.496,0.04597569121817389,5902.04369448768
0.5,0.019858084977041144,5901.381232570778
0.504,-0.09073185328772192,5896.442583442705
0.508,-0.26712019984389324,5893.28520555585
0.512,-0.4793920601145556,5893.476824349212
0.516,-0.6928081315215613,5908.146294263068
0.52,-0.8740143383750502,5897.733294833549
0.524,-0.9958824966390428,5889.92582956417
0.528,-1.0406912825409702,5898.077325482024
0.532,-1.002069998061314,5901.797263401619
0.536,-0.886081098677889,5901.304390992732
0.54,-0.7110274193612586,5897.078656658681
0.544,-0.504866485983416,5896.582542781168
0.548,-0.299576496215271,5900.642804883965
0.552,-0.12351334041661913,5900.880611403256
0.556,0.00551627449979032,5900.87421930786
0.56,0.08345382589905795,5900.6851589439375
0.5640000000000001,0.11801540314152845,5900.521807041101
0.5680000000000001,0.12278219686412044,5899.932996399349
0.5720000000000001,0.11074576160407815,5909.184608687178
0.5760000000000001,0.09072437000318824,5902.473264320379
0.58,0.06772871975654224,5902.027105548583
0.584,0.0453688023279992,5897.206490923254
0.588,0.027233920745042293,5895.771177598946
0.592,0.01575655871092325,5897.723371525496
0.596,0.00977810162654276,5898.788737532556
0.6,0.003359116969040496,5900.622073700375
0.604,-0.012679204262155281,5896.713264226134
0.608,-0.047148104111659636,5910.076711202487
0.612,-0.10472708961825415,5903.315935753107
0.616,-0.1836498133015035,5897.37884155868
0.62,-0.27549384679679506,5908.908287673157
0.624,-0.36698866138040387,5900.123038331895
0.628,-0.4432557406719221,5902.781838014886
0.632,-0.49148779160449985,5899.654728023939
0.636,-0.5039941080511559,5894.944567770057
0.64,-0.4799291100927355,5902.43871789444
0.644,-0.4255231524229527,5894.512082555958
0.648,-0.35289150386755036,5896.838164409375
0.652,-0.2776800703852333,5897.851129571956
0.656,-0.21617227085380955,5901.027094110724
0.66,-0.18268982316041818,5896.284247455845
0.664,-0.18767133434773967,5901.600422722649
0.668,-0.2360781026605928,5895.196937686381
0.672,-0.3257310010625606,5896.1556474515255
0.676,-0.44597400157031075,5902.713276172083
0.68,-0.5777303883445536,5893.250798710295
0.684,-0.6958375308778519,5894.156181640997
0.6880000000000001,-0.7737396486697387,5899.237640811363
0.6920000000000001,-0.7896853050508637,5898.099924801716
0.6960000000000001,-0.7328047524873239,5905.65617031769
0.7000000000000001,-0.6070897903147582,5904.091513516982
0.704,-0.4316034060577086,5897.639710274712
0.708,-0.23625213974274756,5907.131728163133
0.712,-0.053956869499436004,5902.366977545408
0.716,0.08845380216719553,5894.941687715297
0.72,0.17757350871074906,5903.57875136378
0.724,0.21645811547846336,5897.1544039418
0.728,0.22246218467904405,5907.066786607253
0.732,0.22076825134507697,5899.807927389383
0.736,0.23567989350425997,5900.032183550829
0.74,0.28206167768381385,5895.921224365395
0.744,0.359116601189761,5896.446381806859
0.748,0.44828487370300246,5897.9856006363
0.752,0.5163130811197119,5902.650884084701
0.756,0.5233494578614843,5900.076749167296
0.76,0.4344362055001934,5906.426285759469
0.764,0.23134065470558057,5898.207117243545
0.768,-0.07915882566219815,5903.017093488931
0.772,-0.46381523186394646,5896.649530318439
0.776,-0.8691512105863672,5898.128363371578
0.78,-1.2331217983066751,5905.677175896775
0.784,-1.4981843953089276,5902.824939648135
0.788,-1.622440074161926,5890.068310143095
0.792,-1.5873815702919185,5893.913654028206
0.796,-1.4018600615692098,5906.268476976064
0.8,-1.1016890261413974,5896.790189073884
0.804,-0.7439947475819941,5897.495515942176
0.808,-0.3961976658496482,5898.782433877033
0.812,-0.12147671201929933,5903.317500198266
0.8160000000000001,0.03533248983868864,5895.966412473191
0.8200000000000001,0.05682698214662309,5910.209869641252
0.8240000000000001,-0.045769903414032254,5900.3148861091895
0.8280000000000001,-0.23901736365181173,5893.564112323864
0.8320000000000001,-0.4781757340629954,5902.305133987617
0.836,-0.718478911757909,5899.475722982241
0.84,-0.9234079730947015,5889.922554570451
0.844,-1.0684997061114143,5897.610407775871
0.848,-1.1411991478904562,5895.128301550185
0.852,-1.138565493942546,5894.625709146891
0.856,-1.0648483896109013,5901.765919084957
0.86,-0.9301867165706439,5898.421842608265
0.864,-0.7505479373070846,5899.24802624958
0.868,-0.548011644265591,5893.1252219367525
0.872,-0.3498415702649435,5902.996117528654
0.876,-0.18499175548190952,5906.897988282317
0.88,-0.07813027792244863,5901.464860165597
0.884,-0.04313884784596718,5895.23718945775
0.888,-0.07889221870890244,5896.171342792432
0.892,-0.16931377017525587,5895.451304374073
0.896,-0.2878277150123331,5898.31923325615
0.9,-0.40452062069447914,5899.753906514271
0.904,-0.49348837086445224,5901.008202599977
0.908,-0.5381067128153298,5896.849238726878
0.912,-0.5329111046822644,5898.155483631762
0.916,-0.4820398871528229,5899.596948088246
0.92,-0.3954335240188754,5891.099428326516
0.924,-0.28464157641737436,5907.575227808091
0.928,-0.159827960333014,5904.02938955546
0.932,-0.028682654856698627,5897.377727708909
0.936,0.1029616887038145,5896.816294674469
0.94,0.22959222273409566,5899.99428202989
0.944,0.34448910392332327,5904.475506619927
0.948,0.4388890921205945,5891.060827186734
0.952,0.5020929588396461,5898.44020368527
0.956,0.5224075112077816,5904.188106806068
0.96,0.48860050448826786,5896.640823204525
0.964,0.3916118423488107,5900.576463492836
0.968,0.22669849962033495,5895.979163951297
0.972,-0.0034233043155133085,5894.695665508342
0.976,-0.2842068467085303,5890.16902911748
0.98,-0.5845116279684187,5892.470491415939
0.984,-0.8534235032056351,5904.434878760722
0.988,-1.021212101448476,5901.366535472028
0.992,-1.0065898339087234,5907.721135863565
0.996,-0.7308490660480375,5901.4898473497615
1.0,-0.1370246216221706,5910.455159683123
1.004,0.7901866530911624,5906.873114121613
1.008,2.0098025184764223,5916.154359060208
1.012,3.4218239229627585,5901.479169510692
1.016,4.880889258551236,5903.602455457647
1.02,6.225105862492689,5899.459100449721
1.024,7.311654612462354,5894.742008379502
1.028,8.046850472099223,5895.959640061457
1.032,8.400777010835174,5900.960083008485
1.036,8.4036961425836,5900.269807923728
1.04,8.128700912892127,5898.078331396479
1.044,7.669024222353613,5897.709726911244
1.048,7.117950397115083,5907.483889083232
1.052,6.5554953774632505,5903.234512207991
1.056,6.04162077566014,5899.589074662044
1.06,5.613526296686503,5902.374872351515
1.064,5.285265743963261,5893.625865755776
1.068,5.049713702437784,5904.571464428481
1.072,4.883540906680721,5895.042083107917
1.076,4.754969810163119,5901.74978404614
1.08,4.632804652688389,5898.531366356779
1.084,4.494518181373556,5896.400745234879
1.088,4.331255447349136,5900.316841998092
1.092,4.148360935814891,5913.0142240877885
1.096,3.9613380021484472,5892.816344298725
1.1,3.7888127373854474,5896.022841131912
1.104,3.6453005364311766,5897.915968032356
1.108,3.536367598657409,5903.606577843599
1.112,3.457340130673079,5900.687458494385
1.116,3.395285609169062,5894.91417224557
1.12,3.3331751761081456,5894.503236179586
1.124,3.2546694302819352,5897.185361583726
1.128,3.1478901269628463,5900.597417022812
1.132,3.0071516602629873,5899.387352608052
1.136,2.832608427873502,5901.414013608782
1.14,2.6285156207082356,5892.553787812087
1.144,2.4011912163762235,5902.006032832338
1.148,2.157823775108535,5908.576016462785
1.152,1.9067005808373452,5901.643879214987
1.156,1.6582551010370064,5902.840696083186
1.16,1.4253783388353325,5908.145302087377
1.164,1.2217117223026117,5896.210413439178
1.168,1.0581881932892594,5901.35961176364
1.172,0.9396440208825229,5898.309519420786
1.176,0.863519557676875,5895.291413489836
1.18,0.8214524299811632,5901.923202831794
1.184,0.8029054681652167,5897.016792051833
1.188,0.7988210130120279,5908.410392991024
1.192,0.8033652932035569,5897.153847169351
1.196,0.8132609576693746,5901.421347826548
1.2,0.826001055251171,5897.354185466935
1.204,0.8388622773923535,5913.957302041702
1.208,0.8495304564035758,5900.826605373139
1.212,0.8573576989639452,5894.410087189659
1.216,0.8634913937040096,5898.378213276508
1.22,0.8691017591985494,5897.696250894215
1.224,0.8727214473765209,5898.48572409307
1.228,0.8686204790318092,5902.132474979831
1.232,0.8475562471212145,5895.252384892923
1.236,0.799921291426211,5897.56469251149
1.24,0.7201131861736726,5894.39317630308
1.244,0.6102110360830478,5896.369195877389
1.248,0.48109946174975804,5888.555193042344
1.252,0.35023934890042124,5884.099207264304
1.256,0.23683319209548187,5882.76408764927
1.26,0.1563385917293008,5889.217695090326
1.264,0.11664620679989275,5881.019164442077
1.268,0.1175244974500351,5878.717003933731
1.272,0.15329226217043213,5884.970286018558
1.276,0.21700459873377065,5877.588430715395
1.28,0.30378369421450335,5880.0458830552325
1.284,0.411550633498994,5883.892237178758
1.288,0.5387923693534805,5877.452033233502
1.292,0.6804033971074782,5877.97695706299
1.296,0.8235497354786961,5867.008879340016
1.3,0.9457941497754814,5872.178099910015
1.304,1.0174003827935982,5876.978921437991
1.308,1.0084910490242156,5865.903756526735
1.312,0.8994770704646263,5870.024612643511
1.316,0.6909087149216744,5871.351175479259
1.32,0.40819340642317153,5869.540258894472
1.324,0.0982092939761501,5866.314522865906
1.328,-0.18191383412756446,5870.773562259465
1.332,-0.3802272819572347,5864.937673491228
1.336,-0.4642780536630309,5863.28138731072
1.34,-0.4296684534689691,5867.822164968592
1.344,-0.3005453870816023,5863.688591538613
1.348,-0.12233236889752332,5871.661849167387
1.352,0.050832108041691575,5870.916296552527
1.356,0.1702421154313739,5860.24397045197
1.36,0.20455222738351111,5869.1106980968325
1.364,0.14651049609476216,5864.90891489243
1.368,0.012952957598223798,5857.55723918846
1.372,-0.16157182613564358,5861.7446741777785
1.376,-0.33522571252438255,5853.08583837717
1.38,-0.4699054626535588,5851.354158426351
1.384,-0.5397043405389941,5865.81790673495
1.388,-0.5351114321488429,5847.3796619745335
1.392,-0.4629644261483173,5853.8858687729935
1.396,-0.34310684450555545,5860.36875870656
1.4,-0.20271296339669564,5857.398515096621
1.404,-0.06922731313583746,5861.369103031268
1.408,0.03656931635249169,5855.808592983829
1.412,0.10539171492740124,5849.775754743007
1.416,0.14075700160352464,5855.60649668278
1.42,0.1566222834385372,5849.809116843263
1.424,0.17226627606518322,5860.32231389388
1.428,0.20581577881969643,5848.774995983125
1.432,0.26800163834838175,5852.732204684829
1.436,0.357848201388622,5850.501021480346
1.44,0.46186717536680477,5837.198025182476
1.444,0.5574651931101148,5839.777969474261
1.448,0.6196885374184562,5853.970009088969
1.452,0.6289497062055291,5851.196380081614
1.456,0.5769241265728556,5858.221091677095
1.46,0.46858789079475643,5844.183810161435
1.464,0.31996631305054396,5847.30064466579
1.468,0.15292744377745968,5843.312473824503
1.472,-0.010561191956886283,5837.988411612005
1.476,-0.1527017362838963,5846.07405822111
1.48,-0.2622232788896805,5835.80908824615
1.484,-0.3354657457329642,5840.23259844371
1.488,-0.37643001969211864,5839.342693773684
1.492,-0.39521305640216337,5850.486775568925
1.496,-0.4044839006244015,5846.760382912894
1.5,-0.4149205560618305,5849.529379426579
1.504,-0.431563814463415,5839.468035740223
1.508,-0.4528358024191713,5841.047276690384
1.512,-0.472606539711769,5843.375236978722
1.516,-0.4840906827875823,5839.364480237714
1.52,-0.48342690022764734,5844.698293619321
1.524,-0.4710250058922925,5832.875692540954
1.528,-0.45012952413804896,5844.941197935113
1.532,-0.4237573797060844,5845.246330142857
1.536,-0.39206453174769623,5847.392169825828
1.54,-0.3517481074032723,5853.316773359581
1.544,-0.29776874321043667,5840.115728547435
1.548,-0.22641168221442157,5842.125991133478
1.552,-0.1381207295945874,5841.473665867829
1.556,-0.03870847899158189,5838.375835244204
1.56,0.06169126087733985,5849.089266326228
1.564,0.15147455480481742,5834.154331654439
1.568,0.2208950927431273,5839.409145840393
1.572,0.26438289729010295,5836.829528513469
1.576,0.28092888486555906,5834.07787927374
1.58,0.2726009350173807,5829.549417947501
1.584,0.24232059096345937,5829.756818799095
1.588,0.192578754441114,5836.056074583048
1.592,0.12619977746086086,5842.62900448615
1.596,0.048681232269628,5831.941296336867
1.6,-0.029853352331451973,5837.056986573071
1.604,-0.09516729093179897,5833.336600276043
1.608,-0.13250805145494454,5840.173917139115
1.612,-0.13192786027739556,5838.005937796703
1.616,-0.0927377886632689,5829.74990822519
1.62,-0.02472538476436412,5838.96489587919
1.624,0.0545956957692259,5842.828039263477
1.628,0.1253145654081679,5827.505137896821
1.632,0.17051157170099368,5836.157120985828
1.636,0.1797638720999506,5836.393281388432
1.64,0.15041155587726518,5835.591561374675
1.644,0.08744047225779791,5843.191273781222
1.648,0.0027381982899766584,5835.582935608004
1.652,-0.08649499243471356,5843.356593839997
1.656,-0.16073298533252942,5831.180150803723
1.66,-0.2020840345250497,5833.277625042208
1.664,-0.19764110929845177,5824.822692153641
1.668,-0.14077206411945142,5829.998006072399
1.672,-0.030458845560294406,5832.841245218938
1.676,0.12959671883904203,5835.818550739158
1.68,0.3304325529391409,5831.81025214048
1.684,0.5561185239235416,5828.099264264717
1.688,0.783114497766141,5829.196279161091
1.692,0.9828604908597874,5838.986958983585
1.696,1.1276944857802549,5834.663914416715
1.7,1.1979738675308809,5827.342512817699
1.704,1.187439326647114,5841.418916539878
1.708,1.1046053714358932,5839.012831161054
1.712,0.969673704813883,5831.232885912575
1.716,0.8082653053324828,5830.578288676209
1.72,0.64438568688573,5835.383308768372
1.724,0.49508789861780605,5827.242770328372
1.728,0.3683221064510274,5831.96412717156
1.732,0.2640429207648515,5835.702779501123
1.736,0.1775972225997796,5835.404099363302
1.74,0.10393023752416292,5827.122091971007
1.744,0.04089331120623818,5832.644014295192
1.748,-0.009916065527643543,5831.921203198633
1.752,-0.045235319524187634,5842.581512905063
1.756,-0.06389551180922973,5840.001722995382
1.76,-0.07013014706880796,5824.516543840709
1.764,-0.07480274451033594,5828.249552917265
1.768,-0.09389830074779185,5828.855066105497
1.772,-0.14442543583669734,5832.478852693959
1.776,-0.23883886827791628,5829.551807227585
1.78,-0.38009011988157265,5824.207995054223
1.784,-0.5594237698156261,5834.116202480052
1.788,-0.7576667883802547,5837.820730859073
1.792,-0.9490467393848007,5841.360844326339
1.796,-1.1058347339040695,5840.663920677383
1.8,-1.2025147257840585,5835.06973381008
1.804,-1.2189857469185097,5839.800874798593
1.808,-1.1430144180774249,5830.824974755912
1.812,-0.972542994273557,5831.611913456225
