时间(s),电压(V),幅值(高频80K)
0.0,0.31878922725830783,5897.745373260063
0.004,0.13020526099900318,5901.386499976767
0.008,-0.03328415009711488,5903.748954431997
0.012,-0.15233489262926983,5891.91394710812
0.016,-0.21572088094854877,5897.2522702716
0.02,-0.22234724694799873,5895.975396562608
0.024,-0.181335479212407,5890.2117841201725
0.028,-0.11020289065160446,5905.874023706399
0.032,-0.031901161013957686,5901.14767096162
0.036,0.028554890454753318,5893.061980500559
0.04,0.04800418202111941,5899.541616331317
0.044,0.01006482901090389,5908.540974419305
0.048,-0.0896481075819843,5896.951797448779
0.052,-0.24030916220848908,5900.640434270925
0.056,-0.416998079293654,5899.4505755814325
0.06,-0.5865305335135386,5898.749387289511
0.064,-0.7159672109350013,5901.72390424713
0.068,-0.7806084455246997,5897.056480806109
0.072,-0.7689223773984308,5894.913821195181
0.076,-0.6835039733982716,5903.058239049376
0.08,-0.5387358920360931,5901.114904945139
0.084,-0.3567580890497271,5899.760182718782
0.088,-0.16345709178077902,5893.973042673609
0.092,0.01459237127212446,5904.017130106416
0.096,0.1525025144845577,5899.24230533823
0.1,0.22968295042743028,5898.396803348383
0.104,0.23310969555151762,5896.478637004354
0.108,0.16053710535864205,5898.530593579764
0.112,0.022255460943938155,5898.682533270186
0.116,-0.15965927201413463,5894.027309073535
0.12,-0.35471710516631805,5898.749194996798
0.124,-0.5293750246304163,5894.7396237293415
0.128,-0.6534490492841418,5911.476080346723
0.132,-0.7063961960876839,5907.028725424309
0.136,-0.6819109272255273,5892.693252369448
0.14,-0.5892425629739279,5908.530730944712
0.144,-0.45045933997305276,5907.326397069928
0.148,-0.2943760953436249,5908.935684955753
0.152,-0.14922733723531584,5898.884126355625
0.156,-0.03655812749770135,5912.084558808511
0.16,0.03209478005142732,5908.795898456231
0.164,0.05565847783800646,5897.515358755091
0.168,0.041886130829905555,5899.951777762146
0.172,0.004228919126819498,5905.49110712702
0.176,-0.042342636624107824,5904.096183392574
0.18,-0.08553812670852116,5898.685748199771
0.184,-0.1183867721839301,5905.137738143044
0.188,-0.1393166261783542,5896.8292564280255
0.192,-0.1500893690963786,5899.658743168338
0.196,-0.1530710210488657,5894.180924177448
0.2,-0.14937657417140857,5899.298245153642
0.204,-0.1386465912969809,5893.666558952108
0.208,-0.12018313805146624,5897.15944763618
0.212,-0.09452303696134152,5901.734488650981
0.216,-0.06449086459534302,5894.644670028704
0.22,-0.035106715416915756,5904.678612097059
0.224,-0.012184884695289298,5894.477240844423
0.228,-7.057463569346688e-05,5902.416382373855
0.232,0.00036892762203432456,5914.39552211433
0.236,-0.007821783696783335,5906.825028047086
0.24,-0.019412334246096688,5895.484856469643
0.244,-0.030127002064777524,5895.828227706842
0.248,-0.0395107955166612,5907.563143089891
0.252,-0.05189930188089698,5904.35364335655
0.256,-0.07475850889492193,5897.849368933316
0.26,-0.11487137217504609,5899.344771676399
0.264,-0.1739608663164762,5900.315875850601
0.268,-0.24588331595952737,5900.65809455422
0.272,-0.3170712435343536,5901.382306137962
0.276,-0.37046207747692306,5900.296192852253
0.28,-0.3913880797397932,5903.18368971522
0.284,-0.37293824573205325,5898.5956924703
0.288,-0.31877409399969703,5892.156199334544
0.292,-0.24268229927494764,5892.221440015088
0.296,-0.16519341050923514,5896.468385934334
0.3,-0.10813436177934957,5905.59654823393
0.304,-0.08845772622673587,5905.23300173942
0.308,-0.11315064539246723,5905.315272014554
0.312,-0.1769196090693748,5902.8486333262135
0.316,-0.26343440049433203,5909.322108881391
0.32,-0.34975274831076236,5904.1689903011375
0.324,-0.4127339473424757,5890.069285413126
0.328,-0.43575044399533647,5896.253379705803
0.332,-0.41368387013286184,5898.578401787968
0.336,-0.35442602081721114,5907.826670074353
0.34,-0.276287842933897,5897.123120465725
0.344,-0.20239059572618845,5900.588822483629
0.348,-0.15414532156129457,5895.398394397783
0.352,-0.14570453735734293,5904.725263661371
0.356,-0.18037199919792826,5901.185553952182
0.36,-0.24938380569967636,5899.316716737319
0.364,-0.3333908166311759,5891.257464270811
0.368,-0.4066690416186944,5901.776467600234
0.372,-0.4432308545570846,5898.779137067651
0.376,-0.4232531340091899,5899.045696702916
0.38,-0.33821509347140694,5892.81965113802
0.384,-0.19364013122163248,5904.878929245054
0.388,-0.0088496591236509,5901.331587045958
0.392,0.1864537062569253,5898.1339113850445
0.396,0.35842105184100176,5913.459377201087
0.4,0.476896227667909,5898.402765052757
0.404,0.522705072209955,5902.694678795615
0.408,0.4920049883208693,5904.777636606676
0.412,0.3963471372973146,5900.358509118024
0.416,0.25890489129297334,5900.88638153937
0.42,0.10857419266844023,5901.16933566399
0.424,-0.0263555897065245,5899.99552469149
0.428,-0.12392968208224424,5898.2607614203125
0.432,-0.17300153440324592,5897.9084301496205
0.436,-0.17571259545971227,5902.101872646819
0.44,-0.1471467546745416,5893.040699269554
0.444,-0.11165967619916643,5895.412130860136
0.448,-0.09626873466698313,5897.924912270462
0.452,-0.12267727422280038,5896.182428365612
0.456,-0.2004011684182075,5891.132746946823
0.46,-0.3234047084265373,5902.063576265172
0.464,-0.4714342498466424,5907.355543895165
0.468,-0.6154962362288756,5895.557852155412
0.472,-0.7256137350483278,5915.640474703144
0.476,-0.7784979738443614,5889.863519068771
0.48,-0.7629957702039943,5902.865435263062
0.484,-0.6820647279107399,5898.97181764148
0.488,-0.5513139311172944,5903.141640791925
0.492,-0.3951027291433263,5901.13112818372
0.496,-0.2413486848645776,5898.616193397026
0.5,-0.11596353276336967,5905.015592649782
0.504,-0.03783876030318205,5906.1887783955935
0.508,-0.015437431288679086,5892.558835097476
0.512,-0.045797552005279595,5897.034159386628
0.516,-0.11609698307721954,5904.033041619484
0.52,-0.20725292939463294,5907.953610651728
0.524,-0.2985215472373383,5897.137800769355
0.528,-0.3718488594664155,5894.442072327677
0.532,-0.41500491352546415,5900.908955752701
0.536,-0.4231628741263208,5902.372401710279
0.54,-0.39904602244736015,5902.037998005228
0.544,-0.35182490569281794,5905.788805618889
0.548,-0.2949173877844304,5904.134650609797
0.552,-0.2430522610344701,5900.838737616416
0.556,-0.20923934005579048,5905.301023113
0.56,-0.20224317552447124,5901.863391737151
0.5640000000000001,-0.2248037249693742,5896.7651312519765
0.5680000000000001,-0.2726887339034006,5904.3217543727305
0.5720000000000001,-0.3349098500469584,5895.55543584585
0.5760000000000001,-0.39557807826332236,5902.331428009566
0.58,-0.4374010202015748,5900.282690930049
0.584,-0.44600145389137585,5904.318702134373
0.588,-0.4137401197521622,5894.454855319031
0.592,-0.3418134974402727,5896.63206598164
0.596,-0.23992494731545236,5897.776821117351
0.6,-0.12366279034851207,5904.398381131695
0.604,-0.010590591294373747,5904.813597816311
0.608,0.08357350015252502,5898.159584565341
0.612,0.14770435911542143,5899.198351729798
0.616,0.17673288777587956,5909.708215042558
0.62,0.1721395183946472,5892.500340988104
0.624,0.14178829528765105,5906.115471955432
0.628,0.09902430247266646,5902.729435658106
0.632,0.060560146178912345,5903.5909984185855
0.636,0.042734317973924775,5899.433656471448
0.64,0.05652693581049535,5901.596727963122
0.644,0.10289995444835259,5900.476634021693
0.648,0.17062616252824223,5902.374811295703
0.652,0.23809792107643354,5894.389535718791
0.656,0.2789602481994352,5901.97267211757
0.66,0.2698041973041212,5894.222705380256
0.664,0.19740304632812658,5892.334719607262
0.668,0.06318868513462099,5907.248531312103
0.672,-0.1164493626207643,5900.384713254487
0.676,-0.3142086012456116,5898.402412159426
0.68,-0.49907700283990475,5903.369888670548
0.684,-0.6443948001441501,5895.868565529901
0.6880000000000001,-0.7340909898667255,5906.672574153031
0.6920000000000001,-0.7651795791874083,5903.359752353937
0.6960000000000001,-0.7462423686739345,5896.428924302777
0.7000000000000001,-0.693117094073955,5906.933749160035
0.704,-0.6235438698780553,5892.262317369713
0.708,-0.5522488129181329,5896.4084927699305
0.712,-0.4875422294014866,5905.078243052619
0.716,-0.4302812781047709,5904.907961014402
0.72,-0.3756534659533228,5905.812404368825
0.724,-0.31733038333238434,5903.654487317964
0.728,-0.2524703710902395,5894.210006919124
0.732,-0.1855814257097009,5900.086983007407
0.736,-0.12961610792247147,5900.871419845379
0.74,-0.10343898829792446,5899.357635707624
0.744,-0.12582887915771457,5906.515567836
0.748,-0.20765551956442527,5902.294839542684
0.752,-0.345285178067294,5901.6455421195005
0.756,-0.51835256802401,5901.706415820749
0.76,-0.6933691923480734,5907.754669344282
0.764,-0.8323014288995707,5894.017526424107
0.768,-0.9034698556270014,5906.706988634634
0.772,-0.8912505465758124,5890.900420178396
0.776,-0.8011907089762935,5895.689686027527
0.78,-0.6585765995088638,5900.726346452949
0.784,-0.5009738432235321,5897.060076931346
0.788,-0.36757922233302787,5896.86075724214
0.792,-0.28907063159146507,5901.447358015612
0.796,-0.28080694494894165,5890.180102235572
0.8,-0.3406364205981085,5909.99476649276
0.804,-0.4511636386348427,5906.243000427031
0.808,-0.5852560568118904,5904.87570929097
0.812,-0.7127422530401726,5898.048849218209
0.8160000000000001,-0.806092624981468,5906.026270345343
0.8200000000000001,-0.8438905938396772,5904.239149460861
0.8240000000000001,-0.812566287346333,5898.572931845554
0.8280000000000001,-0.7076997668935576,5910.476935761651
0.8320000000000001,-0.5354768972548531,5905.428002914632
0.836,-0.31351025972509955,5900.507029903098
0.84,-0.06951879758067715,5887.617886579529
0.844,0.16320222283075253,5911.64703169339
0.848,0.3530798270727063,5903.341902269803
0.852,0.4779916806479646,5900.464957400679
0.856,0.530205786843213,5904.141910484393
0.86,0.5163781168370947,5899.448385147389
0.864,0.4528145605921478,5900.15597787537
0.868,0.358379125353233,5905.941000760628
0.872,0.24833143559282564,5900.724848774377
0.876,0.1316295302300279,5888.528927725854
0.88,0.012195548788359718,5897.904792045105
0.884,-0.10758492221746069,5901.893584658522
0.888,-0.22388140345085988,5898.195522316548
0.892,-0.3308461484029342,5890.876964560793
0.896,-0.42235046310827457,5894.794448146844
0.9,-0.49436137504783,5892.742207843052
0.904,-0.5460971998778676,5896.068953059304
0.908,-0.579135750958931,5901.873091722937
0.912,-0.5951656133469452,5900.514559879842
0.916,-0.5941334570449204,5896.4178125454855
0.92,-0.574378604610511,5906.26358990956
0.924,-0.5349781852271823,5905.063174161279
0.928,-0.4789535571215023,5894.065245716885
0.932,-0.4153644638410144,5898.125677694968
0.936,-0.3588888616021062,5906.193977794858
0.94,-0.3266668933893033,5899.232874025301
0.944,-0.33342295344551937,5895.066402246201
0.948,-0.38675736147473977,5902.264881740174
0.952,-0.4844395016373924,5896.373326664063
0.956,-0.6143992005835497,5895.469875302551
0.96,-0.7567964182499656,5901.451329495762
0.964,-0.8871368094773926,5900.821162330782
0.968,-0.9799384248154415,5900.592434701048
0.972,-1.0129899693122306,5901.505164999909
0.976,-0.9720017449792602,5901.346029287941
0.98,-0.8546881197839545,5900.752042139739
0.984,-0.6728350899882907,5901.585406844165
0.988,-0.45115146064383527,5907.88685865304
0.992,-0.2226711513379197,5895.519434690616
0.996,-0.02179269090087471,5899.291368833604
1.0,0.12307063634547852,5904.502725022935
1.004,0.19528271229011548,5899.104630600877
1.008,0.19280768000679605,5891.662076549965
1.012,0.1272724517906506,5897.457408448242
1.016,0.0194319912004831,5911.75987222342
1.02,-0.10741467639375177,5895.151486192185
1.024,-0.2334549241705385,5889.889441514937
1.028,-0.34547423495938434,5900.098344939845
1.032,-0.4363486729544981,5905.239582671616
1.036,-0.502236170095024,5902.226034941578
1.04,-0.539703742830575,5895.536764302442
1.044,-0.5444648468336248,5909.0957181195245
1.048,-0.5122088787640586,5892.238257487743
1.052,-0.4409873897464777,5901.26050555851
1.056,-0.3339338855298431,5907.627034816934
1.06,-0.2008258116866572,5903.126921592474
1.064,-0.05738005395941446,5898.446744722146
1.068,0.0778576796118832,5899.4216621351925
1.072,0.18805220837916486,5896.210858310846
1.076,0.2623048873100657,5906.237581415537
1.08,0.297820853246016,5903.94828942319
1.084,0.2991813142410862,5893.5633585845335
1.088,0.27527904237066964,5898.14989791959
1.092,0.2354917449674599,5897.135934101934
1.096,0.18675562045025113,5888.737322162378
1.1,0.13253253050122918,5895.60216834102
1.104,0.07375438804580543,5897.626047338672
1.108,0.011061259402215815,5902.439753561012
1.112,-0.05278474414841528,5899.6102419135705
1.116,-0.11142895299320384,5901.727653565104
1.12,-0.15509311659124148,5903.368728352973
1.124,-0.1724471424012005,5901.512738838072
1.128,-0.1537026606092483,5895.112446736538
1.132,-0.09406615116362499,5903.14588551115
1.136,0.0036127632605501424,5904.915533635006
1.14,0.12821501249725373,5891.053670213354
1.144,0.26237915629596587,5898.582192745558
1.148,0.38660122859658475,5906.964098465913
1.152,0.48375711340304267,5902.752444263347
1.156,0.5423509590925399,5907.772241779651
1.16,0.5576971059782148,5903.174043530118
1.164,0.5311235284740244,5894.347864765739
1.168,0.4675625947042709,5898.176299680266
1.172,0.3720205171948466,5896.0892854549775
1.176,0.24596514779923612,5907.119665190869
1.18,0.08541552640659923,5903.406696555002
1.184,-0.1173334269187969,5901.593727628872
1.188,-0.3674357248353734,5898.075549919896
1.192,-0.6577856584015995,5895.046622576402
1.196,-0.959176700495187,5899.779186545692
1.2,-1.2149093276633625,5892.837879597391
1.204,-1.3439755752929887,5893.730941085841
1.208,-1.2544280156560104,5902.168634183012
1.212,-0.8647551479052877,5903.092656618963
1.216,-0.12785159049753037,5892.805623651265
1.22,0.9492755811206826,5902.312062428382
1.224,2.2966410104108337,5894.221626924435
1.228,3.787902425829715,5902.333370289893
1.232,5.2630741671393375,5904.272345624952
1.236,6.562183643728044,5890.94032833157
1.24,7.559689375377949,5897.262004539506
1.244,8.188462020387217,5901.751181408532
1.248,8.44639132636479,5905.759234869506
1.252,8.385928373654744,5896.78281301306
1.256,8.092964530640531,5897.4013299062
1.26,7.663483718828975,5896.901170765818
1.264,7.184448736101694,5889.873748527052
1.268,6.721794803554255,5901.336321268763
1.272,6.315656129432075,5889.07720356761
1.276,5.981668614745426,5906.407818426507
1.28,5.71658026518839,5899.771288606633
1.284,5.505889052923142,5893.232457824805
1.288,5.331048370951323,5907.512093190169
1.292,5.174346352894643,5899.739637910253
1.296,5.020933297833574,5904.124148405704
1.3,4.859087149406281,5901.99624508649
1.304,4.680494027105152,5895.098073407853
1.308,4.4813290703541835,5896.151667513151
1.312,4.263197341422824,5898.467414656789
1.316,4.03238097004679,5897.378502589987
1.32,3.796952513372004,5904.4013493682505
1.324,3.563059485677024,5909.747889529452
1.328,3.3325989701158893,5899.312088739279
1.332,3.1038475488991333,5905.125125481244
1.336,2.8747661160257203,5899.162107120741
1.34,2.6470419695251652,5901.378085685909
1.344,2.428626399911773,5897.585275030541
1.348,2.233363880057028,5905.109888027496
1.352,2.0774716007852425,5901.759416713847
1.356,1.9738508126827614,5899.770009652313
1.36,1.926366846627484,5893.638235417103
1.364,1.9267469254984317,5890.867788460822
1.368,1.9560453018897532,5896.856176364664
1.372,1.9907029947378148,5908.488539307826
1.376,2.010830770322757,5895.219888785266
1.38,2.0068494399151278,5902.022792361969
1.384,1.9812339412886053,5896.96675346046
1.388,1.9447635729961963,5907.009741386981
1.392,1.9097044758483708,5911.464643737082
1.396,1.8835586438504184,5911.795965747446
1.4,1.8658107997839153,5897.705528994959
1.404,1.848118554746748,5897.640765408013
1.408,1.8173290133412086,5895.4351997410095
1.412,1.760410786660055,5900.902807722926
1.416,1.6698906084498555,5905.797747768613
1.42,1.5477879033102415,5907.286811186389
1.424,1.4062915319888178,5902.720828352548
1.428,1.264750162190977,5908.4052682072725
1.432,1.1440865277052847,5902.317352165021
1.436,1.0605887763612225,5898.345239004199
1.44,1.0210436443984596,5894.732354855505
1.444,1.0206508071224125,5893.310765976745
1.448,1.0442642956799733,5891.607893197311
1.452,1.0704502234441065,5888.387271286982
1.456,1.0770698103243612,5889.918938022634
1.46,1.0468175192235987,5897.257229572782
1.464,0.9711831769624392,5893.189777471623
1.468,0.851661634665981,5889.087640626473
1.472,0.697979082694347,5893.66151139882
1.476,0.5244152390264031,5888.351882038776
1.48,0.3461057938552989,5891.849864007927
1.484,0.17688976186548913,5895.983004602646
1.488,0.029059545177928435,5891.529281037436
1.492,-0.08589977490097836,5891.033010790188
1.496,-0.15703560899653185,5885.4274859226525
1.5,-0.17509089624924762,5897.131612007286
1.504,-0.1349750315813267,5890.476838162635
1.508,-0.03849314530568647,5895.457209971183
1.512,0.10390173794455068,5886.100527251728
1.516,0.2731384563960724,5891.4419501184
1.52,0.44352415210246376,5887.745668957267
1.524,0.5863308026682493,5881.703146845248
1.528,0.6742535635500985,5885.323830929668
1.532,0.6860390653151345,5881.691715878242
1.536,0.6107440522985323,5883.088325433155
1.54,0.4510147954806792,5888.578044380124
1.544,0.22453779165572163,5879.208642615134
1.548,-0.037250520227061386,5888.009050900763
1.552,-0.29383822630028783,5880.645378344844
1.556,-0.5035452113646005,5884.126889257222
1.56,-0.633033514194976,5880.960290521141
1.564,-0.665405042853155,5875.818471021736
1.568,-0.6039193524969974,5879.743048362376
1.572,-0.4699921127118937,5877.717961889875
1.576,-0.29618090722337903,5870.055578531772
1.58,-0.11645119356347092,5878.439546165289
1.584,0.043087502817989606,5876.141829818451
1.588,0.16988989724866543,5877.069955431957
1.592,0.2654068792536966,5869.962649366468
1.596,0.34066655304893256,5881.075808065233
1.6,0.4092037272968714,5870.51943080661
1.604,0.4800647655322506,5875.382239743673
1.608,0.5530753694133692,5870.7533726575
1.612,0.6176355938019488,5874.498857968784
1.616,0.6552920940561632,5874.455194925226
1.62,0.6453267900462988,5876.5025994695625
1.624,0.5718490955814841,5874.970833327055
1.628,0.430485297307465,5879.016193758624
1.632,0.2326317101296309,5865.972397325961
1.636,0.005557189262400389,5878.922822297521
1.64,-0.21224537780523872,5871.356592803437
1.644,-0.379412180141811,5870.546664457269
1.648,-0.4615002951265486,5865.265588801357
1.652,-0.43971628064246,5873.138057442126
1.656,-0.3164523882921005,5862.644402705155
1.66,-0.11607058709470801,5874.260466479919
1.664,0.11976536318870856,5868.9690369755735
1.668,0.3416382045583861,5866.747031897469
1.672,0.5046923293165667,5877.298651421465
1.676,0.5802235618059522,5880.644939822865
1.68,0.5626701918875532,5868.279174934588
1.684,0.4694638242710636,5864.951808931161
1.688,0.3339161836662744,5870.832935463858
1.692,0.19404018781675636,5871.199643533359
1.696,0.08153445000712904,5871.661068636316
1.7,0.01459371228157692,5869.641922881834
1.704,-0.003814421351231465,5873.9793495438025
1.708,0.01700806553824429,5865.38577160876
1.712,0.06077395601639075,5866.673322569611
1.716,0.1094402285492645,5868.277766536343
1.72,0.14703932317215748,5867.673771213698
1.724,0.16187012697043837,5863.958917276814
1.728,0.14741742230213384,5878.039750545158
1.732,0.10248708737471737,5866.890453097732
1.736,0.03089685493853628,5860.525118499915
1.74,-0.0591230930915189,5868.682829650128
1.744,-0.15584614137485442,5872.732543952159
1.748,-0.2454691326371083,5864.739286599619
1.752,-0.3141497020741308,5871.248669080956
1.756,-0.3504207436340721,5869.528109440886
1.76,-0.34747658886453425,5860.405724359714
1.764,-0.3048542056795916,5858.892343708827
1.768,-0.22911917949049512,5863.301432495276
1.772,-0.13320636756905638,5863.014859569415
1.776,-0.03426466859721454,5854.948686979399
1.78,0.049743536101635094,5865.127113460844
1.784,0.10404039928294788,5857.328853688735
1.788,0.12071367281069946,5868.865768808008
1.792,0.10101857587682748,5861.5363640101805
1.796,0.05526055436605625,5871.721502617919
1.8,-0.0003614776831057518,5869.402658538087
1.804,-0.04951360243817893,5866.142921204114
1.808,-0.0821484773910071,5855.71220016432
1.812,-0.09865425357568612,5857.679098972087
