时间(s),电压(V),幅值(高频80K)
0.0,-1.0618185432129943,5901.523408623859
0.004,-0.7566761019828158,5899.140473622255
0.008,-0.4747253048240856,5897.008647719291
0.012,-0.23715629882482575,5912.311044045306
0.016,-0.057285108512038635,5905.734546550066
0.02,0.05934606328458612,5897.466482131144
0.024,0.11339684499133311,5902.872502236185
0.028,0.11029387086593835,5901.724305520967
0.032,0.05926558597795912,5904.8933953441365
0.036,-0.02760298585341117,5909.51582784872
0.04,-0.1363513775127953,5904.214198069335
0.044,-0.2516469710973071,5906.624550382196
0.048,-0.35671126512255436,5905.181256114871
0.052,-0.43366383722776997,5911.28869995238
0.056,-0.46559921871834553,5901.547333285842
0.06,-0.44054956868700357,5900.645582557897
0.064,-0.35582330080764724,5898.862022903635
0.068,-0.2205314542649047,5897.928083179396
0.072,-0.05485773809704985,5908.673154635353
0.076,0.11389310544982564,5906.971028040175
0.08,0.2571431587466828,5901.265310201608
0.084,0.35090279646693606,5888.332071340347
0.088,0.38005204369985945,5897.645732368789
0.092,0.3403433301971365,5898.095219770421
0.096,0.23835828500827597,5899.1491527642265
0.1,0.0900481458354991,5899.704125281086
0.104,-0.08168314234482292,5903.354061573408
0.108,-0.25020476817279164,5900.417842939212
0.112,-0.389159500767974,5903.62335801832
0.116,-0.47702699855491537,5909.336268278167
0.12,-0.5015747597341825,5895.456984389413
0.124,-0.4629588056641785,5908.459204658854
0.128,-0.37404288746996267,5903.370747615479
0.132,-0.2571473005270507,5901.371350173799
0.136,-0.1378300380365852,5896.466780473843
0.14,-0.03766173053426729,5896.886647293021
0.144,0.03153295750995132,5903.769149907544
0.148,0.07000522751272875,5897.971670701827
0.152,0.08824372999506883,5904.005802963605
0.156,0.10176021579998913,5890.1261466228025
0.16,0.1246039757473748,5900.6733520360285
0.164,0.16415258940566613,5898.256499110364
0.168,0.21895452920544214,5900.111640562488
0.172,0.2798487343339859,5891.422922277066
0.176,0.33330329168738637,5905.359727225224
0.18,0.36558761646743526,5904.658302882158
0.184,0.3667149357446194,5907.586767861054
0.188,0.33335378098214496,5900.230016685559
0.192,0.26993983439998775,5898.3092491198
0.196,0.18748365698294628,5889.159644639189
0.2,0.1003601028435783,5888.348836669387
0.204,0.02221981229951862,5906.314760924862
0.208,-0.03758193734467473,5909.111072161248
0.212,-0.07598601947432729,5891.855147262297
0.216,-0.09612101580203673,5896.096956049009
0.22,-0.10513746459783599,5901.00424063148
0.224,-0.11080493890248626,5899.473655279839
0.228,-0.11833105406855747,5900.242781324174
0.232,-0.128770586276072,5898.253018470577
0.236,-0.1394400352794178,5900.578406438945
0.24,-0.14563986559315292,5897.251222655257
0.244,-0.14259316345807185,5900.777162730588
0.248,-0.1269396246121147,5897.372739841328
0.252,-0.09771402123885539,5902.546833600005
0.256,-0.056912045802910025,5899.222657744859
0.26,-0.009493323222403083,5905.137250726854
0.264,0.03761057821733247,5900.717285801619
0.268,0.07769325020349568,5896.734672306112
0.272,0.10696910075124838,5891.5520828825365
0.276,0.1261332746665677,5890.900121026687
0.28,0.139352992034701,5904.710996264448
0.284,0.15084969335016726,5897.526513766266
0.288,0.16103011054827315,5908.910789403815
0.292,0.1646190073625245,5891.86560690385
0.296,0.15207940392339997,5901.784491577641
0.3,0.11370454007902675,5903.820042203266
0.304,0.04431710020171078,5904.414030577153
0.308,-0.05378718362966985,5898.317516002299
0.312,-0.17103136934471427,5897.750783792007
0.316,-0.2935199117890658,5898.516251463837
0.32,-0.4070327112321114,5886.204798177245
0.324,-0.5001932172611292,5898.9994078936725
0.328,-0.5658826689712948,5899.514404837263
0.332,-0.6010805009372032,5902.52770451433
0.336,-0.6059844547032543,5903.878983028107
0.34,-0.5832707481976525,5901.184797651386
0.344,-0.537765065707471,5901.8677281999335
0.348,-0.4761389751878112,5892.290940123653
0.352,-0.40611958870081694,5888.000570920549
0.356,-0.3351140183141387,5895.110759809749
0.36,-0.26866093197745894,5900.846192341535
0.364,-0.20938756337818573,5902.640104989528
0.368,-0.1570591252764036,5903.248982123641
0.372,-0.10982665130451635,5896.150352919152
0.376,-0.06607653930666109,5901.367013615175
0.38,-0.02588345317009723,5900.94454915713
0.384,0.00863255406134053,5899.03990769127
0.388,0.03405775761192287,5899.948544133877
0.392,0.047072365237264456,5896.007181824821
0.396,0.045817518800883056,5906.739788369169
0.4,0.030593427249259713,5890.432225281823
0.404,0.0035740251552746046,5903.3315392880295
0.408,-0.032158715792331816,5904.432883251439
0.412,-0.07353633962005987,5901.504372948652
0.416,-0.11779017751000628,5900.305645327466
0.42,-0.16208099326900485,5904.451379186473
0.424,-0.20309032348100994,5896.476223293295
0.428,-0.23743960379861456,5899.630133429842
0.432,-0.2632562155813223,5895.039605495982
0.436,-0.28205570633958477,5901.234934566212
0.44,-0.29934851710516996,5898.903141875724
0.444,-0.32289548115108185,5893.486390059941
0.448,-0.35903592541382573,5901.732972817111
0.452,-0.4088058002560465,5902.691902943894
0.456,-0.4658217185841209,5901.642408153924
0.46,-0.5171757899607401,5895.089213754212
0.464,-0.5473014313379057,5905.788922232437
0.468,-0.5434262525770488,5901.622228966076
0.472,-0.5004198552493915,5906.050158743357
0.476,-0.4230188439583116,5898.496650890088
0.48,-0.3244959505711448,5898.730264611611
0.484,-0.22234496947731147,5902.013159857338
0.488,-0.13284254564641274,5898.718732412885
0.492,-0.06672359667594938,5897.760249306004
0.496,-0.027350199605345547,5897.840712634355
0.5,-0.011325008226218458,5901.426133673292
0.504,-0.010620680575329531,5888.243146498115
0.508,-0.015335298915516259,5895.842634009785
0.512,-0.016602727255162725,5892.87931239038
0.516,-0.009329568414155468,5894.532634847023
0.52,0.005891690698466389,5907.984418400294
0.524,0.022640500871884992,5897.03272332586
0.528,0.03075921848606626,5893.409718675277
0.532,0.01993043496541455,5897.8452171276185
0.536,-0.016853306059386973,5894.339068476688
0.54,-0.08123990574086341,5896.221133784216
0.544,-0.16921084099531364,5903.332838753239
0.548,-0.2719898157176702,5904.98679743244
0.552,-0.37740407493223666,5900.781840614744
0.556,-0.4713501186887501,5902.1641941170965
0.56,-0.5396471908019969,5901.570977877846
0.5640000000000001,-0.5707114377673561,5907.176678622288
0.5680000000000001,-0.5588555592710837,5899.347461524712
0.5720000000000001,-0.5070574022006301,5895.065691264846
0.5760000000000001,-0.4275936393102851,5905.629377214895
0.58,-0.3395867018723741,5894.05814223848
0.584,-0.26399381067614563,5897.695811013006
0.588,-0.21786634831771087,5901.498464591565
0.592,-0.20998291041919037,5897.480167440081
0.596,-0.23919387205982923,5897.109856232758
0.6,-0.2956047924197404,5896.957284813033
0.604,-0.36375888134283074,5897.250539253208
0.608,-0.42666447876885466,5890.087583323108
0.612,-0.46972591898823773,5898.843537412339
0.616,-0.4839009652166115,5901.759570189414
0.62,-0.4675226915575379,5901.580500313709
0.624,-0.42641923432001794,5897.190872692168
0.628,-0.37238758587572757,5894.698341173094
0.632,-0.32049171063594717,5896.30255779915
0.636,-0.28578028860711824,5897.046615073043
0.64,-0.2798999457324033,5892.031795052377
0.644,-0.3079983722920238,5897.600685884373
0.648,-0.366455857022076,5900.560194127746
0.652,-0.4422431960440485,5896.236775270753
0.656,-0.5147228566951615,5898.966909730536
0.66,-0.5601547873853022,5901.513855808595
0.664,-0.5580934404560792,5908.302093064838
0.668,-0.49784246453650927,5901.810946471485
0.672,-0.3828040807568019,5903.823706990649
0.676,-0.2310623689405412,5898.057891143045
0.68,-0.07164561981303605,5910.156721954465
0.684,0.06265992029593781,5890.1737619156265
0.6880000000000001,0.14382184477656013,5902.906535261639
0.6920000000000001,0.15582511066971377,5889.081686209124
0.6960000000000001,0.09861134138579615,5900.822744012697
0.7000000000000001,-0.012310699807279939,5908.702279847224
0.704,-0.1503066792877993,5896.021963651825
0.708,-0.28462247007835806,5904.674789507998
0.712,-0.3877696649177279,5904.360643982764
0.716,-0.4412828954968575,5914.460822777874
0.72,-0.438721419671055,5894.811520233977
0.724,-0.3857901809664994,5896.194822657272
0.728,-0.2981098419913237,5906.970997805419
0.732,-0.19736971423912528,5893.381575835279
0.736,-0.10652929712427983,5896.707796406481
0.74,-0.04472509982802141,5895.477784277569
0.744,-0.022826977433523854,5893.947259009315
0.748,-0.040943318384737845,5893.215715260958
0.752,-0.08900860202029899,5903.253982927202
0.756,-0.1506378774446472,5897.632305714386
0.76,-0.20910850158866748,5900.869339987383
0.764,-0.253284129823534,5904.872801180496
0.768,-0.28104195981343644,5902.939526470936
0.772,-0.2986559294949042,5907.833306031658
0.776,-0.3164677802311528,5898.054930541955
0.78,-0.34298708392919464,5896.537260132735
0.784,-0.38010994936569187,5901.519465062514
0.788,-0.4213236312058877,5903.92615315717
0.792,-0.4533888714749164,5900.216280626908
0.796,-0.46073730927291323,5911.772114992676
0.8,-0.43094958473949196,5890.112293343375
0.804,-0.3594156483972084,5904.031383375119
0.808,-0.25174011783820543,5895.573953420646
0.812,-0.1233654082706597,5893.593960097517
0.8160000000000001,0.0032836101813174066,5897.570410087243
0.8200000000000001,0.10340361601278156,5901.587996320014
0.8240000000000001,0.15527174470665847,5894.396791375666
0.8280000000000001,0.14540954477887058,5901.400544663609
0.8320000000000001,0.07198313770129228,5895.244639794602
0.836,-0.05485209253508698,5900.624515533019
0.84,-0.21593589385480305,5896.028566886461
0.844,-0.38837254002534877,5895.432735864619
0.848,-0.55126332961032,5905.065279584978
0.852,-0.6900323701239913,5901.031341419984
0.856,-0.7979738849043845,5898.849559245051
0.86,-0.874749691394677,5898.969261888134
0.864,-0.9230228563363264,5899.902292205325
0.868,-0.9452248722281521,5899.934293037893
0.872,-0.9419479348594373,5901.790873288611
0.876,-0.9122581818335845,5913.347167859503
0.88,-0.8553630205642031,5893.012130265429
0.884,-0.7727554861535644,5899.777347462143
0.888,-0.6699200244659422,5899.4370931520025
0.892,-0.5568583374643418,5905.851897600848
0.896,-0.4470943639806809,5897.268222778659
0.9,-0.35525144473514164,5895.978811767082
0.904,-0.2936384801044265,5897.567640541054
0.908,-0.26864245951459576,5888.567131314758
0.912,-0.2781021266472692,5898.76160438445
0.916,-0.31091445707531656,5896.228883268832
0.92,-0.34955683793385817,5890.823891084944
0.924,-0.3750476891376448,5905.158709342334
0.928,-0.3727060059561645,5894.124391613366
0.932,-0.3366247311700519,5891.662588348582
0.936,-0.27127279348538746,5901.26315657346
0.94,-0.1897657293195769,5895.127813067842
0.944,-0.10959716342387739,5896.600160394015
0.948,-0.047460613987773764,5890.903577060121
0.952,-0.014808973363382374,5895.259395386861
0.956,-0.01516170428013585,5900.246925061224
0.96,-0.04347551496108856,5896.307140500734
0.964,-0.08749432794672458,5907.25946865049
0.968,-0.1308053256892204,5893.337457703573
0.972,-0.15713212776178268,5904.516573035156
0.976,-0.1550088071833309,5896.509781679924
0.98,-0.12149166962120742,5903.023028453019
0.984,-0.06353170481746129,5900.115873032625
0.988,0.0035841822943078754,5896.050313000646
0.992,0.060203945395513124,5903.140662089063
0.996,0.08744963179064846,5900.131842378367
1.0,0.07203684805871689,5891.747358286114
1.004,0.00939672542209328,5896.784412815523
1.008,-0.0956857750900609,5902.625729114263
1.012,-0.23073937875748127,5903.251984372634
1.016,-0.37863538792148954,5889.865008105726
1.02,-0.5208635501576367,5901.855441906211
1.024,-0.6402220719002184,5894.409684896181
1.028,-0.7225096303348773,5895.400461707966
1.032,-0.7572701838445185,5899.910077497847
1.036,-0.7381207632035529,5901.751540503781
1.04,-0.663410500070465,5902.494100878392
1.044,-0.5375616269124025,5902.984765251143
1.048,-0.37257709594983546,5897.338601536364
1.052,-0.188557246762911,5898.055719432581
1.056,-0.012177963263248347,5896.600746236151
1.06,0.12719240961964057,5901.978889234313
1.064,0.20321373685945618,5906.063320855032
1.068,0.19890343356251347,5897.226543614604
1.072,0.11177710448151802,5901.286152402869
1.076,-0.044178356637062585,5897.591820000898
1.08,-0.2409293916022344,5903.00415836668
1.084,-0.4428157551951268,5908.066832115267
1.088,-0.6150168294038549,5900.343431436399
1.092,-0.7314901434050377,5908.12546035689
1.096,-0.7800834010823456,5903.581341656899
1.1,-0.7634147151476205,5905.0416690827415
1.104,-0.6955171960728543,5895.870370353931
1.108,-0.5958098252082484,5902.474138305119
1.112,-0.48290763222428473,5900.241795050214
1.116,-0.37048287530375873,5896.79336068859
1.12,-0.2660731526703517,5900.31756431268
1.124,-0.17235974695370523,5900.550468899026
1.128,-0.08970674888980987,5902.552024016125
1.132,-0.01867329069893196,5907.550712451306
1.136,0.038447813054298466,5906.413130393481
1.14,0.07748323399257599,5892.720991988383
1.144,0.09355572603997123,5906.6545981694735
1.148,0.08313266258974075,5900.338055290736
1.152,0.04617451679405425,5903.586165793995
1.156,-0.012519137514562627,5894.141744690194
1.16,-0.08346136546698357,5896.197695940055
1.164,-0.1542945792463939,5902.837572565901
1.168,-0.2126381614446149,5894.461205856671
1.172,-0.2486130670869264,5903.188465405652
1.176,-0.25586187831211005,5906.352790616274
1.18,-0.23114562093765537,5904.45238535204
1.184,-0.17383477618007365,5907.555729272018
1.188,-0.08658800421844114,5896.950380572813
1.192,0.02274021375940259,5901.166433955479
1.196,0.13928794003257486,5897.077109903149
1.2,0.2412192434194647,5900.239083322806
1.204,0.30265664567092904,5900.49122700841
1.208,0.2992998662668726,5907.254722793251
1.212,0.21530981910905506,5906.676487607677
1.216,0.04935473060330317,5906.6502938124295
1.22,-0.1821868714941315,5901.766347083384
1.224,-0.4461587735041279,5895.797388519246
1.228,-0.6980220535560716,5897.990724151063
1.232,-0.8909034241889585,5897.605812856782
1.236,-0.9862231146238023,5896.697822795039
1.24,-0.9629842170523356,5900.221173278032
1.244,-0.8231350688276816,5900.178197278974
1.248,-0.5919235399291778,5909.207543135496
1.252,-0.31378053475679635,5903.800065555628
1.256,-0.04488575384607535,5907.132269517757
1.26,0.15669236607683304,5891.402743298676
1.264,0.2425029971833973,5905.26667211568
1.268,0.1855719617462979,5899.059734463811
1.272,-0.009434824573292097,5905.784714522738
1.276,-0.3002995472093973,5897.097988246553
1.28,-0.6081300264970673,5892.790051886199
1.284,-0.8267660775239953,5901.435809072288
1.288,-0.8406927330100848,5903.225029784317
1.292,-0.5489776575575148,5902.429388635144
1.296,0.10957897741116032,5907.071709245879
1.3,1.1362745527178428,5893.504737012613
1.304,2.4635688576722647,5902.579496178032
1.308,3.962012835418986,5895.833971371346
1.312,5.463791376110095,5896.129582115411
1.316,6.797840247176596,5896.506998116281
1.32,7.826255051911472,5902.072816970843
1.324,8.47056858188357,5899.587914023798
1.328,8.720755680770154,5897.243352389362
1.332,8.62687113185261,5897.915610598906
1.336,8.278867675347442,5899.112743887501
1.34,7.7822241407768304,5904.158066439282
1.344,7.236011287001156,5897.117828969541
1.348,6.71747341222279,5907.987244161502
1.352,6.274496277455708,5895.936838765596
1.356,5.925311070138785,5904.217052091426
1.36,5.663612652594635,5896.195953212356
1.364,5.466708019885667,5897.479470360797
1.368,5.304301321690409,5901.777090383092
1.372,5.146165750661221,5903.944565420309
1.376,4.96795648109928,5896.370653090885
1.38,4.755150271815231,5905.714976515616
1.384,4.505210709388428,5900.925434326867
1.388,4.227763999433393,5903.885137803258
1.392,3.94234641886429,5885.361206566047
1.396,3.6736560789726096,5903.532478807722
1.4,3.4452382697043515,5903.663427119755
1.404,3.273491765337402,5901.537091823631
1.408,3.1639860421972834,5900.782838486415
1.412,3.111156698495369,5905.129220306832
1.416,3.101037444303007,5898.4361524900605
1.42,3.1155077794184596,5892.84965306544
1.424,3.1361648577729957,5888.323224261766
1.428,3.1465890840180446,5899.130024499883
1.432,3.133021713760909,5904.844694001835
1.436,3.084459463614388,5910.153660833116
1.44,2.9933423364776846,5894.031682531353
1.444,2.8573021553935622,5904.1180672099945
1.448,2.681203060649636,5903.282017349161
1.452,2.477833590600984,5900.519545618508
1.456,2.266018884771246,5898.401474049326
1.46,2.0664543773342103,5900.882991019985
1.464,1.8969690427919665,5903.650780101943
1.468,1.7691093077759226,5908.4408591554175
1.472,1.6868900652680932,5903.641543775021
1.476,1.647250847622693,5889.146453699238
1.48,1.6412366083390917,5902.628825923919
1.484,1.6553982161491079,5891.724067636525
1.488,1.673657449337898,5896.842666167578
1.492,1.6800646113483186,5898.237279272827
1.496,1.662257264363039,5906.842148070222
1.5,1.6145345726066775,5891.984365948938
1.504,1.5391683696863834,5900.733208443035
1.508,1.4452419357870894,5900.067401808371
1.512,1.345406972624485,5896.547949843568
1.516,1.2517393908333152,5904.946867062483
1.52,1.172133828881837,5901.816738352518
1.524,1.108476629948965,5893.2386034868805
1.528,1.0571282267324242,5902.890672016287
1.532,1.0111816195172885,5903.191801544935
1.536,0.9632338007998473,5891.242998619054
1.54,0.9075848282502997,5894.245149919818
1.544,0.8415389298065653,5896.577386230777
1.548,0.7660049384517371,5886.845952999136
1.552,0.6855238231897376,5896.216227247312
1.556,0.6075201997419025,5889.2994441137325
1.56,0.5405531257280113,5894.761534809625
1.564,0.491876036196163,5880.883229799674
1.568,0.46528579336136566,5882.288500384256
1.572,0.4603115010949727,5888.031634832562
1.576,0.4730637257516496,5875.379391173711
1.58,0.49807936066794745,5893.817307508763
1.584,0.5299394863193464,5886.326377657764
1.588,0.563670760282583,5876.387155018505
1.592,0.5938894967358106,5882.50752525665
1.596,0.6136999098938638,5881.943677716747
1.6,0.6146901601811972,5879.957075708631
1.604,0.5887125103478695,5878.158405676247
1.608,0.531014042633317,5875.798246517764
1.612,0.4433814093268042,5881.461258385412
1.616,0.3356033798633195,5886.36583159981
1.62,0.2239551292822611,5876.323875080178
1.624,0.12670710846382158,5871.192938668352
1.628,0.058355127167020515,5873.7526929044025
1.632,0.025238183854690035,5874.985376885201
1.636,0.024643311156633412,5876.1659558838
1.64,0.047603471697518,5871.882626871015
1.644,0.08356004073786694,5875.154957220675
1.648,0.12427440875260007,5869.702982059304
1.652,0.16529362440189052,5876.381583434346
1.656,0.20503313490904881,5869.49209238372
1.66,0.24283105915546876,5875.164508671933
1.664,0.27749027664309295,5870.609049345765
1.668,0.30705986394213314,5858.272200525132
1.672,0.32964488904621525,5868.291007055906
1.676,0.344554504595015,5865.950336701563
1.68,0.3531425841888474,5869.850980915297
1.684,0.35882841835303886,5865.790185541538
1.688,0.3659223713720447,5853.582591692344
1.692,0.3773887693129689,5865.054624739682
1.696,0.39253146841327585,5868.5143424883545
1.7,0.40603242731094413,5855.687721003188
1.704,0.40918187142692675,5868.483288920782
1.708,0.39289371302828824,5864.50476997241
1.712,0.35120185938890675,5865.749547682918
1.716,0.28386817740357106,5857.899047495265
1.72,0.1972017300505507,5863.697000992037
1.724,0.10279365631290466,5872.785615984197
1.728,0.014502365513576376,5870.557601569146
1.732,-0.05537813608379953,5865.902178385667
1.736,-0.09945111244163612,5860.974442920177
1.74,-0.11680649990697964,5863.022474359517
1.744,-0.11229476034702048,5860.7557252288925
1.748,-0.093997132608376,5853.849472596162
1.752,-0.07026502185948057,5859.274818000332
1.756,-0.04769401927556932,5858.147948898843
1.76,-0.030521348947128844,5856.296123290871
1.764,-0.02092301933517966,5854.68058127779
1.768,-0.0193514281121284,5861.599032299052
1.772,-0.024496929970150197,5855.2944976727695
1.776,-0.033054726629686344,5856.66178146424
1.78,-0.039746588987740764,5857.104141636681
1.784,-0.038083135635692406,5860.954960062313
1.788,-0.022224485580646377,5858.728784191071
1.792,0.01026597130496358,5851.860935208584
1.796,0.055896538044513215,5850.984321504402
1.8,0.1045817163567127,5856.123131402978
1.804,0.14188389477272656,5846.342564069634
