时间(s),电压(V),幅值(高频80K)
0.0,-1.0833822960197252,5894.599166003565
0.004,-0.6040535066008819,5900.275033033224
0.008,-0.18579393995949003,5903.350875550113
0.012,0.12489118003901765,5886.324290005793
0.016,0.3043659601644488,5900.804263583582
0.02,0.3547322300610485,5907.731773738035
0.024,0.3009016676589121,5901.4784975057855
0.028,0.18344026138983058,5910.943532702916
0.032,0.04882724418595181,5896.965844859912
0.036,-0.061031110301159416,5899.611280405474
0.04,-0.11763851624171823,5900.804075976042
0.044,-0.11069169864319414,5910.475521758069
0.048,-0.047682871829849274,5902.122709525491
0.052,0.050805443309093264,5900.758496422258
0.056,0.1579127164020677,5903.116937423035
0.06,0.2472395058705797,5901.936538948426
0.064,0.2981479123672914,5899.244318824755
0.068,0.2990331396279918,5898.596561363096
0.072,0.24846956636832068,5899.094532551674
0.076,0.15453270035111977,5907.2217417577
0.08,0.032884384899156946,5896.876271129326
0.084,-0.09588256648390922,5901.76646827018
0.088,-0.20951625980616861,5904.246286344457
0.092,-0.2879505298553477,5905.28015890679
0.096,-0.3172289925243378,5895.4654519776905
0.1,-0.29253682804646597,5896.631468312767
0.104,-0.21940517353029707,5902.585986885075
0.108,-0.11266521130794661,5894.47034797522
0.112,0.00664651056034897,5895.859024718738
0.116,0.11574557844217138,5899.200459495956
0.12,0.19497624278519546,5900.2909402073865
0.124,0.2321126995742017,5904.676572434456
0.128,0.22513574377397433,5898.303569773726
0.132,0.18265904917749,5887.727536041738
0.136,0.12158988565392488,5898.311140382661
0.14,0.06239864792152568,5901.369702074598
0.144,0.0232137904490594,5904.175932691929
0.148,0.014407316171530272,5897.371897643623
0.152,0.03524277638356625,5895.009749458695
0.156,0.07366706965545845,5897.241924227486
0.16,0.10956557860507567,5904.422113702985
0.164,0.12075267830389311,5890.006598424935
0.168,0.0898582115153194,5900.118192668262
0.172,0.009772799248865484,5904.713758738187
0.176,-0.11408998043252025,5893.681275976563
0.18,-0.26515601754115237,5900.209463477577
0.184,-0.4199532065300627,5900.203301826389
0.188,-0.5539353286239057,5902.930775547202
0.192,-0.6473166810728944,5904.037072606718
0.196,-0.6893771284032036,5898.763307738912
0.2,-0.6800517791166697,5905.174315683893
0.204,-0.6284939365139278,5899.210259253971
0.208,-0.549488109331032,5904.490649418681
0.212,-0.45941096977603824,5897.516945088167
0.216,-0.3732112803038756,5901.050597825465
0.22,-0.3027170112754486,5899.954856449141
0.224,-0.2555724955191791,5903.263899735765
0.228,-0.23423561513972138,5908.127398102795
0.232,-0.23537037174671183,5903.887558318603
0.236,-0.250465018548965,5892.9830610777535
0.24,-0.2680683133781985,5906.783021020496
0.244,-0.2771353480500287,5907.963110634644
0.248,-0.27028820963783656,5901.637255113617
0.252,-0.2457499980412705,5891.438743784599
0.256,-0.2073405273870494,5895.743150140222
0.26,-0.16281212985718238,5901.509239211495
0.264,-0.12141981213512826,5896.061174584402
0.268,-0.09169218636384978,5899.687402486329
0.272,-0.07992516642435595,5901.210230514518
0.276,-0.08929592532470317,5900.96525742455
0.28,-0.11924216305672351,5897.611438210447
0.284,-0.1650926794028759,5903.318825548454
0.288,-0.21840413971373587,5899.61993307767
0.292,-0.2684433936094525,5894.77032688317
0.296,-0.30472656552327126,5898.202498422714
0.3,-0.3199511325621989,5908.707793908183
0.304,-0.31238990178351916,5900.510546391412
0.308,-0.28686620550565667,5908.28460674753
0.312,-0.25371909613517085,5897.270581923859
0.316,-0.22574477183168257,5898.774531509092
0.32,-0.21394845686530214,5900.7961670511
0.324,-0.22367439547270018,5900.614837256648
0.328,-0.2527482407401448,5899.584994335671
0.332,-0.292487623994927,5902.815237077675
0.336,-0.3311778623594445,5900.123133818188
0.34,-0.3585371201716613,5898.178814611733
0.344,-0.36938942829533505,5905.251216154087
0.348,-0.36527491064188894,5900.095446964707
0.352,-0.35359323104954,5902.3634250193945
0.356,-0.34468988673858025,5900.621373487714
0.36,-0.34791881587429435,5904.192169603775
0.364,-0.368015402927165,5918.953732373305
0.368,-0.40294462737872466,5905.454749127432
0.372,-0.44387292128429995,5893.003168017267
0.376,-0.47738500138994805,5897.964039473339
0.38,-0.4895907175514228,5908.266568940129
0.384,-0.47109833651337174,5901.518884980133
0.388,-0.4211285708392826,5892.832326866444
0.392,-0.34901107828984806,5914.156888666577
0.396,-0.2722671432653084,5903.560036922094
0.4,-0.2118821772031705,5906.014592258406
0.404,-0.18638175325099346,5895.473520611521
0.408,-0.20653922813321185,5902.110892969209
0.412,-0.27209249232150134,5885.957653145323
0.416,-0.37116512334809215,5901.641971159932
0.42,-0.4825143621840464,5892.916060997295
0.424,-0.5802354095960622,5904.099777744287
0.428,-0.6399835362739253,5899.282730240528
0.432,-0.6452458524459447,5893.80679480688
0.436,-0.5919520950220784,5898.822660000518
0.44,-0.4899084405379517,5905.091469577901
0.444,-0.36032657242087607,5899.098103952973
0.448,-0.23004695864262914,5908.451494121345
0.452,-0.12426447777444519,5895.878972918391
0.456,-0.05994274347744497,5901.441225406373
0.46,-0.041699724278793114,5891.33483409753
0.464,-0.061210991494569295,5899.642137670217
0.468,-0.10023657491646928,5902.665858484474
0.472,-0.13630590814343743,5900.252612967041
0.476,-0.14930236349927492,5900.772039413601
0.48,-0.12704731526661336,5903.536125955348
0.484,-0.0684762849017841,5906.93392684522
0.488,0.016163247715910073,5897.794479730542
0.492,0.1078440993598626,5901.189405711142
0.496,0.1832507269024362,5900.406173103562
0.5,0.22032756880576332,5895.547149572786
0.504,0.20406127708943383,5902.228813361903
0.508,0.13150185415436466,5895.585801593865
0.512,0.014473018896810784,5900.715765554599
0.516,-0.12174153567003453,5897.1896236206585
0.52,-0.2443627183336948,5899.450699160848
0.524,-0.32233924334395053,5904.2889976078895
0.528,-0.3357416976037102,5906.347968069051
0.532,-0.2818734504061698,5889.127263677407
0.536,-0.17580584415175124,5901.412083926038
0.54,-0.04523749662466355,5892.923913871561
0.544,0.07815404761484733,5901.390111840241
0.548,0.16743401641176914,5897.750655367676
0.552,0.20619628138295126,5904.419198402028
0.556,0.19027496793254814,5895.432447866374
0.56,0.1263106048081099,5902.580186818603
0.5640000000000001,0.02897743619261499,5896.497255986166
0.5680000000000001,-0.08193734084138207,5899.334526004951
0.5720000000000001,-0.18453778234316148,5901.448090057962
0.5760000000000001,-0.258328486308148,5909.909422467988
0.58,-0.2882293955191652,5904.044414253281
0.584,-0.26827686548334195,5905.058364119174
0.588,-0.20365823491513121,5897.892147779162
0.592,-0.10997122558149175,5899.770669388206
0.596,-0.009599213445071305,5901.461274638597
0.6,0.07375403300311685,5907.097781939392
0.604,0.12068108207252441,5899.019686674483
0.608,0.12022383230057364,5906.478860301985
0.612,0.07155756981214809,5894.6751667984745
0.616,-0.01696149639579313,5900.415123915896
0.62,-0.13078029454632384,5899.447414032532
0.624,-0.2530796625624901,5892.699333049607
0.628,-0.36851015822909206,5899.844736114446
0.632,-0.46592117181187137,5899.189333732698
0.636,-0.539708493227786,5903.383359846494
0.64,-0.5896358150253913,5906.034748854687
0.644,-0.6191293310592657,5891.523886013657
0.648,-0.6325227491925689,5898.895946961377
0.652,-0.6324124769700061,5904.016631671108
0.656,-0.618428254615272,5896.85903732279
0.66,-0.588039867809171,5902.098560366007
0.664,-0.5390190455284278,5901.387255275819
0.668,-0.4723968703951115,5900.739558763764
0.672,-0.39439424940907436,5910.019675923318
0.676,-0.31604435235519523,5907.428290864157
0.68,-0.25021536246044723,5890.486609852316
0.684,-0.2071267551515006,5905.819032789647
0.6880000000000001,-0.19043072912184433,5894.941320728154
0.6920000000000001,-0.19583593769541857,5901.258655056385
0.6960000000000001,-0.21303963246488408,5897.335951578886
0.7000000000000001,-0.23007705932886036,5890.587682611305
0.704,-0.23804402380028417,5900.5982256722455
0.708,-0.23405965259565484,5897.708699467576
0.712,-0.22128815149738024,5892.588991588276
0.716,-0.20637107167008867,5897.370639698481
0.72,-0.19585604085647584,5896.002208521058
0.724,-0.19332876020513912,5889.192584457046
0.728,-0.19811838546863092,5892.542032387704
0.732,-0.20559313488325073,5901.755623777398
0.736,-0.20869477794613872,5902.56085962548
0.74,-0.2002127036610872,5899.497789851477
0.744,-0.17510995617090264,5899.864502790059
0.748,-0.13210929452163805,5895.049300630081
0.752,-0.0739721348768844,5891.919671548097
0.756,-0.006511986526621988,5899.361783714362
0.76,0.06297621212938323,5906.057526797789
0.764,0.12706688316804382,5894.824765872451
0.768,0.17900675913452788,5904.665189089354
0.772,0.21319281966188788,5895.003225836587
0.776,0.22568805730476282,5903.910075504769
0.78,0.2148726875193297,5901.034145288299
0.784,0.1819807760891046,5895.02162379545
0.788,0.13112995592834967,5907.53289507429
0.792,0.06859497422873373,5893.58124389351
0.796,0.0013931316961546506,5903.376698052773
0.8,-0.06444472066745557,5899.17774669678
0.804,-0.1253567812866485,5899.656324088484
0.808,-0.18087497553136506,5910.55734604291
0.812,-0.23298226228174695,5892.811990931627
0.8160000000000001,-0.28438117899415455,5906.200297443357
0.8200000000000001,-0.33655204410515893,5894.590013947313
0.8240000000000001,-0.3886541983740715,5903.162674570343
0.8280000000000001,-0.4376920043257478,5894.56795930435
0.8320000000000001,-0.4794528549892117,5903.515992260943
0.836,-0.5093958112402781,5904.434028389226
0.84,-0.5231820493350201,5898.924116378404
0.844,-0.5171909908701846,5898.313878170453
0.848,-0.48936656832890785,5898.1841460718615
0.852,-0.44017743798068815,5903.225959558124
0.856,-0.37308815479158514,5891.080000816826
0.86,-0.29416083786455555,5899.170130737856
0.864,-0.2109854612551368,5900.889637506126
0.868,-0.1315099385368,5902.01689776328
0.872,-0.06318243593084963,5911.023703116577
0.876,-0.012281424856081951,5893.85208654538
0.88,0.017062509893962734,5901.727388689687
0.884,0.02433107437809828,5896.8834534276175
0.888,0.013853609186195482,5901.49189954911
0.892,-0.005469384776154854,5897.946795709089
0.896,-0.02263601285265537,5897.205037768532
0.9,-0.028383556267608943,5896.717546382733
0.904,-0.01845448327682804,5901.702487357305
0.908,0.005386718926503999,5902.40320041038
0.912,0.03686972361874353,5900.106391937853
0.916,0.06819374741607069,5903.935883205604
0.92,0.09290761700619804,5905.065218832194
0.924,0.10753360265823442,5901.542187818957
0.928,0.11156253703814388,5903.321650513557
0.932,0.10615418577910589,5902.304981611457
0.936,0.09228184288483152,5895.206445796076
0.94,0.0692109426908631,5886.684684857067
0.944,0.03408849756299918,5897.617117648326
0.948,-0.017093276690617516,5905.123859164474
0.952,-0.08759309118806126,5894.2141466761
0.956,-0.17783863950120057,5903.348331298087
0.96,-0.28379931293250255,5895.958865678128
0.964,-0.3963479403297123,5896.026533046831
0.968,-0.5022072265290847,5903.350311540203
0.972,-0.5867750958012481,5904.991357946787
0.976,-0.6381953186315746,5897.905102219408
0.98,-0.6510638839959921,5893.613953116958
0.984,-0.628023370712356,5898.1931206935415
0.988,-0.5784906128893609,5891.255374827675
0.992,-0.5152140725788543,5895.71071276053
0.996,-0.4502411049769462,5899.587043092398
1.0,-0.39182526461373085,5893.359788075002
1.004,-0.3431835605407338,5899.529567870691
1.008,-0.3031869658189219,5902.490576459864
1.012,-0.2682697080492949,5899.804267264638
1.016,-0.23451195578814843,5900.577448815248
1.02,-0.1992437217110503,5901.400985941841
1.024,-0.16215318903432885,5901.136898948597
1.028,-0.12603947386460856,5902.032571845156
1.032,-0.09699021397287502,5897.433970146651
1.036,-0.08350171939780818,5905.673932778172
1.04,-0.09433003092814217,5895.6782662385685
1.044,-0.13546684431724887,5900.395344961882
1.048,-0.20711815479448228,5901.118103999023
1.052,-0.30174604760478924,5906.266812799462
1.056,-0.40414553305703854,5910.626998995781
1.06,-0.4940670382924299,5907.149593550345
1.064,-0.5509923924576985,5890.852312965764
1.068,-0.5596772744229311,5888.569430230631
1.072,-0.514584526953795,5901.862403670611
1.076,-0.4216612877126008,5897.311236905318
1.08,-0.29684899781057533,5900.128140047241
1.084,-0.16178392998892965,5901.6247501545895
1.088,-0.038011999329259354,5898.775808455666
1.092,0.05844507514405793,5907.536960596841
1.096,0.12036588253380694,5897.29056103301
1.1,0.1493499313785924,5897.096641763042
1.104,0.15268456291236399,5900.544902143218
1.108,0.13842687363288894,5897.823749951561
1.112,0.11091863978905894,5902.285571511907
1.116,0.06889252691051274,5900.538867811039
1.12,0.0071665601818053076,5912.700762639559
1.124,-0.07884724150298197,5905.870498537295
1.128,-0.18802583350636864,5902.166716438868
1.132,-0.31038188419671814,5902.129618529772
1.136,-0.4276187551897248,5889.090169889469
1.14,-0.5175409272527381,5900.772441684966
1.144,-0.5608347746010092,5906.0090429273705
1.148,-0.5477247674999755,5909.36254225324
1.152,-0.4819583891934952,5896.3251508035655
1.156,-0.3805205019822478,5895.8921527349385
1.16,-0.26913346955351874,5903.132303130536
1.164,-0.17525445170130158,5900.408292628629
1.168,-0.12110460275717798,5899.37971747114
1.172,-0.11887624384411156,5903.619500300385
1.176,-0.16901492692268666,5904.886040118551
1.18,-0.26119451947606515,5895.200492068738
1.184,-0.37702136941571485,5894.237436757663
1.188,-0.49369448755510376,5898.282626218914
1.192,-0.5882276957934565,5897.190301005889
1.196,-0.6418492133969279,5902.236154530097
1.2,-0.6439011061477663,5895.553666076067
1.204,-0.5943713088503427,5892.9241890946005
1.208,-0.5042802883936406,5892.862410671022
1.212,-0.39349194083874184,5896.974271683111
1.216,-0.28616166591941183,5899.566727696708
1.22,-0.20490136353129043,5900.30650219496
1.224,-0.16539188452715187,5901.049121136312
1.228,-0.17307665285133533,5894.541033445842
1.232,-0.22267797886052537,5902.552950392691
1.236,-0.3001420048575234,5900.206809123246
1.24,-0.3859445416942829,5894.209288058457
1.244,-0.4588079690460574,5902.894977838439
1.248,-0.49946443337170604,5895.58820629098
1.252,-0.4944304161678883,5905.587073020824
1.256,-0.43945625051766163,5897.154181847354
1.26,-0.3417481422117826,5898.793197423909
1.264,-0.21987601321327474,5900.842214832076
1.268,-0.10076807213826823,5901.12362468203
1.272,-0.014151228639212098,5902.294226863423
1.276,0.014265123391412417,5901.776013428895
1.28,-0.03085623471798256,5900.064258943606
1.284,-0.14996829011903398,5900.850489984429
1.288,-0.3264078322784541,5899.416169124055
1.292,-0.525915479967399,5897.632172204922
1.296,-0.6972470918031151,5905.099701601803
1.3,-0.7743235120967098,5901.984228389735
1.304,-0.6818540912949556,5894.547001545544
1.308,-0.34651926485875373,5893.644255441693
1.312,0.2862936315745816,5911.613879557432
1.316,1.2336451864591176,5891.055737626202
1.32,2.4604359814288754,5907.560382845718
1.324,3.8760276603153696,5892.378689037073
1.328,5.346320257170113,5901.463927455441
1.332,6.719534535273799,5902.954112316589
1.336,7.857546689221484,5898.968288984529
1.34,8.6621231962731,5905.325136824409
1.344,9.088635797425942,5899.855622768564
1.348,9.146029010000682,5901.765985302703
1.352,8.886630912609236,5902.795029993829
1.356,8.390944911503336,5904.328112413558
1.36,7.751728401622179,5907.519108707688
1.364,7.060056341743858,5899.96382506803
1.368,6.394633227448492,5906.6634225910175
1.372,5.8146835284273815,5899.373392384272
1.376,5.356338458567619,5903.662869490445
1.38,5.032302392189036,5900.810215063485
1.384,4.834411084952447,5897.673625837935
1.388,4.738407745117374,5893.6278189658815
1.392,4.7100126163832226,5901.192288167302
1.396,4.711320229716087,5903.356698572663
1.4,4.706712840298205,5902.306309511188
1.404,4.667611565528044,5902.676273975914
1.408,4.575463445820023,5898.175677225646
1.412,4.422686827089277,5899.804747427978
1.416,4.2119083993871245,5887.997906850131
1.42,3.9542005263905695,5902.463702567709
1.424,3.666832025028654,5905.857690921775
1.428,3.37066614131584,5899.029713488662
1.432,3.0872891827721167,5902.095273880715
1.436,2.8361691496547228,5895.186481677853
1.44,2.632219591192502,5900.175455877436
1.444,2.483994345068653,5893.286365920883
1.448,2.3926193554159334,5905.515750140183
1.452,2.3515696470814196,5896.778885652688
1.456,2.347411077779291,5896.993712713303
1.46,2.3616273626846978,5902.367046868619
1.464,2.373575003337088,5895.396548122106
1.468,2.3642410360057897,5902.356161258836
1.472,2.3198846898824783,5896.130190177431
1.476,2.2343066726331093,5897.601780709642
1.48,2.108873535660115,5899.576035297852
1.484,1.9505256555694312,5897.506850466683
1.488,1.7691322078302045,5896.876249688682
1.492,1.57572819178818,5891.855246842448
1.496,1.3821155497020858,5899.614167814972
1.5,1.2009840650498924,5900.100652824904
1.504,1.04529178703688,5905.334652394684
1.508,0.9263572526475703,5897.946841632209
1.512,0.8512252553957086,5912.7086975859
1.516,0.8205348719103918,5902.292708894286
1.52,0.827978289082063,5912.464496866922
1.524,0.8616808955690498,5905.636636540111
1.528,0.9069641551860554,5906.549559618883
1.532,0.9494305864241703,5897.184277005388
1.536,0.9773678550801304,5892.869069652583
1.54,0.9830491756073738,5901.0030900204965
1.544,0.9631498150919509,5897.453407179252
1.548,0.9186792022419089,5892.381780280371
1.552,0.8545673344796525,5894.661751843125
1.556,0.7787831437055055,5892.275122446638
1.56,0.7008492525470651,5899.347543420428
1.564,0.6298258701979554,5893.737633763232
1.568,0.572155413743737,5882.336558685933
1.572,0.5299772479135371,5880.462901218833
1.576,0.5004732456533808,5885.793370533556
1.58,0.47657337374212505,5881.355209678685
1.584,0.44904239589255346,5875.017955648281
1.588,0.40955132694840735,5874.217026714381
1.592,0.3539228359435162,5883.097043008515
1.596,0.28455325891777566,5879.6495830175045
1.6,0.2110618279883633,5886.385018521319
1.604,0.1485179551884933,5879.235996002028
1.608,0.11337297442270022,5865.219683786872
1.612,0.11835242150815241,5864.760573883932
1.616,0.1683264767410852,5879.925355273417
1.62,0.25886709390902773,5867.643863546672
1.624,0.37782700868157815,5866.436010370429
1.628,0.5086992236855089,5873.895701043642
1.632,0.6338833599271737,5869.464034472084
1.636,0.7367624836695154,5869.495737521381
1.64,0.8029718212338023,5865.926057642784
1.644,0.8220267413734471,5860.604227532014
1.648,0.7897580178178077,5867.508930021973
1.652,0.710517054046595,5865.875416475374
1.656,0.597451700559994,5859.294345402232
1.66,0.46999466176481536,5863.834249244222
1.664,0.34926958180702133,5858.902184342031
1.668,0.25317338158889635,5870.143302991009
1.672,0.1927948287481719,5861.406304024261
1.676,0.1708685919435192,5866.591378249736
1.68,0.18202140128991406,5858.064985194495
1.684,0.2142444507793344,5854.2482002051565
1.688,0.25121402102250656,5856.254112896318
1.692,0.27535684836643237,5853.105890263096
1.696,0.27154591453052523,5848.520141628931
1.7,0.23088228187095436,5850.98303494986
1.704,0.15350740598152626,5847.007244959976
1.708,0.049328127030207315,5854.5501421130775
1.712,-0.06392821900108599,5853.509779947845
1.716,-0.16501771458016842,5858.464663644065
1.72,-0.23462866781108943,5848.940481510897
1.724,-0.26025298984961126,5844.22735439755
1.728,-0.23895733665305427,5841.081609781812
1.732,-0.17735094276779126,5855.199957816686
1.736,-0.08904972551182518,5848.346280265848
1.74,0.009271542384325527,5847.2149312576175
1.744,0.10178007192041091,5855.734995011815
1.748,0.17611912350295106,5847.370917113049
1.752,0.22439121098580495,5848.607593276382
1.756,0.24302129717662643,5841.137515202568
1.76,0.2323249967991123,5853.673828910705
1.764,0.1961665391106499,5843.578264330463
1.768,0.14147883785777068,5848.963547683502
1.772,0.07718965877715746,5843.091682861669
1.776,0.012380603917368184,5842.745284933058
1.78,-0.04589027897664878,5835.199490476127
1.784,-0.09415717840207885,5841.772059719871
1.788,-0.13263396200182317,5841.444635573133
1.792,-0.16372607314628915,5838.176395440886
1.796,-0.18982752415990536,5847.603591310648
1.8,-0.21165193340238847,5838.068436046786
1.804,-0.22789904418120532,5843.405348665945
