时间(s),电压(V),幅值(高频80K)
0.0,-0.4922226527460723,5904.65805684478
0.004,-0.37064269518686566,5900.926447042871
0.008,-0.2599369227186065,5896.576686431809
0.012,-0.16956407628892534,5905.390282510324
0.016,-0.10780958859336168,5901.701600077236
0.02,-0.080894780054936,5901.147030897638
0.024,-0.09079625295351931,5904.058702242764
0.028,-0.13261812430998102,5889.010677280937
0.032,-0.19373623211714322,5901.559462890003
0.036,-0.2563275874169046,5903.468543275827
0.04,-0.30248375933486815,5902.327945037243
0.044,-0.31926628626020614,5900.805185412325
0.048,-0.30161516263848503,5897.511878508935
0.052,-0.25292272025316725,5906.484547870715
0.056,-0.18401882141615813,5904.624700926315
0.06,-0.11088075695642623,5909.117391198849
0.064,-0.05109392377004995,5899.071397955434
0.068,-0.01969888765261532,5903.573342340332
0.072,-0.025721447708975186,5900.523256409714
0.076,-0.07056027797656235,5899.6662262481295
0.08,-0.14858523455613964,5901.683078887586
0.084,-0.2493316845583648,5901.304835679921
0.088,-0.36017263885992074,5894.970900750924
0.092,-0.46857787573221016,5899.208852638868
0.096,-0.5636472292921675,5887.258114137725
0.1,-0.6369960578887978,5897.967675745071
0.104,-0.683179086027821,5899.649116923876
0.108,-0.6998449616171948,5891.418726283789
0.112,-0.687750796451737,5902.615155872274
0.116,-0.650561147592055,5900.913323488929
0.12,-0.5941517080579035,5907.648327697839
0.124,-0.525227708921003,5914.058216946912
0.128,-0.44947606394239054,5909.688704520848
0.132,-0.3698842267747024,5900.901142523526
0.136,-0.28599696991401985,5895.05800039309
0.14,-0.1947076518999209,5910.844338986256
0.144,-0.09272370235053538,5896.632870816497
0.148,0.01989755069581679,5895.222067067618
0.152,0.13654855014301528,5903.876826724349
0.156,0.2428888651756651,5896.935989074993
0.16,0.3187207785695498,5906.091899470766
0.164,0.3427322596579429,5898.004928369199
0.168,0.29877666624020893,5910.444768327415
0.172,0.1817310977757219,5902.702138946638
0.176,0.0010187102114352583,5905.575599641791
0.18,-0.21941941512934696,5903.815411597696
0.184,-0.4448880873261679,5895.961094986364
0.188,-0.6366731651467731,5892.766919984776
0.192,-0.7602167369597661,5896.3071689683
0.196,-0.792652373493311,5902.115717549633
0.2,-0.72760448663225,5883.357722248107
0.204,-0.575952362369391,5899.59667704859
0.208,-0.3626796095887325,5898.814393678667
0.212,-0.12130101088751984,5901.868739907407
0.216,0.11214591157011948,5908.28579475614
0.22,0.3042150304039268,5907.803739535493
0.224,0.4280211745418866,5901.510784210017
0.228,0.466308291172452,5894.376717177657
0.232,0.4136364081361607,5914.798874084137
0.236,0.27742411891963914,5895.959433516518
0.24,0.0775899517161087,5907.814091869587
0.244,-0.15543233631002112,5905.008618397957
0.248,-0.38459252698997914,5905.35619350844
0.252,-0.5721378119230675,5903.2188979397015
0.256,-0.6869587381267775,5899.201894609517
0.26,-0.7118590500902555,5899.325133028873
0.264,-0.6486731519174501,5911.824223928263
0.268,-0.5194179056129898,5894.78286254662
0.272,-0.36265930643538996,5894.185223472987
0.276,-0.22545877814318455,5902.042671536216
0.28,-0.15230601013410977,5898.984727339426
0.284,-0.17341695615557934,5905.4597044836255
0.288,-0.29558519249641885,5904.984042359119
0.292,-0.4987639845927669,5894.3707854330005
0.296,-0.7400836738974432,5902.161226063264
0.3,-0.9644274587474512,5892.53658347243
0.304,-1.1183364571786998,5898.206525483541
0.308,-1.163079206832768,5890.779369726216
0.312,-1.083382724861529,5899.052456183649
0.316,-0.8900250867161261,5908.637921056228
0.32,-0.6165001071399174,5903.997897858864
0.324,-0.3114527590837333,5910.855424096678
0.328,-0.028906083616339957,5897.550963098081
0.332,0.1822371295704551,5892.598941647327
0.336,0.2882150766250388,5894.2397938293225
0.34,0.27817424312328437,5901.795219433562
0.344,0.16720652181372533,5905.946113074106
0.348,-0.007295122335704168,5897.069074170055
0.352,-0.1957041779307001,5905.0487545172855
0.356,-0.3497153317524717,5900.963187386147
0.36,-0.43502340127370537,5900.371588876065
0.364,-0.4391794767479927,5899.274142813026
0.368,-0.3724966666549866,5903.582753765466
0.372,-0.26237106713692726,5900.283435778782
0.376,-0.1435011170405739,5900.273583936145
0.38,-0.04733054129524748,5897.390252895597
0.384,0.00625868564489191,5891.557435335848
0.388,0.012829410556926789,5897.861491557696
0.392,-0.017989309135440407,5905.6411006506405
0.396,-0.06823152614935125,5895.675152700132
0.4,-0.11924992689112925,5899.736135559517
0.404,-0.15828706682029645,5893.325721052192
0.408,-0.1815898565660117,5895.6320343506695
0.412,-0.19335843668639452,5898.214645243298
0.416,-0.20166854882635835,5895.107013985674
0.42,-0.21353190029799946,5897.6381965718965
0.424,-0.23116142030782313,5904.615773072894
0.428,-0.25072159934192045,5906.53899912122
0.432,-0.26384053773718863,5897.844416575345
0.436,-0.2611582744249912,5903.181678455143
0.44,-0.23642883981131535,5895.22421619887
0.444,-0.1895377229025497,5898.367599003038
0.448,-0.1273746286460612,5903.5599412724
0.452,-0.06245413302352016,5897.799152504047
0.456,-0.009869953024049277,5897.132361914302
0.46,0.01667316702459267,5903.483743108403
0.464,0.009019687824887643,5898.826586429189
0.468,-0.032031026335352486,5904.603063555921
0.472,-0.0952858051908694,5904.500794914921
0.476,-0.16068885123409923,5905.385260069009
0.48,-0.2039524251772387,5899.23660241899
0.484,-0.20330417693410316,5896.644763232942
0.488,-0.14661273758044235,5896.262820213315
0.492,-0.03683482494520733,5905.652712235343
0.496,0.106356704391395,5899.427667670704
0.5,0.25033031002258566,5905.542894731552
0.504,0.35832929013806947,5897.4197275812
0.508,0.4005727737856864,5902.412493074046
0.512,0.36349587026038527,5903.802617702546
0.516,0.2537691264281335,5897.450975857346
0.52,0.09592155791663791,5895.236565729438
0.524,-0.07515221033976612,5898.3615813157885
0.528,-0.22376657497128505,5895.102634627025
0.532,-0.3218253047095344,5892.310435911761
0.536,-0.35405049477927514,5893.751993791304
0.54,-0.3198311703013642,5891.584297155622
0.544,-0.2322902124637327,5901.634210359178
0.548,-0.11501140960175481,5900.089323818249
0.552,0.0033587187760871795,5903.22923873047
0.556,0.09603136758266492,5901.958552028857
0.56,0.14500942588536875,5897.431813480677
0.5640000000000001,0.14581702304421384,5906.050572058126
0.5680000000000001,0.10811943168889561,5904.341201199803
0.5720000000000001,0.051832121973392604,5899.589173263098
0.5760000000000001,0.00019824859647362086,5901.719220091763
0.58,-0.027550530895988252,5894.754728000593
0.584,-0.02141928263156174,5901.262996916158
0.588,0.017728964844609313,5903.203962219607
0.592,0.08012056524222834,5899.88456738578
0.596,0.15114118013313324,5908.930117396956
0.6,0.21557576768321293,5900.000657659641
0.604,0.26074644917513107,5902.432263167983
0.608,0.2783508664196375,5896.18267548001
0.612,0.2652516160155426,5901.553046888556
0.616,0.22326550957315733,5906.541850089909
0.62,0.15789337191310998,5899.0129898742825
0.624,0.07626077616931778,5899.817086557468
0.628,-0.01505332059763567,5895.485731715497
0.632,-0.11155808836141129,5902.660907398697
0.636,-0.21131610946699425,5905.187308637668
0.64,-0.31429132877971633,5903.584202871112
0.644,-0.4208522963344243,5901.005907998538
0.648,-0.5299069028825338,5896.197872973538
0.652,-0.6373098347704079,5898.478186761855
0.656,-0.7353002141294865,5897.885369603862
0.66,-0.8135750133017938,5900.183261436917
0.664,-0.861939340664461,5893.714440936007
0.668,-0.8735173940453882,5897.369120093063
0.672,-0.8469882992774276,5900.055069860181
0.676,-0.7867791786968666,5894.250325987451
0.68,-0.7013979458917177,5891.493962293817
0.684,-0.6012924951378112,5903.332725800822
0.6880000000000001,-0.4978344969686798,5907.840815851212
0.6920000000000001,-0.4038050502838535,5906.969189166012
0.6960000000000001,-0.33386490736828056,5897.664973540526
0.7000000000000001,-0.30270819232931906,5906.512087804227
0.704,-0.3200490276931593,5899.798609689971
0.708,-0.3843563299815857,5899.048330277935
0.712,-0.4791869909774372,5901.962805475841
0.716,-0.5754946639397038,5899.4980901963945
0.72,-0.6403749044212533,5901.539453414854
0.724,-0.6489648031943196,5901.8679713929
0.728,-0.5940825438843786,5893.967603563208
0.732,-0.48908566815978505,5905.16058194782
0.736,-0.3626167594913296,5897.470939491889
0.74,-0.24749539703567808,5894.66797164771
0.744,-0.1684549624915162,5896.667269049029
0.748,-0.13380490533711195,5895.822520455314
0.752,-0.13419261722741557,5903.400923685288
0.756,-0.14835755144290647,5899.388683887832
0.76,-0.15286617675136896,5903.589913753605
0.764,-0.13166757064993098,5896.340816994794
0.768,-0.08208450853710819,5897.700406171471
0.772,-0.01564970519497737,5891.348342240898
0.776,0.04606724557016779,5903.700689837903
0.78,0.07918057137698113,5901.173941225827
0.784,0.06623907728033256,5893.908442034144
0.788,0.002963125224372279,5891.581925418518
0.792,-0.09941900630562774,5902.500854788001
0.796,-0.21687733931993197,5913.763815541607
0.8,-0.3192046290499622,5902.25027048742
0.804,-0.37848276471422043,5895.052860619677
0.808,-0.37706671010575754,5905.408839733002
0.812,-0.3128785860810741,5891.876684214938
0.8160000000000001,-0.20040340170424745,5905.30983189839
0.8200000000000001,-0.06700252149390684,5899.275509036845
0.8240000000000001,0.05434851734859725,5905.659470357556
0.8280000000000001,0.13369300573806706,5895.82732415937
0.8320000000000001,0.15168286520296329,5903.366323032219
0.836,0.10431540136963932,5907.419738790888
0.84,0.0037852789432415304,5901.748995763982
0.844,-0.12495215391957515,5900.58212798978
0.848,-0.2513873993996962,5902.097319132432
0.852,-0.3485182527535532,5894.073173377755
0.856,-0.40079504744532624,5897.385341807353
0.86,-0.4081763529677035,5901.151638761639
0.864,-0.38500705548801056,5902.592481192593
0.868,-0.3544563304757424,5887.859631053097
0.872,-0.3408501048201101,5900.249419953888
0.876,-0.3626736715624366,5906.025450703497
0.88,-0.42821951325782526,5891.769457815204
0.884,-0.5344810381426874,5899.046094634102
0.888,-0.6687909941715108,5907.852882998575
0.892,-0.8122016549254271,5902.902274032336
0.896,-0.9435931569604841,5896.474091105263
0.9,-1.0437497104731563,5894.309833883666
0.904,-1.0988051595832184,5907.761189433305
0.908,-1.1023778108569955,5897.443580250049
0.912,-1.0558052184294753,5900.223993917739
0.916,-0.9665065852408213,5902.028591726989
0.92,-0.8452445588443481,5891.651556715932
0.924,-0.7033301314957349,5904.437332504863
0.928,-0.5506268547828986,5899.963143387056
0.932,-0.39491540941116166,5895.558464719649
0.936,-0.24280538153277562,5902.02830529893
0.94,-0.10172865736369335,5899.979988227245
0.944,0.01823201713946658,5893.139516486002
0.948,0.1041525683816442,5906.79175732266
0.952,0.14231154621340375,5898.217200994314
0.956,0.12164112963159134,5900.273543955178
0.96,0.037100290438212745,5907.250321160297
0.964,-0.10803619896772922,5900.628914626811
0.968,-0.3013032977385633,5901.61185841343
0.972,-0.5217273504230683,5907.269994267936
0.976,-0.7422328860931579,5900.120234255809
0.98,-0.9337696037580545,5890.468800649452
0.984,-1.0706408264733362,5897.002866516932
0.988,-1.1357766027567062,5897.536065830729
0.992,-1.1242546232361212,5898.749473006832
0.996,-1.0437701364597458,5897.229695262534
1.0,-0.9118858430597127,5905.279790112757
1.004,-0.7511652967959596,5893.721319129187
1.008,-0.5841081660943384,5901.909116974042
1.012,-0.42967564881087206,5903.270390112378
1.016,-0.3020771822258913,5903.120274241922
1.02,-0.21111539544078634,5902.959256951181
1.024,-0.16269332420360882,5899.978720094109
1.028,-0.15837022946633125,5897.88516320415
1.032,-0.19381054160941494,5899.974014360164
1.036,-0.25716232601256445,5899.246129312134
1.04,-0.32917992125336093,5893.52541877309
1.044,-0.38651902041732394,5900.0035385906585
1.048,-0.4079933796336574,5901.343888408929
1.052,-0.3816598776826097,5900.073179570556
1.056,-0.3097004710903678,5898.365537104856
1.06,-0.2087545639047725,5904.224373881601
1.064,-0.10518628561146792,5904.379733994176
1.068,-0.0268934869458879,5907.17096318178
1.072,0.005206294678147322,5905.699004694855
1.076,-0.017273939275222923,5910.583330582179
1.08,-0.08946006279496727,5906.283492060345
1.084,-0.1969086685913674,5895.096075543335
1.088,-0.3214972595667635,5897.272869434001
1.092,-0.44672109110439073,5908.05165285298
1.096,-0.5604072526005596,5898.660323226033
1.1,-0.654552879194173,5894.512908208696
1.104,-0.7235889037178025,5895.898631679354
1.108,-0.7628760813316471,5894.840309069828
1.112,-0.7685339777978868,5901.618794170466
1.116,-0.7385121930786466,5898.967837644666
1.12,-0.6739766867516854,5904.118110993244
1.124,-0.5800709604705908,5899.255409113021
1.128,-0.4657686654764892,5903.388645698429
1.132,-0.3431558926837561,5892.969359374705
1.136,-0.22650268415492555,5900.543570628476
1.14,-0.13105578220225692,5900.518802506333
1.144,-0.07117929039440204,5897.313426890391
1.148,-0.057621315070383455,5902.721958470757
1.152,-0.09423444375407833,5899.868635285164
1.156,-0.17520655159735465,5891.433081127198
1.16,-0.2843545887409158,5905.036438625119
1.164,-0.39765190408017054,5903.643256743783
1.168,-0.48870201535813856,5900.572949989253
1.172,-0.535266029371712,5903.006134890368
1.176,-0.5244755942361554,5907.204744490006
1.18,-0.4552147622379974,5901.944125213442
1.184,-0.3374678692651482,5887.245518812892
1.188,-0.18942984215048964,5905.487136473204
1.192,-0.0336135691124161,5896.192721955435
1.196,0.1068839372759824,5904.065121180253
1.2,0.2112071407449123,5898.044059247742
1.204,0.26256592060687417,5904.171391240913
1.208,0.2496921998115234,5902.183474581065
1.212,0.16872631986685432,5897.331093035499
1.216,0.02540783935473681,5909.364239035262
1.22,-0.1639303505112536,5897.052464573098
1.224,-0.3744504089603504,5906.826551936579
1.228,-0.5784907529002009,5904.416872191016
1.232,-0.7530019997129833,5891.510254060036
1.236,-0.885308922397843,5910.6710383020045
1.24,-0.9740735103671635,5904.184019718418
1.244,-1.024243757330761,5903.294132540784
1.248,-1.0373024311201056,5901.111091802573
1.252,-1.0004825565178783,5896.282207355643
1.256,-0.8799745324795732,5898.611626262255
1.26,-0.6225560990830046,5900.094140935343
1.264,-0.16734996793326995,5895.365305816308
1.268,0.5344012115784994,5896.056240495967
1.272,1.497204477800031,5896.971337772188
1.276,2.6847565074564645,5910.017703097827
1.28,4.0067321467868995,5891.875437995072
1.284,5.333021173907584,5903.863874630577
1.288,6.522651293580951,5902.546519946725
1.292,7.457647756232392,5903.354077739451
1.296,8.069388635372206,5910.590069342805
1.3,8.348645099642251,5907.400287091219
1.304,8.337989367182333,5888.448681843684
1.308,8.112010322601568,5896.751104530509
1.312,7.7538194240387215,5907.951331306313
1.316,7.335508649423219,5900.366430670715
1.32,6.907026801394952,5897.745336129281
1.324,6.4941564893572945,5904.292282772025
1.328,6.103403926836913,5908.930847726365
1.332,5.730451820964578,5896.380333248391
1.336,5.369088139908771,5903.040098787739
1.34,5.018288721073032,5903.77074763716
1.344,4.685796891530803,5903.788680315572
1.348,4.387181103965313,5898.227583206315
1.352,4.140410339977036,5900.711370150541
1.356,3.957720069096637,5898.520999823887
1.36,3.8382953980172423,5908.809092371183
1.364,3.7656087438670793,5900.204253511339
1.368,3.7112809494460604,5909.332262851202
1.372,3.644033878720708,5900.5232357587865
1.376,3.5397628851706506,5905.262961820658
1.38,3.388519698723525,5904.347317601599
1.384,3.1961069403337135,5901.475102748721
1.388,2.980517714995991,5897.841657122705
1.392,2.765107625123624,5893.959050248099
1.396,2.5708332285579694,5896.900989849021
1.4,2.409769868610838,5893.512881657517
1.404,2.2818427371750496,5901.076872235059
1.408,2.175957573137168,5902.702654536869
1.412,2.075305643893283,5911.608454995104
1.416,1.9650083670955794,5902.297475480589
1.42,1.8391218829302116,5895.077895553442
1.424,1.7039123446731184,5899.319583045127
1.428,1.5756673898527025,5905.554943189409
1.432,1.4738119183771992,5907.373478230172
1.436,1.4124355484462756,5905.562831105099
1.44,1.394132343332221,5893.102881286366
1.444,1.408881633318,5896.329981707443
1.448,1.438303605751073,5904.757658500974
1.452,1.4633121714974078,5900.650207939808
1.456,1.471901518051431,5893.642204134696
1.46,1.4638080804024767,5897.366049510337
1.464,1.4500741286587018,5894.61643724001
1.468,1.447758760886018,5897.972787018129
1.472,1.4721648702628767,5892.918858674573
1.476,1.529817557422232,5903.199525582631
1.48,1.6147914919216957,5905.793189445954
1.484,1.7095032688572394,5895.0889530393015
1.488,1.789447525748348,5895.157906478384
1.492,1.8299927803047145,5901.28217180943
1.496,1.8127629977287252,5901.979018851913
1.5,1.7296632519898998,5896.449039368532
1.504,1.5839372590608427,5897.575284423449
1.508,1.3888859801993616,5889.488227771757
1.512,1.1652672756588718,5892.848172263744
1.516,0.9379259934248514,5893.424252535172
1.52,0.7316736636092122,5888.429524206609
1.524,0.5667062565620222,5898.647295112001
1.528,0.454772238739494,5896.557084214684
1.532,0.3977062596786775,5888.300685879533
1.536,0.3890764988490608,5890.420798970809
1.54,0.4181853562662851,5895.901160230638
1.544,0.4745638760603667,5893.102741278732
1.548,0.550865574555364,5882.929099758044
1.552,0.6427972271794464,5882.60288809984
1.556,0.746299748896789,5879.506539358264
1.56,0.8538781609589373,5886.888329185023
1.564,0.9526886108087953,5887.205515616066
1.568,1.0261701358671194,5886.94829264522
1.572,1.0590998747762885,5881.745865383747
1.576,1.0440233779817842,5882.213870081441
1.58,0.9860836614484658,5879.223722499892
1.584,0.9037503101296599,5883.628335807471
1.588,0.8244710351227327,5874.773137166791
1.592,0.7761639797715831,5887.997633346885
1.596,0.7772172833274201,5876.736344466426
1.6,0.8286677897125363,5880.67095769279
1.604,0.9117611411994199,5873.776840620404
1.608,0.9920949120540333,5870.969243173736
1.612,1.0290997337285952,5873.722864922027
1.616,0.9879314118195534,5875.946470225014
1.62,0.850220110025131,5877.422383302952
1.624,0.6204027307549717,5873.999966358163
1.628,0.32562650651677777,5875.889636975666
1.632,0.00927630432125767,5872.478512762496
1.636,-0.27976194091052736,5875.039391701443
1.64,-0.49883619253226624,5875.884701245026
1.644,-0.6211251680610257,5878.262496007837
1.648,-0.6409668743196897,5870.790479894889
1.652,-0.5738766003136032,5882.712259027898
1.656,-0.4511714189258947,5869.360737035748
1.66,-0.31041634219317243,5864.113823520799
1.664,-0.18451108707026304,5875.544367861662
1.668,-0.09315733298841189,5869.317483069463
1.672,-0.03971179419332141,5877.9337168699
1.676,-0.014088296203623157,5869.571284307729
1.68,0.00031778459126082415,5873.5787781013
1.684,0.019106721358417837,5865.941066473121
1.688,0.05166455696489071,5880.29584609877
1.692,0.09951417092375876,5871.213825768657
1.696,0.15775832838757559,5875.623390380839
1.7,0.21807440404151576,5873.931082117201
1.704,0.2716242188637482,5874.139997423592
1.708,0.3109299647300389,5872.370957299042
1.712,0.33058372718638696,5870.572916366263
1.716,0.3271444640505008,5864.735799315168
1.72,0.29873501298412886,5861.515092009426
1.724,0.2448406932722011,5866.866506355495
1.728,0.16670473524441487,5866.2658972845775
1.732,0.0684249892083549,5859.571540302324
1.736,-0.041714023797496405,5865.103266710396
1.74,-0.15079271423833443,5859.012235934405
1.744,-0.2429655133089532,5858.661491366839
1.748,-0.30362730202894533,5857.71198332227
1.752,-0.3245027817239177,5867.08658730177
1.756,-0.30701496374182996,5860.549130948442
1.76,-0.2621986209234658,5868.620179841592
1.764,-0.20755833649991284,5867.455207226522
1.768,-0.16264009924543504,5850.731883234634
1.772,-0.14485540962947313,5860.782635380072
1.776,-0.16616019099856527,5862.292700591606
1.78,-0.2307258679767632,5860.299924356194
1.784,-0.3338943143212053,5865.874055829388
1.788,-0.4627793700378032,5861.561703657457
1.792,-0.5984976772072022,5865.197878295431
1.796,-0.7196225028356632,5863.914270348083
1.8,-0.8063691275636666,5856.709814339457
1.804,-0.8448241733284322,5860.796364769544
1.808,-0.8300456586303129,5864.580559587601
