时间(s),电压(V),幅值(高频80K)
0.0,-1.3714805860669002,5905.211859298226
0.004,-1.0156176961641814,5899.786699626695
0.008,-0.6888769941719549,5909.881164822049
0.012,-0.4141521825732372,5898.845331078695
0.016,-0.2041153249471293,5906.618813089961
0.02,-0.06074688451853951,5895.353734215871
0.024,0.02238693706308106,5905.510492772734
0.028,0.05681547475482011,5894.754838066624
0.032,0.05605708174381493,5896.952172660525
0.036,0.03346067189706571,5898.370597456204
0.04,0.0013993655832856633,5899.242079339053
0.044,-0.028453790198583247,5903.519958159828
0.048,-0.0449563806559453,5906.55705885008
0.052,-0.0388056960613785,5900.356939620389
0.056,-0.005557795376799465,5899.363498412022
0.06,0.05120672165530209,5898.837922261397
0.064,0.11910317380420003,5903.879967631147
0.068,0.18013012547078724,5914.465171333578
0.072,0.21692916025039233,5892.44962178376
0.076,0.21909717632230089,5897.207262064854
0.08,0.18646891724194983,5897.848353781024
0.084,0.12816266673894997,5891.333448014374
0.088,0.05835793971693807,5911.889878251573
0.092,-0.009059715766700742,5896.001203836516
0.096,-0.06480668153612773,5899.881753930988
0.1,-0.10600697385103393,5898.436670524856
0.104,-0.13526246994206467,5896.3650557246965
0.108,-0.15794520855346136,5910.362353001429
0.112,-0.17914720499981537,5897.438954889904
0.116,-0.20138744783810153,5899.197923983593
0.12,-0.22357099185475132,5897.160220505831
0.124,-0.24130389040385677,5902.666699415931
0.128,-0.248501500333285,5916.0410380849535
0.132,-0.2399773389915658,5899.205367403959
0.136,-0.21416939509844687,5901.118151110415
0.14,-0.1747276348437225,5898.644922676642
0.144,-0.1300512465654411,5898.257383330151
0.148,-0.0910418805072625,5899.686453409074
0.152,-0.0683705023209243,5895.108118917907
0.156,-0.07055217735490661,5903.86209892903
0.16,-0.10319405011432947,5892.043822667276
0.164,-0.16881259085524045,5901.704263657268
0.168,-0.26642105916420744,5907.811062641758
0.172,-0.39071953466455234,5893.5492552950345
0.176,-0.5314908875895622,5895.394919966971
0.18,-0.6740210671461785,5892.438707086895
0.184,-0.8009330797526295,5894.343593109572
0.188,-0.8951695575460626,5904.700348631685
0.192,-0.9433673189381213,5905.225559561008
0.196,-0.9386313175036819,5895.759112726294
0.2,-0.8818204618640405,5901.685041486312
0.204,-0.7810563609655728,5898.332842518642
0.208,-0.6499165416112919,5901.825655329819
0.212,-0.5049455126974607,5901.723706520254
0.216,-0.36273472145214997,5895.583251738906
0.22,-0.23676166237152912,5897.209732125295
0.224,-0.1347122677830605,5895.709145152443
0.228,-0.05733944518284756,5893.667174039044
0.232,0.0005353389595642482,5899.823987997674
0.236,0.04712025147480775,5894.213830407992
0.24,0.08982416123191357,5907.127230350695
0.244,0.13190008197291736,5903.345114702643
0.248,0.17088137396176717,5899.882723905957
0.252,0.19941550570774855,5897.678664513049
0.256,0.20813528291485553,5894.797697516147
0.26,0.18955103490118777,5904.488631485991
0.264,0.14167109859824095,5904.894487234497
0.268,0.07000294340900724,5901.289565597109
0.272,-0.013057932679716694,5900.881162621378
0.276,-0.09147815877101721,5905.700258602185
0.28,-0.1503325289911002,5889.065288144774
0.284,-0.18026864828936692,5897.301681486676
0.288,-0.1801615038502951,5897.524552934127
0.292,-0.15726304245475642,5904.136616376558
0.296,-0.12494831025497852,5909.566818137397
0.3,-0.09861339292288306,5899.548482341889
0.304,-0.09069955612301579,5907.621005242056
0.308,-0.10642769347993625,5900.135013505504
0.312,-0.1420425417293039,5908.201272322825
0.316,-0.1864745023787485,5904.6283790816
0.32,-0.22567358220416847,5899.659359510262
0.324,-0.24762581149734075,5909.169040574461
0.328,-0.24599425678065112,5902.217065170597
0.332,-0.22129907141753064,5900.527324262669
0.336,-0.17985507770739148,5897.416887823214
0.34,-0.13147712484567986,5901.330560911997
0.344,-0.0868743035098543,5902.118118771499
0.348,-0.05516233386200886,5897.940555708205
0.352,-0.041719078367767636,5899.596116279741
0.356,-0.046761170720840003,5898.826321987338
0.36,-0.06513478809187948,5903.196064083726
0.364,-0.0876454126319713,5885.831676003983
0.368,-0.10381387815156953,5902.724675372996
0.372,-0.10535420710770643,5910.3869275795805
0.376,-0.08921485871779707,5899.342829522798
0.38,-0.059091289500307106,5906.558644488887
0.384,-0.02490561171517144,5895.412729228352
0.388,-0.000423780397013801,5899.702161466317
0.392,0.0003662717662990192,5907.1270399266805
0.396,-0.032760844963879265,5899.210193118976
0.4,-0.10288388941873297,5891.233570343899
0.404,-0.20403687385365415,5903.075500475572
0.408,-0.32152279610520124,5895.520231470896
0.412,-0.43484063296876296,5903.201020300719
0.416,-0.5228591096510062,5894.917566217769
0.42,-0.5697881552922663,5905.003761332342
0.424,-0.5698566510552336,5902.457051387014
0.428,-0.5289657079038562,5898.97113962814
0.432,-0.4626774243041119,5902.145212352233
0.436,-0.3911103641384684,5891.819167197075
0.44,-0.33234115200679776,5901.839671310098
0.444,-0.2965805183084531,5894.736682649227
0.448,-0.28332006379071056,5903.880414218145
0.452,-0.282580041186114,5895.647526309497
0.456,-0.27973727506286467,5899.725701681554
0.46,-0.2620113267493804,5909.32909750187
0.464,-0.2240676116221194,5895.919099599481
0.468,-0.17050121082256048,5896.224320509022
0.472,-0.1142194869216905,5896.924954009601
0.476,-0.07149116463350894,5904.046417151671
0.48,-0.05568623888754548,5891.65011813138
0.484,-0.07198390241859125,5899.7887956699815
0.488,-0.11488341105162156,5903.407358958262
0.492,-0.1694561202456509,5905.846919371605
0.496,-0.2159348001478131,5893.580392865062
0.5,-0.23593218455701725,5901.212810745528
0.504,-0.2180658941015698,5896.976752522241
0.508,-0.16118821576740483,5902.43972063935
0.512,-0.07433469630175214,5903.081164787765
0.516,0.026446376514504617,5902.75267732435
0.52,0.12318082397391901,5897.784545179393
0.524,0.2010181322683796,5896.360535600796
0.528,0.2513178250509267,5901.451646829207
0.532,0.27187523895867816,5899.499580864819
0.536,0.2649020616806104,5903.938522456763
0.54,0.23434855033704888,5894.37655459242
0.544,0.18398999762486692,5908.872860872525
0.548,0.11682654239575915,5893.622014307042
0.552,0.03561016258198486,5898.803716110184
0.556,-0.05598637782652346,5901.008784058468
0.56,-0.15218502440485704,5894.487734661154
0.5640000000000001,-0.24462897571849937,5900.220511865777
0.5680000000000001,-0.32312374101568997,5909.61786941666
0.5720000000000001,-0.3775030388593166,5896.009460381732
0.5760000000000001,-0.40004397278962694,5894.8451578932345
0.58,-0.3877541493490075,5901.720488373729
0.584,-0.34385422447253633,5896.757730624823
0.588,-0.277763313924085,5903.572797188313
0.592,-0.20322273820729286,5907.159283600987
0.596,-0.13500333580876106,5900.338048513402
0.6,-0.08543166205124898,5892.831182026799
0.604,-0.06208514737319375,5890.100263081101
0.608,-0.0672845881640491,5892.888981789068
0.612,-0.09898055165534655,5911.725920090113
0.616,-0.1520829006718072,5900.437585324247
0.62,-0.21955213932302275,5883.933575801177
0.624,-0.2932503170711906,5899.383194737631
0.628,-0.36492020869778163,5894.4254818660365
0.632,-0.4273789326825808,5899.359318152075
0.636,-0.47549862491792144,5897.503278742528
0.64,-0.5065229172182166,5893.197348035184
0.644,-0.519760421553572,5897.211995669346
0.648,-0.5160373211512527,5914.943678861853
0.652,-0.4971870287784603,5900.550019773598
0.656,-0.4656909057498283,5897.011810840083
0.66,-0.4245716488716435,5906.059856109059
0.664,-0.3775083893003101,5900.584318192734
0.668,-0.32885783036358607,5902.745856488279
0.672,-0.2832726715805968,5895.346799753951
0.676,-0.24502382069225145,5894.418604067979
0.68,-0.2174115762286295,5892.587147409822
0.684,-0.2024611654879526,5891.190297755181
0.6880000000000001,-0.20081648497150084,5891.421976196664
0.6920000000000001,-0.21172297243916885,5898.167042741671
0.6960000000000001,-0.23308550194463293,5900.8881259492655
0.7000000000000001,-0.2616169653745287,5905.613043584398
0.704,-0.29310547359769223,5902.5120861055775
0.708,-0.3228994639600842,5903.881955258718
0.712,-0.3467606173281241,5899.5226953180845
0.716,-0.3620479619196326,5903.161169687119
0.72,-0.3687464180113645,5892.670107254392
0.724,-0.3695928882424197,5899.714627520943
0.728,-0.3689726238580459,5895.323990909709
0.732,-0.37110741355523696,5901.4815970519685
0.736,-0.37851021471040874,5894.235674067738
0.74,-0.39138973208325045,5905.023766281424
0.744,-0.40812214039094563,5894.16448067649
0.748,-0.42651156137670226,5899.336778801901
0.752,-0.4452804201622114,5897.726222302716
0.756,-0.4650533153749542,5902.242995245719
0.76,-0.48827223271266457,5909.309272514921
0.764,-0.518012462487409,5897.433490387106
0.768,-0.5562327543136926,5897.66079962973
0.772,-0.6022932866832817,5901.081745859303
0.776,-0.652424804347149,5904.21501217785
0.78,-0.7002412401482565,5897.301948990713
0.784,-0.7378127861724747,5902.18662287834
0.788,-0.7568383153662437,5898.402257832928
0.792,-0.7499519600980116,5901.759136375853
0.796,-0.7123635609124177,5903.729906773276
0.8,-0.6435296773381692,5896.889423003069
0.804,-0.5480378467213365,5897.4574431225865
0.808,-0.4350696517177354,5895.616686559507
0.812,-0.31656269654437974,5904.162248205562
0.8160000000000001,-0.20484574017377147,5896.521739282627
0.8200000000000001,-0.11060057433077544,5897.527474793614
0.8240000000000001,-0.041609551833534465,5896.656838227765
0.8280000000000001,-0.0023343660299975024,5903.178945258996
0.8320000000000001,0.005833712084574461,5907.788965288041
0.836,-0.016039989924973064,5903.437352213051
0.84,-0.0649709266794152,5906.979104238175
0.844,-0.1361912684181085,5896.015476556918
0.848,-0.22292655898858343,5901.636556109996
0.852,-0.31611592873847333,5903.064715346873
0.856,-0.4044048095847889,5909.144602412724
0.86,-0.4747919385580924,5902.290341859855
0.864,-0.5143767269066916,5898.449327491539
0.868,-0.5132912230867512,5895.228461690733
0.872,-0.4680718882626372,5897.230794932646
0.876,-0.38412282140694565,5893.452877546431
0.88,-0.27610831498280564,5894.537520872342
0.884,-0.16579926063079312,5900.206746862759
0.888,-0.07753664444052519,5898.882802385776
0.892,-0.03211315291291226,5904.479892820601
0.896,-0.04072191408681906,5892.207451119468
0.9,-0.10120030082060709,5899.197347133952
0.904,-0.19833584281950511,5892.918581468813
0.908,-0.3084510721849368,5903.646384578708
0.912,-0.4066256386261843,5903.108971986879
0.916,-0.47374206427088195,5888.951444958901
0.92,-0.5007186418466469,5894.048405909656
0.924,-0.4887559803109472,5901.608844294234
0.928,-0.44631039943351525,5903.0771599561485
0.932,-0.38472090270321324,5906.161033730137
0.936,-0.31441628574295405,5903.223248837327
0.94,-0.24274609634114952,5904.290662653232
0.944,-0.17353710366319186,5905.466683919545
0.948,-0.10800960763446527,5894.591060445063
0.952,-0.046545912825531055,5907.215941819807
0.956,0.009365040137811618,5904.050107913255
0.96,0.05585933669889132,5905.678164815602
0.964,0.08688173882519701,5903.3483516561855
0.968,0.09609289472634822,5895.346616972758
0.972,0.07986266916866001,5905.825457394869
0.976,0.039816046609150696,5907.9925904707525
0.98,-0.016707616182056063,5902.341719257345
0.984,-0.07885426884114029,5905.0875081611775
0.988,-0.13607516416104357,5898.27833193877
0.992,-0.18153421206660988,5891.719723728418
0.996,-0.2133724427762387,5902.267597203074
1.0,-0.23341945875557416,5908.050012223423
1.004,-0.24436615822055863,5893.854075550111
1.008,-0.24712882902740835,5898.116819499287
1.012,-0.23992594633162168,5899.021536888322
1.016,-0.21968846759459584,5900.255979053725
1.02,-0.18515973924441087,5894.469662771012
1.024,-0.13993334634231097,5901.246052989046
1.028,-0.09349948047587546,5898.899217016912
1.032,-0.0594551653516556,5891.293438826308
1.036,-0.051656647344759984,5900.71910556649
1.04,-0.08004946251717068,5892.783841685623
1.044,-0.1477006369521828,5908.445041471231
1.048,-0.24969692323422196,5892.32954038637
1.052,-0.373841851034737,5906.993668155418
1.056,-0.5027874034025936,5896.654708354488
1.06,-0.6171623115240094,5899.380988968567
1.064,-0.6991156969785428,5900.758955501891
1.068,-0.7355322924509922,5892.97647620108
1.072,-0.7202325515789275,5899.613877026791
1.076,-0.6547255669158212,5898.544932566011
1.08,-0.5473913742457018,5889.953897576288
1.084,-0.4113794520765807,5906.206561616541
1.088,-0.261958691145261,5900.493596705789
1.092,-0.11414551662507397,5899.286315437061
1.096,0.019017388856811153,5900.918913625575
1.1,0.12767697313567497,5894.134514472096
1.104,0.20599939764288258,5897.532256231354
1.108,0.2523171524441499,5894.781467555439
1.112,0.2682177302291882,5897.002472178469
1.116,0.25671605344302634,5899.444210507091
1.12,0.22030259591583748,5909.329891382511
1.124,0.15990269559382014,5895.051294806134
1.128,0.0754205007761246,5893.703063827566
1.132,-0.032275311029221515,5895.950453405829
1.136,-0.15884552624489373,5906.206671808123
1.14,-0.2946521040166597,5902.792909611031
1.144,-0.42462315827411284,5895.797962183743
1.148,-0.5304282861390714,5896.920140837713
1.152,-0.5948430273256746,5902.441954482251
1.156,-0.6070324275545133,5895.952026015242
1.16,-0.5666160969262959,5899.2873802425
1.164,-0.48468901237670436,5900.534494129866
1.168,-0.3813713972894102,5894.295973073201
1.172,-0.280879933551892,5904.8696313513165
1.176,-0.2057228081973172,5893.776005522782
1.18,-0.17152827679369181,5905.94720553933
1.184,-0.18368176120136806,5899.663655488068
1.188,-0.23648207232437515,5904.907957880945
1.192,-0.314890022476696,5897.934358527169
1.196,-0.3983284075417122,5904.871284909769
1.2,-0.4656130982709633,5894.900041739879
1.204,-0.49990166331934466,5896.082826309422
1.208,-0.4924632466791909,5896.712536278244
1.212,-0.4442886224632279,5894.088523592075
1.216,-0.3652933283629189,5907.63625337317
1.22,-0.27180151253880264,5900.0961069732375
1.224,-0.18334397880950037,5886.51978596347
1.228,-0.11933575551981854,5900.810934092278
1.232,-0.09568646001538447,5903.6930400482925
1.236,-0.12153444455939692,5906.810191272634
1.24,-0.1968316466400612,5898.907870654562
1.244,-0.3117156796275249,5902.855815737635
1.248,-0.4480890800102338,5899.439057313093
1.252,-0.5828784406158243,5908.5108399044
1.256,-0.69190424342218,5903.178375110177
1.26,-0.7536536392095119,5897.854366996139
1.264,-0.7529199382767384,5903.792829840737
1.268,-0.6842579641219294,5893.166086229759
1.272,-0.5544887885563612,5899.024106931478
1.276,-0.3830401696964665,5905.744706194234
1.28,-0.19934354360244444,5898.180877718261
1.284,-0.037498081647675034,5906.259238299037
1.288,0.0706079051087717,5895.438193088296
1.292,0.10190594105829397,5890.609211553485
1.296,0.0467441946688087,5884.421083878617
1.3,-0.0893820528525366,5894.726921211888
1.304,-0.28668428959883296,5895.757220029828
1.308,-0.513755555937852,5896.135326077007
1.312,-0.7317074099523129,5903.868065822591
1.316,-0.8999727406533804,5903.561901269555
1.32,-0.983746994995451,5906.332232138804
1.324,-0.9618383067345856,5901.562366599158
1.328,-0.8324920006635949,5908.721901266457
1.332,-0.6148074928458384,5902.573062338817
1.336,-0.34488587002792637,5900.837996140903
1.34,-0.06783864777961957,5902.877501772355
1.344,0.17188037783832838,5900.492913382276
1.348,0.3391756493567275,5901.174522426154
1.352,0.4141911231352232,5897.939405349081
1.356,0.3946587500084904,5904.788021183034
1.36,0.29479026299515226,5900.105852430625
1.364,0.14108148813243196,5903.419008350701
1.368,-0.03429602242178992,5900.504893672399
1.372,-0.2011141593492263,5902.513186514982
1.376,-0.33756997749721346,5893.002532951017
1.38,-0.43358365017316236,5896.02354992562
1.384,-0.4901250985321716,5901.154925363321
1.388,-0.5154864567158056,5900.1943272345
1.392,-0.5204438663742201,5904.643919698784
1.396,-0.5140646577246393,5895.6023988764455
1.4,-0.5009969130174418,5902.379598335641
1.404,-0.4803593134601041,5891.461680926098
1.408,-0.44622442088242104,5898.773093148005
1.412,-0.3897435485800867,5890.372396910298
1.416,-0.30264747450588186,5893.283228258724
1.42,-0.18118347958075842,5898.003951830127
1.424,-0.029069862469343483,5897.813309885622
1.428,0.1417168840411412,5906.796371917344
1.432,0.31261128665801746,5898.533942937584
1.436,0.46189889926637967,5898.870718734273
1.44,0.5687767672293257,5903.148719173496
1.444,0.617050369913202,5901.777746335441
1.448,0.5979261057959494,5893.2564178621615
1.452,0.5116813941733556,5900.608085711926
1.456,0.36810297214096566,5905.378645231851
1.46,0.18559303990851944,5902.033613695928
1.464,-0.01110537477964097,5897.265899278818
1.468,-0.1944115590275445,5898.407509505802
1.472,-0.33818818073105217,5905.063341810289
1.476,-0.42216374305346194,5893.6260119042745
1.48,-0.43586006309901115,5898.580376780077
1.484,-0.3813644133594259,5894.279808462209
1.488,-0.27409165974966576,5896.304185813486
1.492,-0.14065019663901138,5897.961431403794
1.496,-0.01359900370916889,5898.632352699916
1.5,0.0758045258304845,5900.803098182272
1.504,0.1047073154966751,5906.057755241531
1.508,0.06351195714339301,5899.378444716063
1.512,-0.04254542156337123,5899.129029123125
1.516,-0.19493883914706409,5906.965107861994
1.52,-0.36585603066922623,5908.40688932467
1.524,-0.5240231981864591,5907.442149581548
1.528,-0.6415909557521191,5903.370425000689
1.532,-0.7007598190024874,5895.454662048631
1.536,-0.6982759278389267,5897.059416734702
1.54,-0.6460442148414363,5898.894889319828
1.544,-0.5671125117311212,5898.457853867591
1.548,-0.4879327367453387,5901.877912949458
1.552,-0.42949392653423063,5900.583480661017
1.556,-0.40071345385073975,5902.771575654099
1.56,-0.3966451552403713,5896.730433583819
1.564,-0.4019374567019155,5902.066380486423
1.568,-0.3978253359061384,5902.097147882574
1.572,-0.3698241120956795,5892.992125497724
1.576,-0.31333506068836997,5904.992394244715
1.58,-0.2352313418557666,5900.969042919432
1.584,-0.1508924624162821,5896.673750673867
1.588,-0.07780159353493975,5906.230145120217
1.592,-0.028263502550793945,5905.069168060563
1.596,-0.004425991599489875,5897.154280626919
1.6,0.002089011075393939,5899.999009628766
1.604,0.005986914168412148,5899.732088664902
1.608,0.021956533450127037,5912.991526249819
1.612,0.05927313134414634,5904.195850956573
1.616,0.11921178770067499,5904.08742807288
1.62,0.1953523176994596,5904.273169805023
1.624,0.27580319358514876,5897.019982575561
1.628,0.3462511214404737,5898.508797533509
1.632,0.39301922137105816,5894.141378844177
1.636,0.40558941792631864,5893.185007221288
1.64,0.3783130588587843,5896.474138849123
1.644,0.31125903417424705,5899.04105510324
1.648,0.2101725084578239,5900.418532517302
1.652,0.08547385834260249,5893.950958308378
1.656,-0.049560359822269216,5896.588976698215
1.66,-0.18089730864720535,5896.389799197611
1.664,-0.29548221073435027,5906.866714049691
1.668,-0.3823417268134684,5898.797995365835
1.672,-0.43329438893254907,5889.349099450244
1.676,-0.44364157136735244,5900.00569323263
1.68,-0.41291279832636263,5890.297967342255
1.684,-0.34535840778159815,5903.448541874784
1.688,-0.24977187321898203,5896.577723640699
1.692,-0.13844464263257153,5894.482610286008
1.696,-0.025433174206815384,5900.217967941155
1.7,0.07539537876914924,5899.256393254909
1.704,0.15205847509170978,5909.449498925972
1.708,0.1956786752339617,5899.906729037894
1.712,0.20133466150771967,5893.494742115635
1.716,0.1687185079146357,5894.230719030806
1.72,0.10252874919942037,5899.093911381203
1.724,0.012252001647074575,5892.574386753656
1.728,-0.08901092403580979,5892.488628054592
1.732,-0.18668474524422374,5899.324751677879
1.736,-0.2673385574002909,5898.098844277671
1.74,-0.32096939485934367,5898.296822730455
1.744,-0.34233159266480995,5902.8114388855065
1.748,-0.3313086111837052,5894.335625218319
1.752,-0.29270352981974496,5901.0045397744725
1.756,-0.23558290131125276,5891.954165269463
1.76,-0.1719520465578263,5904.7674915370735
1.764,-0.11474022422945912,5898.815972348056
1.768,-0.07559858056219906,5901.999739815548
1.772,-0.06309504281093894,5897.844812714759
1.776,-0.08150371231690877,5896.663346779595
1.78,-0.13019635202784996,5899.976932609661
1.784,-0.20377432672625287,5903.179656058856
1.788,-0.2930372240680499,5904.28599495932
