时间(s),电压(V),幅值(高频80K)
0.0,-0.09554375007989624,5901.691335228084
0.004,-0.09271630800116433,5905.746827443397
0.008,-0.09207739046129972,5908.293353734302
0.012,-0.09446408217960771,5906.898044681381
0.016,-0.09811007196603581,5901.859835492209
0.02,-0.09983921564474492,5900.147031966173
0.024,-0.09657615972047308,5893.707445174985
0.028,-0.08636048172516977,5898.904212493574
0.032,-0.06917997757518973,5898.444169900388
0.036,-0.04763042805542217,5898.224359788571
0.04,-0.02625225809013678,5900.012959597458
0.044,-0.008666273114461946,5899.928761334564
0.048,0.006129385160074603,5907.407867427574
0.052,0.025158240646927923,5901.651878673188
0.056,0.05856433299227389,5893.996058529742
0.06,0.11372626171055777,5904.302970411743
0.064,0.18996872630428874,5899.372884794116
0.068,0.2767968314536292,5909.309942416704
0.072,0.3562175302197258,5898.729815236759
0.076,0.4078384978280118,5891.143076528751
0.08,0.414792033805604,5893.921806287166
0.084,0.36864558098791833,5899.373215401615
0.088,0.2718791296906805,5896.889291155865
0.092,0.13719889803561322,5903.953458869254
0.096,-0.015964881245722946,5906.241310946075
0.1,-0.16629223866222237,5903.676438894594
0.104,-0.2949189264359958,5898.934996126704
0.108,-0.3882197423135771,5894.50878317476
0.112,-0.4389469257861749,5901.99263806114
0.116,-0.4460623935014312,5902.907946895316
0.12,-0.4136513123245621,5905.2824782942
0.124,-0.34949514484405025,5891.688639526569
0.128,-0.264047695487647,5897.501894837828
0.132,-0.17013708944957495,5908.84505880238
0.136,-0.08279692353057436,5901.573282067531
0.14,-0.018096032964784108,5895.394512388741
0.144,0.009668646118629715,5902.09626956071
0.148,-0.00816184808022314,5901.368298945574
0.152,-0.07134201731966427,5904.486911007997
0.156,-0.16988044161161603,5900.481551716908
0.16,-0.2864224594748685,5906.534403242763
0.164,-0.40105563982713566,5893.567024682672
0.168,-0.49670134032131613,5894.191592041465
0.172,-0.5633307480628869,5900.519949932344
0.176,-0.5999526396045305,5900.446114553989
0.18,-0.6139392413647025,5892.032520344191
0.184,-0.6177433878541592,5897.431073474209
0.188,-0.6238560695378776,5901.0025804208535
0.192,-0.6398261607473044,5902.475726386125
0.196,-0.6654646469029031,5904.146228777
0.2,-0.6935026746490874,5891.380902238463
0.204,-0.7134364276528969,5903.938079863277
0.208,-0.7169078972722353,5905.282937701315
0.212,-0.7022737047925136,5906.2441521759465
0.216,-0.6762522118374481,5904.071137537377
0.22,-0.6518030393891117,5894.058782364258
0.224,-0.6432146887469332,5903.247319169526
0.228,-0.6606416297140267,5895.483697855451
0.232,-0.7063046522957259,5902.969243250055
0.236,-0.7736040101852955,5905.192275433958
0.24,-0.8492203252705733,5894.086335906955
0.244,-0.9172650678994833,5904.861270592915
0.248,-0.9639373082067465,5895.179829017165
0.252,-0.9811486807274875,5896.075051787682
0.256,-0.9680502930844834,5904.626858366176
0.26,-0.9300335160556735,5889.791364985614
0.264,-0.8755277557794053,5895.079095310388
0.268,-0.8117853821527846,5889.492900056839
0.272,-0.7414436966974254,5903.651399745107
0.276,-0.6614513545478778,5900.047721233793
0.28,-0.5649355108352705,5901.728126557516
0.284,-0.44528978259917534,5899.235911993106
0.288,-0.3007264178750376,5899.446928971539
0.292,-0.13724250126793752,5893.851994203061
0.296,0.031261841617020156,5895.554295962041
0.3,0.1854982483326046,5899.388639946738
0.304,0.3046629230192219,5899.313891994008
0.308,0.3704037813784135,5896.510466241661
0.312,0.3702222913551097,5903.325081100616
0.316,0.30007427383939234,5906.913076247568
0.32,0.16596099163233752,5899.274411041078
0.324,-0.01594646114657893,5893.878813883778
0.328,-0.22134588618789058,5887.294222872542
0.332,-0.42231235610244083,5901.298917209847
0.336,-0.5932652929644222,5903.613697938495
0.34,-0.7160971052174132,5899.93207063107
0.344,-0.7823943950348643,5897.347020539337
0.348,-0.7925266797240271,5898.775946112412
0.352,-0.7531875615195661,5907.204498040436
0.356,-0.6752008796356354,5900.853552724925
0.36,-0.572216754238677,5897.763334834102
0.364,-0.45969744380642363,5901.438481927735
0.368,-0.3533868184878666,5897.5138823097805
0.372,-0.2671773457396549,5906.932537598874
0.376,-0.21096760894236413,5907.109701806236
0.38,-0.18900693122557,5902.478260148233
0.384,-0.19870813467159537,5894.178428517352
0.388,-0.22983551928623566,5905.577364725931
0.392,-0.2645215088490476,5901.170545754902
0.396,-0.2790877841144656,5909.56896673219
0.4,-0.24845783544618272,5906.306860893569
0.404,-0.152887774545377,5904.845004131511
0.408,0.014803307069799262,5899.151763952877
0.412,0.2444985514214831,5902.408319740621
0.416,0.5092365998818957,5899.376278681066
0.42,0.7713424599467108,5900.807492891428
0.424,0.9918319188144562,5902.180597933429
0.428,1.1391962913013907,5890.369082253779
0.432,1.1945746656369387,5905.630268839877
0.436,1.1526682508847488,5898.781177059833
0.44,1.0197833200954718,5888.167233348885
0.444,0.8109372657968265,5903.3479413524565
0.448,0.5470630020211756,5900.747786519783
0.452,0.25212677730444355,5907.1834846692445
0.456,-0.05026379199767774,5901.184973025328
0.46,-0.34026485223947006,5896.556564208032
0.464,-0.603825072543419,5896.454422907632
0.468,-0.8323007037187591,5895.038047944745
0.472,-1.02012017166572,5902.0828848512165
0.476,-1.16233138817746,5903.629189073002
0.48,-1.25391187760875,5894.977118286046
0.484,-1.291391411052489,5906.367445260718
0.488,-1.2756797811365186,5893.491276064859
0.492,-1.2141945862867456,5894.282806494321
0.496,-1.1208504188161714,5902.059660229214
0.5,-1.0137298724806727,5905.070565351262
0.504,-0.9114205847144535,5903.816553494487
0.508,-0.8293359664187064,5895.6238800179335
0.512,-0.7768096063186178,5898.715021613292
0.516,-0.7551223798428768,5897.551244376945
0.52,-0.7566352055392263,5892.937254552112
0.524,-0.7656525409874214,5896.855654755884
0.528,-0.7616263284255189,5903.27072957277
0.532,-0.7244654423284965,5903.004402755968
0.536,-0.6406144480993117,5893.934345487218
0.54,-0.5079032382012778,5899.472284450597
0.544,-0.33728591098749044,5899.013411285135
0.548,-0.15058585040121913,5906.870293191327
0.552,0.025023081178261325,5903.98327365601
0.556,0.1636568381153878,5899.079966386273
0.56,0.24611234271432586,5913.9289638640885
0.5640000000000001,0.2627953713888948,5904.363029829367
0.5680000000000001,0.21439783389724218,5905.460844595465
0.5720000000000001,0.11101317003257127,5896.443643183873
0.5760000000000001,-0.029872356558409887,5894.122877290713
0.58,-0.18612752734092033,5908.683695908112
0.584,-0.33397418006909607,5894.717069586714
0.588,-0.45105712761625344,5898.213088027522
0.592,-0.5198044708146239,5903.372459069323
0.596,-0.5309620947430078,5899.22150839611
0.6,-0.4863024988220251,5901.032645245734
0.604,-0.39915456894092166,5892.674142597515
0.608,-0.292056052277179,5892.155266718753
0.612,-0.19187410654665016,5904.762393500461
0.616,-0.1235017380955331,5906.701249340554
0.62,-0.10374201569554173,5892.776102259183
0.624,-0.13727324394157991,5909.044132594502
0.628,-0.21611908927975795,5904.097364819919
0.632,-0.322667524767625,5897.550804696612
0.636,-0.4348862233820204,5907.136119977538
0.64,-0.531815867115421,5897.860440736582
0.644,-0.5976418390978072,5901.985272833758
0.648,-0.6234060871128458,5901.255151078417
0.652,-0.6065486408158497,5900.237245048683
0.656,-0.5493517065363226,5903.103266439016
0.66,-0.45741184170817345,5904.182412390262
0.664,-0.3387193657281206,5906.9383842399175
0.668,-0.20336959806524335,5891.628951584994
0.672,-0.06352037781166872,5898.363873053758
0.676,0.06707089604490053,5901.17707418376
0.68,0.17445746058153866,5897.274933200882
0.684,0.24671191939872122,5901.817358049107
0.6880000000000001,0.276084500156953,5902.6016188503145
0.6920000000000001,0.26013191624379367,5899.442105171111
0.6960000000000001,0.20144025156916393,5901.801946949492
0.7000000000000001,0.10652879323412397,5896.76540439151
0.704,-0.015046268042574314,5896.027859709715
0.708,-0.15102092769422834,5895.910914944768
0.712,-0.2868274126484907,5890.225346323959
0.716,-0.4069684132003049,5907.284562537774
0.72,-0.497643751206504,5895.729813510832
0.724,-0.5500326825353072,5899.113230527031
0.728,-0.5629158265669172,5896.765267628694
0.732,-0.543084188020651,5896.513302979783
0.736,-0.5026724172687438,5898.180829377084
0.74,-0.45416303640635436,5888.592380304567
0.744,-0.40535264236574586,5889.856869324228
0.748,-0.3568147836192349,5906.458913123809
0.752,-0.303162701021582,5889.730472116651
0.756,-0.23767308892554323,5902.984547809264
0.76,-0.1584675440816263,5898.127352247149
0.764,-0.07358235295236536,5899.523060515677
0.768,-0.001978809724325536,5902.441553415079
0.772,0.03138518107650643,5899.956856049295
0.776,0.005442151264485327,5900.9917616320445
0.78,-0.08639057437738487,5903.026981036441
0.784,-0.2302974358931103,5899.765184766782
0.788,-0.3940602163797046,5898.325332402073
0.792,-0.5361994999969601,5907.007060474688
0.796,-0.6183352628477898,5893.424381274371
0.8,-0.6161063068107957,5899.558284328048
0.804,-0.5253478723981827,5895.146904263324
0.808,-0.3623740189660821,5908.9957139019225
0.812,-0.1591876606313856,5905.136567527425
0.8160000000000001,0.04429264638814549,5907.717637000934
0.8200000000000001,0.20873969454578858,5902.60011875386
0.8240000000000001,0.3031005810888275,5894.039097928899
0.8280000000000001,0.310498824625519,5899.7468367451065
0.8320000000000001,0.231410571781484,5904.076491079852
0.836,0.08321114468550787,5898.902990093421
0.84,-0.10396367434498119,5903.7581638403335
0.844,-0.2937931790463207,5900.157667490452
0.848,-0.45089608958338967,5902.030240205629
0.852,-0.5471018506986365,5896.499521118068
0.856,-0.5664117376987997,5904.17780363655
0.86,-0.5084964698781601,5908.539546485418
0.864,-0.38986427895625453,5903.455180291464
0.868,-0.24120942217330701,5908.902378377048
0.872,-0.1003821047656602,5897.170697197443
0.876,-0.0026421679298654715,5905.063198317302
0.88,0.02853046931579545,5902.672535841552
0.884,-0.012949654458916588,5904.314382527955
0.888,-0.11516617520496082,5899.263239770356
0.892,-0.2522692070062624,5896.825303740989
0.896,-0.3915347600314466,5883.370992483837
0.9,-0.5010683891869804,5898.757100650412
0.904,-0.5561609791244397,5912.75737716872
0.908,-0.5434477974492101,5907.564133962414
0.912,-0.46289575058121135,5892.657349707592
0.916,-0.327530626669903,5901.023210438425
0.92,-0.16044745628863674,5899.955703980957
0.924,0.010727587355657176,5903.195824870007
0.928,0.16030101534803598,5900.692499868123
0.932,0.26958718206589555,5894.713514742485
0.936,0.32919124726721033,5896.870641942009
0.94,0.33859230923342243,5891.48298790798
0.944,0.30395203837771473,5907.781588406253
0.948,0.2352358056725513,5902.860400249347
0.952,0.1436321737259695,5903.807084484798
0.956,0.039850858420832545,5899.251467747722
0.96,-0.06674532738993165,5906.503214922337
0.964,-0.16859092633153852,5900.752887148766
0.968,-0.2602384480102004,5902.688150845735
0.972,-0.3384608556250593,5892.12435148045
0.976,-0.4019094305607379,5900.332802662022
0.98,-0.4503530819148647,5905.106060021269
0.984,-0.4837524636214616,5901.132257355224
0.988,-0.5013885453563038,5902.460055882202
0.992,-0.5013302943218282,5892.352568433246
0.996,-0.48076183212851964,5903.178980645143
1.0,-0.4375185154087774,5894.903192769421
1.004,-0.3723842470333181,5901.284857139872
1.008,-0.29094353693133607,5898.915466785247
1.012,-0.20382448949115117,5896.783070812528
1.016,-0.1250192335899201,5898.098645615349
1.02,-0.06888752937280007,5901.692078496336
1.024,-0.04677525976219016,5900.313011194574
1.028,-0.06410092542757811,5897.483622847437
1.032,-0.11880440438698854,5898.182049757881
1.036,-0.2019426005190478,5904.398729390265
1.04,-0.30034185866310303,5902.50538244867
1.044,-0.40004192920692994,5901.115119488575
1.048,-0.4889842282513688,5901.948955320216
1.052,-0.5582533999439769,5904.686580828646
1.056,-0.6022480875908122,5905.0190717776695
1.06,-0.6185439111632542,5888.594113745275
1.064,-0.6077761148861088,5908.576629012402
1.068,-0.5732058130859965,5904.601861909112
1.072,-0.519600325350691,5897.838855532079
1.076,-0.45171131711855217,5901.848055361656
1.08,-0.3730870969239028,5902.2163531486
1.084,-0.28578396380831006,5905.177633754715
1.088,-0.19120270454495522,5909.929816373997
1.092,-0.09192014914230062,5899.328478504225
1.096,0.006311271536606358,5902.800963171609
1.1,0.09397503109792002,5904.4629575168265
1.104,0.16001291172643134,5896.748733591569
1.108,0.1966672606818923,5900.449411710556
1.112,0.20462931689729957,5900.366080852639
1.116,0.1952039084961623,5899.812623451424
1.12,0.18736244458925266,5906.293318597899
1.124,0.20021745087976717,5895.695427388484
1.128,0.24396944959244354,5903.4606305197085
1.132,0.313486124192187,5898.980355850912
1.136,0.3879760270387698,5894.088928490963
1.14,0.43782660048679545,5902.39900354725
1.144,0.4362872280339956,5891.865846495186
1.148,0.37092945432467744,5908.703070474858
1.152,0.2495907381972549,5902.375090602273
1.156,0.0981756017882762,5911.390569012727
1.16,-0.04854997694730527,5907.205614880498
1.164,-0.1593405599966512,5898.430400663535
1.168,-0.21728071633820217,5903.782768427887
1.172,-0.2249370275587556,5888.265461506145
1.176,-0.20192054634562315,5900.2143380609095
1.18,-0.1760869768832806,5905.286785960505
1.184,-0.17237575078622727,5906.550714117412
1.188,-0.20412733171734876,5898.805078882068
1.192,-0.2700990493805961,5897.150241582646
1.196,-0.3573104558333621,5907.792388985351
1.2,-0.44719118069622604,5897.1765441391335
1.204,-0.5217655353475231,5903.359408564707
1.208,-0.5677563641518772,5908.688789946568
1.212,-0.5782024208690959,5899.896065009351
1.216,-0.5522763491651848,5897.277120827563
1.22,-0.49427778145019396,5895.665312991553
1.224,-0.4125228217674551,5894.5825414475
1.228,-0.3182678669486046,5905.281864259463
1.232,-0.22429075595147188,5907.491257098851
1.236,-0.14280233611979193,5895.041132016787
1.24,-0.0830129970574443,5907.353121361422
1.244,-0.049352857146321184,5905.273168261207
1.248,-0.04129478804198772,5906.859789770654
1.252,-0.05485184014749984,5887.269558750068
1.256,-0.08496150566421105,5903.422457191646
1.26,-0.127875886928814,5900.264570431677
1.264,-0.18295020052040084,5889.1747104243805
1.268,-0.25311340262994775,5904.369549106418
1.272,-0.34311886868513664,5896.905778836072
1.276,-0.4554298687609864,5892.6064169826695
1.28,-0.5853871051786804,5896.857842075751
1.284,-0.7186874093911021,5902.26077857842
1.288,-0.8335595834168587,5904.345205225934
1.292,-0.9074678312478915,5892.864933921127
1.296,-0.9256005994335705,5907.035683991645
1.3,-0.8874725362545921,5899.974259175321
1.304,-0.8087805806625288,5891.521360034992
1.308,-0.7175113727531794,5896.740400817133
1.312,-0.645466492251746,5902.9275034182665
1.316,-0.6180324204394468,5901.322934573443
1.32,-0.6455853433692889,5894.611478998071
1.324,-0.7194078422916529,5899.230222698155
1.328,-0.8136784145208558,5901.476453286468
1.332,-0.893161913155837,5898.424524920314
1.336,-0.924066998513828,5905.212404015472
1.34,-0.8840985710784809,5892.801870410203
1.344,-0.7680964005975882,5897.495368118142
1.348,-0.5878921162460031,5897.999194577247
1.352,-0.3677661118813444,5895.386581607629
1.356,-0.1383524403255011,5890.136513204531
1.36,0.0686773267459564,5908.520124873738
1.364,0.2244726261074078,5899.733130689939
1.368,0.30606999916848177,5885.842248496568
1.372,0.2995354254386821,5899.663104655602
1.376,0.20321204862153844,5894.909651341572
1.38,0.029919838560346853,5899.733320135125
1.384,-0.1935937242672526,5905.477441682121
1.388,-0.43090684507987265,5901.459886717933
1.392,-0.6432499357920104,5906.079530388836
1.396,-0.7980391786509881,5886.467826277691
1.4,-0.876358935756471,5896.054923014007
1.404,-0.8772173250451581,5890.725339098909
1.408,-0.8169555377362694,5896.522264040374
1.412,-0.7236708190770439,5902.866802183316
1.416,-0.6285142168327211,5897.543237332018
1.42,-0.5568601253755587,5900.712417212698
1.424,-0.5218258973819044,5902.269085658964
1.428,-0.5212037265842329,5897.871343521379
1.432,-0.5378926669232762,5902.213292922158
1.436,-0.5437760731752704,5914.756920869617
1.44,-0.5068253101057095,5889.926824471335
1.444,-0.40024676254364594,5901.338823439058
1.448,-0.2112570188818704,5891.267478961809
1.452,0.05328256424075356,5894.782342542086
1.456,0.36629040901158455,5899.274433388938
1.46,0.6853016944012236,5907.182288518241
1.464,0.9613781052346485,5899.772474367933
1.468,1.1496173530516478,5903.20422558541
1.472,1.2187879564596855,5900.402998169956
1.476,1.1583612359711726,5899.023413542974
1.48,0.9816944838200435,5895.475604333798
1.484,0.7242229976941019,5902.416793692871
1.488,0.4362145435816395,5898.154859472335
1.492,0.17135460230857055,5900.5182925889285
1.496,-0.02578191094375564,5907.053846004179
1.5,-0.1296361208306474,5902.718344372833
1.504,-0.13801410488158827,5907.185886515572
1.508,-0.07000451766890269,5906.391134367003
1.512,0.040915988153661695,5899.885351809003
1.516,0.15553579662682906,5897.462181545988
1.52,0.2368031859297595,5904.055054029865
1.524,0.25603512495483605,5893.846532582124
1.528,0.1974070645960913,5891.034856285553
1.532,0.060474762816757115,5899.821112937831
1.536,-0.1397779076317261,5910.862727795158
1.54,-0.3754783958413727,5908.732372688556
1.544,-0.6104740693836128,5900.151588086082
1.548,-0.8061497027307103,5902.167488782727
1.552,-0.9276631556405434,5892.484138891198
1.556,-0.9500713421186068,5901.21225205085
1.56,-0.8637270631273013,5902.381438759252
1.564,-0.6776881204977935,5896.992012459952
1.568,-0.41950979239637276,5900.533259467282
1.572,-0.13061826539043245,5904.641394348782
1.576,0.1418264237295436,5900.442003237135
1.58,0.35441028003248354,5904.968337564938
1.584,0.4761326314700427,5890.619837486084
1.588,0.4947547736660882,5891.125412103427
1.592,0.41958268362215073,5898.39632005636
1.596,0.27955602219316256,5898.442957075852
1.6,0.11647089073966362,5903.496222280952
1.604,-0.025213106822370407,5905.372557962884
1.608,-0.10934362513207596,5893.842683723462
1.612,-0.11694555451148404,5901.155179185036
1.616,-0.0506763717066391,5900.491870974834
1.62,0.0662355218685999,5900.784781991402
1.624,0.19614307274893758,5901.212731980123
1.628,0.2965241987757272,5900.063531211968
1.632,0.3305744315715433,5896.6029954021205
1.636,0.27643296577369764,5899.140636824266
1.64,0.13284461487368773,5901.362272285257
1.644,-0.08043605488757391,5903.544861551112
1.648,-0.32799371227374824,5900.743922243896
1.652,-0.5684140224802172,5908.554110671803
1.656,-0.7651195124047486,5908.184831791591
1.66,-0.8949744208292645,5894.31289633918
1.664,-0.9525119937455743,5905.831430960359
1.668,-0.9493036694989844,5897.003647602028
1.672,-0.9089868973251021,5906.932883494552
1.676,-0.8589872388833854,5896.823382598926
1.68,-0.8209507975949185,5899.599281903764
1.684,-0.8032083563059114,5903.929287239315
1.688,-0.7986970800054951,5897.681098487676
1.692,-0.7896565979609809,5907.544878057435
1.696,-0.7570537815229774,5898.313695731332
1.7,-0.690292854746363,5896.170364258313
1.704,-0.5928776383894868,5889.795338838215
1.708,-0.4819201271165949,5909.383313878901
1.712,-0.3820728491635727,5904.463877759881
1.716,-0.31643223062555365,5895.82567819594
1.72,-0.29803073416903453,5902.919651114739
1.724,-0.3254394493314792,5895.593403441911
1.728,-0.3842409665879435,5893.326306741517
1.732,-0.4533034728827473,5904.516140724454
1.736,-0.5127131251686237,5896.9709407788405
1.74,-0.5500235648635371,5895.100845139062
1.744,-0.5625969289825443,5891.643724285556
1.748,-0.5554346193849066,5899.606175233914
1.752,-0.5358864135224028,5899.75738298801
1.756,-0.5083083978103865,5900.427593468085
1.76,-0.47169706080879586,5900.880292584682
1.764,-0.421324407897272,5892.720481987459
1.768,-0.35299517670398906,5902.615489267715
1.772,-0.26729969895322886,5902.091648180005
1.776,-0.1714603920379026,5890.416286342566
1.78,-0.07765967151015463,5902.094881670861
1.784,0.0014130236251991377,5902.934192879518
1.788,0.05742188638920349,5901.22177997024
1.792,0.08889172447220321,5893.067385986004
1.796,0.09989673148325766,5902.389060082696
1.8,0.09569190489156786,5912.25027764372
