时间(s),电压(V),幅值(高频80K)
0.0,-0.3632448616766187,5899.745573736415
0.004,-0.2543937186466845,5892.201538768275
0.008,-0.1351527342856963,5898.709415010521
0.012,-0.00041790464297454934,5901.3372688797845
0.016,0.14433628119209507,5895.6384707868565
0.02,0.28143843967871723,5907.716656881083
0.024,0.38453722135084173,5897.252388363804
0.028,0.4266852820495132,5900.578580469585
0.032,0.3899552532257076,5893.045223297185
0.036,0.2727498035122018,5899.230960782369
0.04,0.09206290893481726,5901.005682309143
0.044,-0.1200100144606671,5891.607714721788
0.048,-0.32427824876985,5903.543831723908
0.052,-0.48442964378018155,5898.75759266167
0.056,-0.5757802193298046,5903.029694295087
0.06,-0.589915385021312,5898.1841983567065
0.064,-0.534045949150403,5896.9149563600495
0.068,-0.4263631713835344,5901.04209513634
0.072,-0.2901326669098259,5905.992204737312
0.076,-0.1487850383601684,5893.870547166209
0.08,-0.022729777987326064,5900.989792648183
0.084,0.07253568857791264,5896.392271572621
0.088,0.12765099797203466,5907.095865170235
0.092,0.14013755873441056,5898.428554140016
0.096,0.1143939736945131,5905.106339292223
0.1,0.060618690878703946,5898.735914395995
0.104,-0.007432325802398716,5898.474601266403
0.108,-0.07566567521024482,5909.134641100858
0.112,-0.13321257748465865,5900.317434785907
0.116,-0.1750791467222283,5903.69635540474
0.12,-0.20250057814245515,5908.34713572101
0.124,-0.2205953068098524,5909.316387403281
0.128,-0.2345742175418887,5897.351145296066
0.132,-0.24675940199320323,5901.746192247618
0.136,-0.2560341858668205,5907.039782628183
0.14,-0.2595998886927814,5899.607260768072
0.144,-0.2556444702591964,5904.305258188259
0.148,-0.2455719487069541,5891.38444246258
0.152,-0.2350603018159168,5901.456873610261
0.156,-0.23350713030078338,5906.205272898119
0.16,-0.25160262124748994,5894.578127789526
0.164,-0.2974094417115872,5902.056768903487
0.168,-0.37223016908933243,5889.303831147255
0.172,-0.4680081529534423,5898.947040589135
0.176,-0.567652231023044,5900.581210636061
0.18,-0.6486175398249044,5900.89554413532
0.184,-0.688805598258143,5908.913507149974
0.188,-0.6730107221336007,5897.9955095346095
0.192,-0.5979605662669454,5911.58904869324
0.196,-0.47418625063886116,5892.825896812109
0.2,-0.3235787089323984,5902.574655602908
0.204,-0.1730155025975176,5892.990358384411
0.208,-0.046424831180836366,5894.9328198214325
0.212,0.04143606736518309,5906.2297905895775
0.216,0.08722358198196055,5901.589717653619
0.22,0.0971277133064185,5909.392684014183
0.224,0.08246030584240657,5893.365290591443
0.228,0.05486148155873438,5905.511462437773
0.232,0.022889518775523515,5905.55798086629
0.236,-0.009024043192515088,5899.904982893898
0.24,-0.039245012975998264,5893.240382187808
0.244,-0.06633316889510847,5893.660504748776
0.248,-0.08708434698967227,5901.227025951858
0.252,-0.09689379653853895,5896.016298052137
0.256,-0.09254003007300843,5906.545141226935
0.26,-0.07555874707163059,5902.351766162672
0.264,-0.0536726916034065,5902.665339517189
0.268,-0.03887319361119428,5900.654705491931
0.272,-0.04278725143425579,5899.536505138407
0.276,-0.07146262155251172,5895.697786651916
0.28,-0.12197373557205246,5893.960799093909
0.284,-0.1825397165459144,5899.502847697634
0.288,-0.23652955509724513,5901.4765622188
0.292,-0.26905509121939625,5892.863163298564
0.296,-0.27348549216811335,5899.960322883705
0.3,-0.2550430165262096,5895.958075447909
0.304,-0.2298275945777796,5906.901108696825
0.308,-0.2195244517612993,5898.682354734762
0.312,-0.24382863767011606,5900.631289555816
0.316,-0.3135113122919772,5897.530374983212
0.32,-0.42661349275147026,5897.8245065002375
0.324,-0.5687577949412433,5903.743493204711
0.328,-0.7169068676009037,5896.841022264584
0.332,-0.8449036951432891,5894.370390682631
0.336,-0.9290560033584007,5899.42325706756
0.34,-0.9525805628173839,5903.782323633184
0.344,-0.9083935795166826,5897.746710399346
0.348,-0.8001026755197956,5903.484676042363
0.352,-0.6411339561741511,5895.141943440196
0.356,-0.4521337173071722,5901.376023924921
0.36,-0.2572825487109158,5904.590951991831
0.364,-0.08053899897833695,5895.358932422757
0.368,0.05732481229340387,5895.697987139931
0.372,0.14061656009937232,5890.096679789802
0.376,0.15977919885276637,5903.671777612849
0.38,0.11195574780506906,5895.269092204337
0.384,0.0013140544564361751,5899.03782682893
0.388,-0.16071083600966807,5902.050684263314
0.392,-0.3553638720675568,5899.835720022456
0.396,-0.5572501056393738,5905.117622675553
0.4,-0.7364622775385073,5902.244231675719
0.404,-0.8625824531399499,5900.074615360592
0.408,-0.9104006147572306,5904.542265620405
0.412,-0.8663227095278206,5897.209295026138
0.416,-0.7334332885159739,5903.253349259069
0.42,-0.5328250174038197,5908.235207172924
0.424,-0.29983350053992125,5903.920301437878
0.428,-0.07588948566407157,5897.136726056525
0.432,0.10138697982318723,5898.186727291498
0.436,0.20660810830840431,5900.841755140233
0.44,0.23122203326380178,5899.995119572223
0.444,0.1836092831962071,5899.584812868609
0.448,0.08538384766336451,5907.431764478359
0.452,-0.03461172904998713,5900.390828193369
0.456,-0.14693399791506384,5897.743015546363
0.46,-0.22737496268113414,5902.443850552111
0.464,-0.261049658693266,5904.283843105112
0.468,-0.24414915432083778,5901.443934258132
0.472,-0.18315255555525814,5903.348484764065
0.476,-0.09197360390443077,5898.307565073217
0.48,0.011673623522713342,5894.397413985844
0.484,0.10929064515706509,5903.067796283592
0.488,0.18354684427000303,5900.626092209114
0.492,0.21980129221942127,5897.396296876971
0.496,0.20794304824534615,5910.65849351923
0.5,0.1446379863010325,5894.411574117166
0.504,0.03540753269279316,5905.65528190368
0.508,-0.10448700040594885,5906.66145153456
0.512,-0.2515936200547964,5901.284064545754
0.516,-0.3789778699099076,5893.434652733778
0.52,-0.4632676762612575,5904.360135261107
0.524,-0.4914924505051841,5908.101883223154
0.528,-0.4648057468486707,5902.870079885733
0.532,-0.39761768168671774,5888.853099659751
0.536,-0.3127372733165676,5900.017196589881
0.54,-0.23446073174302237,5904.07654686664
0.544,-0.18181406565550365,5903.977109620443
0.548,-0.1637941400595688,5902.722642011901
0.552,-0.1778183738488335,5907.091531430344
0.556,-0.21173972211193404,5903.60058840581
0.56,-0.24869962908076954,5901.83762117047
0.5640000000000001,-0.27306078667267925,5897.4947385086
0.5680000000000001,-0.2752171146862072,5898.388918989159
0.5720000000000001,-0.2535435104725511,5911.292950527213
0.5760000000000001,-0.21299773211433526,5895.788384640684
0.58,-0.16145339831775204,5896.296296947541
0.584,-0.10597613444643057,5900.596819543979
0.588,-0.051174101120382405,5892.989628955649
0.592,-0.00031898513963947114,5902.9756598671
0.596,0.04199518143346607,5902.9133015583775
0.6,0.06798637239080194,5899.806126242687
0.604,0.06742932798236781,5901.895636614591
0.608,0.03109674399613778,5908.7455042588
0.612,-0.044703767149057924,5905.600182372469
0.616,-0.15467187474072777,5898.637634559399
0.62,-0.2837157938970604,5902.564836191581
0.624,-0.4093497051725243,5892.355982042995
0.628,-0.506883934918202,5895.672142795949
0.632,-0.5561245417400021,5904.527729135523
0.636,-0.5475075377418424,5894.6815160505375
0.64,-0.48545173968219496,5901.530784844196
0.644,-0.38760375106916956,5909.480687793468
0.648,-0.28018283284747175,5899.864470412784
0.652,-0.19110472389446653,5893.649633811758
0.656,-0.14329431652667696,5900.454573483647
0.66,-0.15006714435061,5902.9424057197975
0.664,-0.21301717058550046,5904.804908232505
0.668,-0.3218096744288041,5895.564396754765
0.672,-0.45543257122668984,5896.508972732136
0.676,-0.5850811013936689,5900.508108996503
0.68,-0.678841665716242,5897.154545071404
0.684,-0.7076681801072734,5901.489560964758
0.6880000000000001,-0.6515537281260871,5900.071363773601
0.6920000000000001,-0.5046530527676953,5898.318026459891
0.6960000000000001,-0.27818004574989436,5907.780461269137
0.7000000000000001,-8.380620463687281e-05,5902.3622670983
0.704,0.2889688835142619,5904.70508834906
0.708,0.5428792920237362,5887.358755200771
0.712,0.7193384641602707,5901.036893605765
0.716,0.7890334543215809,5906.161060626946
0.72,0.7426181465142119,5898.399099979961
0.724,0.5934525448900844,5899.997155828956
0.728,0.3750213857806262,5904.661691985152
0.732,0.1333676881489386,5898.117588520878
0.736,-0.08370057481960261,5896.891863609772
0.74,-0.2378949907278927,5907.945790026805
0.744,-0.3091760185098399,5897.613542795288
0.748,-0.2994207623962708,5903.065319125259
0.752,-0.22994683312697145,5902.835670347666
0.756,-0.13373364598780396,5906.727771448109
0.76,-0.04495298924170104,5898.279550819322
0.764,0.010629935731106606,5901.724166469721
0.768,0.02124332969507908,5898.892345237508
0.772,-0.01066375266140182,5896.758510020864
0.776,-0.07261929798394134,5907.227029487963
0.78,-0.14833016853689243,5902.118566706649
0.784,-0.22340017267153173,5904.536040819359
0.788,-0.2889853478839393,5893.265602731382
0.792,-0.34285045703471917,5897.381717913722
0.796,-0.3880540125175792,5896.9312019255485
0.8,-0.43001404392086806,5901.715348108476
0.804,-0.47311560481630227,5901.995729070442
0.808,-0.5182745042210941,5899.209125944615
0.812,-0.5626320514955836,5905.887031134505
0.8160000000000001,-0.6014837743363353,5900.996313547295
0.8200000000000001,-0.6310651209801824,5897.886348462665
0.8240000000000001,-0.6501535745441335,5895.799514855089
0.8280000000000001,-0.6593608780318663,5896.736860546669
0.8320000000000001,-0.6587558537341622,5901.298317634683
0.836,-0.6455968491660187,5900.566638676017
0.84,-0.6137525465073237,5905.284577913588
0.844,-0.5553005888046167,5911.996868739015
0.848,-0.4636346043479903,5895.6495445958735
0.852,-0.33671713940283554,5901.727132648206
0.856,-0.1791055936060747,5899.69010535255
0.86,-0.002008324252094249,5901.312802778625
0.864,0.17848335074472338,5906.733282903889
0.868,0.3442493314071423,5908.580292359263
0.872,0.47830346179119904,5894.861673268557
0.876,0.5677324370865654,5910.81887530519
0.88,0.6059894738454774,5905.990558169749
0.884,0.5940877207453228,5896.238953206799
0.888,0.54036793295023,5904.422960236368
0.892,0.4588234622259648,5900.674071850029
0.896,0.3662059697040292,5895.90177520031
0.9,0.27834853191676195,5898.166527900922
0.904,0.20657730820341388,5908.84380364931
0.908,0.15560299483858325,5896.731621793456
0.912,0.1241863902574323,5899.188182387863
0.916,0.1085665090994943,5912.484485973162
0.92,0.10671622890081753,5906.346297472565
0.924,0.12063286763184754,5906.228986978025
0.928,0.15511501173203043,5909.944971057086
0.932,0.21388791881378608,5905.5578537641
0.936,0.29551272191027167,5894.435578574788
0.94,0.39125092864924266,5905.401286339729
0.944,0.48570288528024846,5896.230546618212
0.948,0.5598074981917809,5907.418880079692
0.952,0.5950731162805408,5899.262624357752
0.956,0.5775682834589181,5889.368104675162
0.96,0.5003508010615448,5894.47988143652
0.964,0.3638310412332601,5891.481113129929
0.968,0.17464761549483657,5904.41429510314
0.972,-0.05579168855609874,5897.6571658865705
0.976,-0.31219059233850344,5899.575163093915
0.98,-0.5754730934908041,5895.255914187389
0.984,-0.8227022619349612,5898.7540573938495
0.988,-1.027926199192329,5908.679722942447
0.992,-1.1649690355885274,5897.311204445787
0.996,-1.2122230477839857,5901.648780394253
1.0,-1.1582049730691197,5897.9602754290445
1.004,-1.0059805591755728,5901.363295573439
1.008,-0.7748621935021148,5900.913880939563
1.012,-0.4985387258762888,5898.784262997452
1.016,-0.21958265385060402,5902.262357147597
1.02,0.0188065200138831,5898.237980621847
1.024,0.1819524407088985,5894.104789432834
1.028,0.25129374487708966,5899.654040961211
1.032,0.22825661405817055,5905.873163023005
1.036,0.13331452639684147,5893.971457432627
1.04,0.0005593972815149251,5899.203609381163
1.044,-0.13065753034794855,5908.359340560347
1.048,-0.2248412101058198,5901.393935877791
1.052,-0.2580842818509921,5903.463781330815
1.056,-0.22273254301265366,5902.382078772153
1.06,-0.12809879504287167,5904.996959369842
1.064,0.0026355492551196095,5900.323711399849
1.068,0.13832916291785777,5893.902793003303
1.072,0.24718342065215182,5893.722849752211
1.076,0.30387269047573384,5893.216584523638
1.08,0.29486523835537876,5904.697017655026
1.084,0.2206034613145568,5910.550542602057
1.088,0.09416470076893349,5899.509001442282
1.092,-0.06280158571349616,5900.899758279765
1.096,-0.2254135208696721,5900.578866211227
1.1,-0.3708225023941588,5897.678455255566
1.104,-0.482443281804977,5901.486396561163
1.108,-0.5523900530230769,5897.115968701632
1.112,-0.581511679670701,5898.507634113576
1.116,-0.5769776051820755,5899.001717199505
1.12,-0.548296417450652,5901.091253597229
1.124,-0.5033674293671928,5896.874750216128
1.128,-0.44615915514538873,5901.112496546345
1.132,-0.3768190756149842,5896.957754740975
1.136,-0.29387572089248926,5899.493343038193
1.14,-0.1973136305410997,5895.874144060685
1.144,-0.09102861294874895,5904.635989529313
1.148,0.01644666637476232,5893.267906635709
1.152,0.11314369899885285,5901.773457147252
1.156,0.18607404082915993,5901.438494856383
1.16,0.22392666298603991,5895.102127492505
1.164,0.21948028820666662,5894.771362714475
1.168,0.17136894533262723,5897.693926501434
1.172,0.08474002042200347,5900.069431905706
1.176,-0.02947677037238531,5897.919010857771
1.18,-0.15640578211128572,5898.387740909638
1.184,-0.27953508243863645,5903.8675981091765
1.188,-0.3830545681026346,5901.836178169468
1.192,-0.4541246795297167,5902.979211194193
1.196,-0.485001306606753,5907.994228319596
1.2,-0.47461355371942243,5897.696743253759
1.204,-0.4289549743342848,5899.309320710448
1.208,-0.3599099461705511,5899.526156146943
1.212,-0.2827103692238455,5900.346280014705
1.216,-0.21263749370010612,5897.608799881318
1.22,-0.16176743941979985,5895.03261345688
1.224,-0.1366308633571424,5904.468429759283
1.228,-0.13749511785147506,5905.982162408373
1.232,-0.15943353709864772,5907.164275098608
1.236,-0.19459477007544,5902.143171388985
1.24,-0.23457380777615944,5900.017556367098
1.244,-0.27194887960200176,5898.944833357635
1.248,-0.30081919768451687,5895.4412396982125
1.252,-0.3168571492435241,5897.358157069671
1.256,-0.31740196571670454,5903.210267727825
1.26,-0.30166837823172177,5903.059689814322
1.264,-0.27076054506476566,5904.581753383197
1.268,-0.22717741586253604,5903.541139317329
1.272,-0.17390893673655014,5901.98405142706
1.276,-0.11373077725868971,5900.071113196265
1.28,-0.049323460480716654,5896.016493918708
1.284,0.015779372401914748,5898.183343385615
1.288,0.07609957217631917,5903.171951682095
1.292,0.12384753153346162,5894.456442740303
1.296,0.14982250483440981,5902.500340477937
1.3,0.14561757645337678,5898.01196106394
1.304,0.10666584677444793,5907.867314065464
1.308,0.03519165129736242,5899.11903509914
1.312,-0.05817270357972464,5900.180532314365
1.316,-0.15516734845359645,5904.342421234077
1.32,-0.2333711381223772,5911.990246491159
1.324,-0.2715986764859233,5904.177113776795
1.328,-0.25567052592286044,5892.489921261843
1.332,-0.18277773844188624,5899.9065970676975
1.336,-0.06307590552438175,5896.656273128189
1.34,0.08204451325547606,5892.073557676516
1.344,0.22469930090479276,5910.502775983649
1.348,0.33717094075976234,5893.662195199693
1.352,0.3987340205365748,5903.581469845275
1.356,0.40059058185867286,5895.1396076651545
1.36,0.34726985493185186,5901.873239235782
1.364,0.25406398030228505,5899.384298866468
1.368,0.14170337365427363,5896.423970191827
1.372,0.030597679904938828,5899.497085242208
1.376,-0.06327317031434758,5892.3456596656815
1.38,-0.13011663010775518,5897.151912538711
1.384,-0.1663044832897016,5900.482062723345
1.388,-0.1734165612910979,5915.400140233914
1.392,-0.15686834337138644,5901.870591338879
1.396,-0.12447505450165325,5896.832547120866
1.4,-0.08526356633250867,5899.536242940813
1.404,-0.048476142232306965,5901.652696133332
1.408,-0.022269983739536786,5899.557174925124
1.412,-0.011761020623978699,5904.092909602668
1.416,-0.016747993144502125,5892.492234867817
1.42,-0.030047479743862654,5904.846759443988
1.424,-0.03751581240098592,5898.744632040995
1.428,-0.02053035096151852,5903.287371262471
1.432,0.03905030964121811,5893.672354115678
1.436,0.15253598961560508,5893.203598230713
1.44,0.31877919872988497,5901.975334440163
1.444,0.5216518839623395,5907.547834704632
1.448,0.7320915098908308,5897.807346578898
1.452,0.9144457964132098,5905.467489383275
1.456,1.0352009633968158,5894.143734216242
1.46,1.0713746847472352,5904.169387033065
1.464,1.0160537911720708,5899.555539799818
1.468,0.8795656082951355,5902.422767134143
1.472,0.6862335919857132,5901.365016478419
1.476,0.46800761717213085,5903.270226522419
1.48,0.25698912085189335,5901.938974666699
1.484,0.07893143860987965,5895.561759405023
1.488,-0.0506908209967535,5908.752061090298
1.492,-0.12739027995665989,5892.810029291755
1.496,-0.15564674615465765,5892.4781147480335
1.5,-0.14557207128599148,5895.037657478865
1.504,-0.10992739643679938,5901.106927933465
1.508,-0.06252442133814594,5896.13886989964
1.512,-0.01783852931160933,5891.920876235738
1.516,0.009317035235931434,5909.137231395553
1.52,0.005336051014001797,5898.963779523906
1.524,-0.03895259562689542,5902.734893541918
1.528,-0.12429509315299647,5894.247220879754
1.532,-0.2402915933765183,5906.146194065868
1.536,-0.36586818058453896,5896.3118443208205
1.54,-0.4734519559513596,5903.038516659684
1.544,-0.5356462587088393,5900.966884351374
1.548,-0.5322668932148596,5901.940684032694
1.552,-0.4556558146723278,5896.651708021544
1.556,-0.3128711530590811,5889.913410437187
1.56,-0.12434112574019533,5908.282580727351
1.564,0.08039407180226711,5894.857290778761
1.568,0.26853724360633296,5899.728779790862
1.572,0.41008925070519775,5907.5348757701695
1.576,0.4829564701264343,5904.562824459877
1.58,0.47611050366565133,5900.948232865455
1.584,0.3901021791842593,5897.816063123854
1.588,0.2352133665685351,5895.341392623133
1.592,0.02865356345952895,5896.005796902796
1.596,-0.20776486717541814,5897.167665802385
1.6,-0.4492143666911895,5897.864160403791
1.604,-0.6695452211737817,5903.711532310983
1.608,-0.8439066688012529,5899.305200009847
1.612,-0.9522059984221456,5901.129151927002
1.616,-0.9825187831243045,5897.15787683196
1.62,-0.9335003400922123,5907.69292670044
1.624,-0.8151991457527539,5911.82810559485
1.628,-0.6479210032266162,5908.942960019735
1.632,-0.4590422200684798,5893.766849180618
1.636,-0.27818726766573154,5888.771481897374
1.64,-0.13174543211866144,5898.146037393789
1.644,-0.03798119083881942,5899.327395611358
1.648,-0.003968335447330153,5896.038678528676
1.652,-0.02521975225855636,5898.7902078054
1.656,-0.08814534831684864,5903.521527594257
1.66,-0.17453690761120322,5906.751515462377
1.664,-0.2665011543468311,5896.002876200592
1.668,-0.3500870517657374,5901.048492449121
1.672,-0.4166054966621112,5900.369210435671
1.676,-0.46193292422283955,5906.02390516587
1.68,-0.48495004895425337,5894.646093785655
1.684,-0.48619727474719626,5897.816199807111
1.688,-0.4672461288819144,5905.558724933218
1.692,-0.43075563505979536,5900.620473007458
1.696,-0.38081957511948783,5898.121347192131
1.7,-0.32304411768668967,5903.722456864193
1.704,-0.26404531610190146,5903.21682626802
1.708,-0.2106034693072611,5896.718323000153
1.712,-0.16888917996904765,5896.812909608667
1.716,-0.14370255639033244,5906.129367436465
1.72,-0.13730371065524594,5896.918948550633
1.724,-0.1479155116294915,5895.112092034136
1.728,-0.16882194958205932,5900.182573800847
1.732,-0.18906282469622948,5899.97109308551
1.736,-0.19589708168678047,5902.465241189081
1.74,-0.17824652971801472,5894.428120940239
1.744,-0.12986451771677535,5901.207446794838
1.748,-0.05114188447691417,5893.971727063015
1.752,0.05087264406503016,5903.4960543998495
1.756,0.16384952152747034,5891.565863980482
1.76,0.2720815672424616,5905.689480873824
1.764,0.3582248575037517,5898.830709461226
1.768,0.4049281138738531,5906.461102211491
1.772,0.39702390463740495,5910.259910564076
1.776,0.32473346134619707,5901.4307853031005
1.78,0.18734479800448411,5898.411864952455
1.784,-0.004040401033692436,5903.034297932081
1.788,-0.22614591326692662,5905.257392775082
1.792,-0.4463990215853457,5894.396700804235
1.796,-0.6290784762592819,5900.489950482838
