时间(s),电压(V),幅值(高频80K)
0.0,0.8359646582126435,5898.461468574831
0.004,0.4041420764158672,5904.70131821553
0.008,0.019624644786054222,5899.216213135507
0.012,-0.27622003966735986,5901.451762717178
0.016,-0.45892449884969416,5897.154217791544
0.02,-0.5241630267500624,5900.634874380323
0.024,-0.4854885925704375,5895.551515274764
0.028,-0.3677979299226072,5908.335363961301
0.032,-0.19995180109155566,5894.0923530658765
0.036,-0.01000038198898049,5900.5835816568415
0.04,0.17602793764351077,5895.331890623404
0.044,0.33364446472471637,5904.360507867288
0.048,0.4403432484878174,5898.029875352122
0.052,0.47817352553790027,5898.998087256629
0.056,0.43777660975621063,5894.391187109275
0.06,0.3221445098893075,5905.321166513678
0.064,0.14822145499788594,5897.730777815956
0.068,-0.0549161013912092,5903.301711186135
0.072,-0.2513687158776255,5899.003551875902
0.076,-0.4058460629773904,5913.760410751721
0.08,-0.4909579501697675,5895.723479169734
0.084,-0.49247052359237437,5902.512602313514
0.088,-0.41184571232850775,5901.361171502921
0.092,-0.2661310998894575,5903.364914388913
0.096,-0.08519838847995374,5892.800548869043
0.1,0.09362711237746896,5888.997554504001
0.104,0.2327978610986821,5910.842996516739
0.108,0.3020938905603042,5900.700184665833
0.112,0.2847677107428354,5890.277484038454
0.116,0.181039610131318,5897.475141459672
0.12,0.008400502609426626,5905.322358075702
0.124,-0.20132853742976975,5894.321907866464
0.128,-0.4079552395308079,5902.929609185353
0.132,-0.5711984013876017,5901.005889891545
0.136,-0.659731054713255,5902.0994697277065
0.14,-0.6586518974568288,5891.115250052226
0.144,-0.5731562439810933,5901.171971375361
0.148,-0.42729808944232234,5885.090101658663
0.152,-0.2581511638573385,5894.701991543593
0.156,-0.10672120596195994,5895.055640788771
0.16,-0.00772410956130958,5899.725312376191
0.164,0.019017047979255134,5908.107010131076
0.168,-0.027169193579413567,5894.028327760418
0.172,-0.12934669399108412,5903.214861326211
0.176,-0.2596343779044242,5899.547900569804
0.18,-0.388351699388241,5898.265854295636
0.184,-0.49223639834333444,5902.211052904178
0.188,-0.559133927214661,5906.752130708443
0.192,-0.588427734685719,5902.09636333426
0.196,-0.5881468733752567,5901.489167674724
0.2,-0.5702369815704719,5894.004395514181
0.204,-0.5452110057384594,5900.935406189306
0.208,-0.5173495739686381,5908.099947065472
0.212,-0.4821201065892293,5904.312088372134
0.216,-0.4274602283041004,5899.078089983772
0.22,-0.33909751290600815,5902.508883579242
0.224,-0.20805327904521753,5898.854943933291
0.228,-0.03750906481242769,5910.872291125407
0.232,0.1534680532589573,5896.399978992828
0.236,0.33102178443944147,5897.841516731475
0.24,0.45306865667994206,5898.994792740298
0.244,0.48048923300109303,5899.057256028593
0.248,0.39016561898993407,5911.632288167706
0.252,0.1853066012977123,5899.405483925134
0.256,-0.1016730614446869,5899.5060767549085
0.26,-0.415899209423848,5899.30043003574
0.264,-0.6943144236037277,5896.462606857443
0.268,-0.8821814379851785,5899.809374247102
0.272,-0.9462215898386387,5904.327171451469
0.276,-0.8808313732954349,5893.175399845302
0.28,-0.706540522149156,5898.529195939533
0.284,-0.462250476289541,5893.514675895076
0.288,-0.19432934446984673,5903.923187756664
0.292,0.05409348235723812,5899.392969248134
0.296,0.2512264763058058,5904.547285491338
0.3,0.38097205309410237,5904.524308004162
0.304,0.44323556780214957,5896.422978268708
0.308,0.45049214543879473,5896.786422533489
0.312,0.4217717732055475,5901.988866989261
0.316,0.3759749135739941,5898.030202195171
0.32,0.326444364565932,5894.526520681851
0.324,0.2781060197077854,5900.453494536167
0.328,0.2278040604131743,5897.543742045814
0.332,0.16780463759295286,5899.133135531678
0.336,0.09150031505821114,5894.346988817324
0.34,-0.0008590088532259319,5904.454746006359
0.344,-0.09923736716704157,5894.668090493976
0.348,-0.1856509810170827,5902.214084463407
0.352,-0.24040299470712623,5899.642245675082
0.356,-0.24990036410335104,5897.467558874004
0.36,-0.212321956990392,5906.393928082886
0.364,-0.13858943476100472,5907.03334138684
0.368,-0.048538285846522554,5905.2214541127805
0.372,0.03556430237823455,5902.486642017667
0.376,0.09508098815647915,5908.309957793963
0.38,0.11834661310781266,5895.970246212489
0.384,0.10095015705932413,5897.512097866178
0.388,0.044410315163343365,5899.290166292761
0.392,-0.04490542284044605,5901.037548941929
0.396,-0.15581115187830577,5908.161648541147
0.4,-0.2719918635745933,5902.6617608123925
0.404,-0.37300508098598145,5899.212681511462
0.408,-0.43789365531549984,5899.574493475496
0.412,-0.4509622557251283,5907.172815553671
0.416,-0.40720993204550215,5897.06274255907
0.42,-0.3143725452371054,5898.190749951221
0.424,-0.19035880458467952,5898.476003917043
0.428,-0.05767660386489009,5902.390090761023
0.432,0.06217453404832323,5902.58521825981
0.436,0.15231922882628668,5890.268654805765
0.44,0.20208723340326915,5905.6665408709005
0.444,0.2077318511206734,5894.58113538262
0.448,0.1731477399472212,5904.136989088598
0.452,0.11018663381382642,5898.879630242316
0.456,0.037298367076691034,5896.266434687232
0.46,-0.024290885947245874,5896.773129863507
0.464,-0.05611226937813309,5901.479709044577
0.468,-0.04760842103928545,5907.951387824746
0.472,0.0012564509605467401,5908.360982754396
0.476,0.08089376889266434,5896.300679141563
0.48,0.1758226113820577,5911.418523507989
0.484,0.2692987914753268,5892.816682898512
0.488,0.34657395776073385,5902.568043586897
0.492,0.39562316742562204,5892.364085656839
0.496,0.4063347013795943,5897.947708532138
0.5,0.3705516082671745,5910.450024973441
0.504,0.28450100581431714,5898.541340689983
0.508,0.15281852260527887,5898.231109433431
0.512,-0.008377420154991162,5899.516760489569
0.516,-0.17195508711573157,5904.561578466294
0.52,-0.3048255482346323,5896.027773883075
0.524,-0.3762470359218585,5900.845451917058
0.528,-0.36625228794357073,5899.390708225531
0.532,-0.2711491456782229,5907.177905744815
0.536,-0.10466433448603808,5893.547861104462
0.54,0.10502777703806342,5898.600304752909
0.544,0.32126706053390036,5899.492478020013
0.548,0.506355901859574,5900.668559674225
0.552,0.6287590669677167,5913.761423383895
0.556,0.6684535789116366,5904.164881795992
0.56,0.6195788922299894,5901.160191395397
0.5640000000000001,0.49049272165675734,5898.791887221768
0.5680000000000001,0.30172555096275055,5898.9702059159445
0.5720000000000001,0.0821158892293338,5895.611813772549
0.5760000000000001,-0.13659638161191348,5905.669528574554
0.58,-0.3258592346494609,5899.14987049004
0.584,-0.4656345576128732,5895.615615951804
0.588,-0.547526817248051,5905.9241915274415
0.592,-0.5748873521339264,5900.785123623394
0.596,-0.5600422586365467,5888.876900505135
0.6,-0.5198476564667736,5907.920522373117
0.604,-0.4713599192271543,5898.837362026262
0.608,-0.42901821265810114,5898.838356689878
0.612,-0.4035494322250561,5904.693982771819
0.616,-0.40173115728519976,5900.39456748752
0.62,-0.4260791457473491,5903.998448866222
0.624,-0.47438322235262637,5902.953103563776
0.628,-0.53979039957135,5902.255082773345
0.632,-0.6120486716589122,5893.491527416437
0.636,-0.6797579166746403,5898.132679497059
0.64,-0.732785240295036,5911.594115776801
0.644,-0.7639759942281342,5899.745069205307
0.648,-0.7698272743315088,5902.298344412542
0.652,-0.7503539801664448,5903.977605602779
0.656,-0.7086492765062495,5906.226484595174
0.66,-0.6505573412325184,5903.090814067804
0.664,-0.584481530216628,5897.501819198341
0.668,-0.5209261637382514,5893.4156979814925
0.672,-0.47124752880520504,5902.389410551933
0.676,-0.4453883583201879,5896.8017715117085
0.68,-0.44897381710344925,5896.3364558243575
0.684,-0.4807027197607025,5899.205690100394
0.6880000000000001,-0.5311481811546198,5901.536145054271
0.6920000000000001,-0.5838324687388383,5899.93956074358
0.6960000000000001,-0.6187980034259886,5895.19324789932
0.7000000000000001,-0.6179562141190165,5907.407318378899
0.704,-0.5705806460640045,5902.924022099926
0.708,-0.47691991008098517,5904.086040595313
0.712,-0.3484853577563468,5899.497686494512
0.716,-0.20503030714749917,5895.111368790814
0.72,-0.06971305875347693,5908.281430446396
0.724,0.03556576814138248,5899.19232297786
0.728,0.09337683367063092,5898.386983906493
0.732,0.09251240178401701,5900.496310344638
0.736,0.02902661516084471,5902.440893744501
0.74,-0.09294234730401998,5901.016464762005
0.744,-0.26089225456600323,5906.692275157378
0.748,-0.45499106186711097,5901.064292538429
0.752,-0.650910118078711,5898.771406254069
0.756,-0.824226032159419,5890.565161150331
0.76,-0.9554116181231804,5894.89940753847
0.764,-1.0339478724786624,5898.023239402048
0.768,-1.060132400988004,5904.066428147468
0.772,-1.0438021188194724,5903.5442338354105
0.776,-1.0002149571749568,5899.778720634118
0.78,-0.9443621973024272,5904.176121865054
0.784,-0.8856404224965221,5903.955089883128
0.788,-0.824923333651278,5907.899592006799
0.792,-0.7554513738742996,5898.220919086582
0.796,-0.6674139617325602,5901.764642534759
0.8,-0.5541903984436197,5897.769443962577
0.804,-0.4172489390753304,5897.995031136856
0.808,-0.26744920114047466,5896.668434742551
0.812,-0.122412086549813,5901.797301722226
0.8160000000000001,-0.0014398010982192985,5898.849945442732
0.8200000000000001,0.07984436534176943,5893.564650312213
0.8240000000000001,0.1134914658888322,5904.330789209162
0.8280000000000001,0.10112630733433588,5906.157275204276
0.8320000000000001,0.05357963222708745,5898.71750608868
0.836,-0.011651005489720272,5899.801328494296
0.84,-0.07464936408531803,5886.007478030671
0.844,-0.1180752878433115,5897.855880822499
0.848,-0.13154619332615436,5902.42171737095
0.852,-0.11394697554060607,5899.188287589071
0.856,-0.07264743108813403,5896.593901946512
0.86,-0.019790474490200556,5906.370151537115
0.864,0.0326507115205784,5900.180663723465
0.868,0.07659363990776276,5909.569787813048
0.872,0.10870854677472858,5897.440381527499
0.876,0.12858260164711088,5893.0751561897205
0.88,0.1357625000881266,5898.742318716878
0.884,0.12757472284731922,5896.776689366706
0.888,0.09902559432805585,5894.354119390461
0.892,0.044932204345445335,5904.446220763452
0.896,-0.03673301199719843,5899.060559622106
0.9,-0.14180580719659,5893.594865035905
0.904,-0.25855736102357646,5889.141606676311
0.908,-0.3690371028318898,5896.775054476527
0.912,-0.45355292624737376,5908.173630924448
0.916,-0.49721513123228794,5915.854330795485
0.92,-0.49585532014136374,5905.067030287547
0.924,-0.45840749228108607,5902.6760165134
0.928,-0.4042994376531056,5898.277961493178
0.932,-0.3565971855243196,5902.028877058809
0.936,-0.3336139660661893,5901.821265857991
0.94,-0.3425723969730179,5897.556568516074
0.944,-0.3779255552574576,5894.786837389213
0.948,-0.424475539534466,5904.152344633806
0.952,-0.46322403429949804,5900.658944406466
0.956,-0.47742308527923333,5900.740012913288
0.96,-0.45728935510389557,5896.182884865447
0.964,-0.402863336821689,5899.636257827369
0.968,-0.32470012715721086,5901.359440739309
0.972,-0.24192140384635333,5891.142269956102
0.976,-0.17748535502586726,5894.396041878145
0.98,-0.1515790475994017,5893.798621878364
0.984,-0.1751946407573697,5896.441032746492
0.988,-0.24620125071142404,5892.733468962332
0.992,-0.34922335350508477,5893.20776315643
0.996,-0.4592467899027347,5906.191121631525
1.0,-0.5479645417572266,5903.537603379749
1.004,-0.5912579815588902,5891.491154278883
1.008,-0.5756162513572732,5901.26346546358
1.012,-0.5013668791138522,5901.455336583716
1.016,-0.38186661857232435,5894.360948657306
1.02,-0.23952768479698805,5893.9059509265335
1.024,-0.10040713400838512,5897.499374021572
1.028,0.01124013524989527,5901.594825636246
1.032,0.07768448116481444,5897.460143324454
1.036,0.09117617505130536,5897.190594354751
1.04,0.0555149939558545,5904.980668290445
1.044,-0.014788114020693136,5905.757597246359
1.048,-0.09784715174094097,5898.655430083045
1.052,-0.16968479446617857,5893.746322391993
1.056,-0.21036025192215277,5890.265857305292
1.06,-0.20951556957511025,5906.909729412171
1.064,-0.16972389058465182,5901.3834924638695
1.068,-0.10614401404118806,5907.886058996332
1.072,-0.041912428014621236,5902.6025940061
1.076,-0.00036195926223390193,5893.664770083508
1.08,0.003358001353192362,5901.389887367356
1.084,-0.0317678461443539,5897.012844423525
1.088,-0.09139197584917694,5902.058174677958
1.092,-0.14997138470994578,5893.289216744752
1.096,-0.17893146593517728,5895.337616405442
1.1,-0.15571491119010988,5902.417752998708
1.104,-0.07036043421578365,5904.097482686229
1.108,0.07224818440424909,5896.452794124252
1.112,0.25424941844478177,5894.479974382909
1.116,0.44940637280043955,5905.814688910009
1.12,0.6291114568098664,5893.668832888109
1.124,0.7688058291839266,5899.062980468304
1.128,0.8536589983467999,5906.077199080199
1.132,0.8819568725383568,5898.985415619099
1.136,0.864800760750129,5898.134307495396
1.14,0.8216729443299636,5901.536958774779
1.144,0.772867505509715,5897.095898077958
1.148,0.7312685753840682,5899.948986436235
1.152,0.6968049678700926,5902.746497729043
1.156,0.6562605342480077,5896.291701869815
1.16,0.588805463475743,5893.082088239494
1.164,0.4748261591690625,5897.874913217751
1.168,0.30412824339903377,5908.670995675057
1.172,0.08023805105837253,5900.307742420892
1.176,-0.18022082258003974,5909.239506430622
1.18,-0.45175462825999413,5899.060819906124
1.184,-0.7055554691657346,5905.278437290392
1.188,-0.9148027353080398,5899.042080316604
1.192,-1.0592423495980263,5902.944966513286
1.196,-1.1288538699968058,5900.163252076734
1.2,-1.125903421371595,5896.703782377729
1.204,-1.0643660233254946,5903.407150865037
1.208,-0.9663021893247028,5901.163272574955
1.212,-0.8561057885016621,5897.22980229787
1.216,-0.7546766330551025,5895.202919369286
1.22,-0.6755969318118096,5901.681292442176
1.224,-0.6242226298106313,5895.921069125111
1.228,-0.5991006905792337,5894.730033861278
1.232,-0.5943726773507509,5900.499214371097
1.236,-0.6021556274173142,5903.087228377322
1.24,-0.6146393123139083,5903.777350607867
1.244,-0.625986782320308,5899.317303100426
1.248,-0.6339155537114644,5905.50759727391
1.252,-0.6404182669438416,5891.6782944776105
1.256,-0.6508809836002966,5895.371257898965
1.26,-0.6712623537686648,5890.699313693782
1.264,-0.704032006787531,5901.695280854734
1.268,-0.7445794078902193,5894.845573903589
1.272,-0.7800010737208183,5902.184622937372
1.276,-0.7913939402800957,5900.254424422109
1.28,-0.7594483898376793,5899.668142316291
1.284,-0.6717359784141771,5898.506315203995
1.288,-0.5290603171509933,5897.294024599175
1.292,-0.34814290529658204,5896.014701310441
1.296,-0.159106359584893,5918.09379585688
1.3,0.0018169155948263129,5904.23852197312
1.304,0.10225161089026061,5896.791310704783
1.308,0.12331685907402129,5895.9215346309165
1.312,0.06568227938541037,5900.529689317164
1.316,-0.05041445341396178,5901.022267828033
1.32,-0.1914244157742713,5900.027693528569
1.324,-0.32064039846904235,5900.751682641466
1.328,-0.40854611973344723,5897.14816180224
1.332,-0.44006973145553074,5898.516050437447
1.336,-0.4168662427017978,5905.794353684514
1.34,-0.3544648939867718,5900.580951632033
1.344,-0.27563808409314833,5908.718087139479
1.348,-0.2022890545733547,5904.066447312952
1.352,-0.1483535584623959,5900.200274198705
1.356,-0.11572661977026784,5895.372925132292
1.36,-0.0942986221999083,5899.471157579544
1.364,-0.06613972949637467,5901.479054799199
1.368,-0.01280912099705926,5903.8028627151625
1.372,0.07634283077956275,5900.414125444486
1.376,0.19779582129107284,5898.507433616503
1.38,0.33209006374116984,5901.370453832224
1.384,0.4478309416750512,5905.772133118045
1.388,0.5104029682994109,5898.030287570445
1.392,0.4924875234735795,5906.118386602679
1.396,0.3828448390236967,5894.935987103617
1.4,0.19052555360993947,5895.733148963045
1.404,-0.0566204184811455,5906.193177685891
1.408,-0.3182874243919214,5902.182344791666
1.412,-0.5507666124772829,5899.2244158283
1.416,-0.7164177098854229,5901.645666335175
1.42,-0.79174686289875,5893.784751146141
1.424,-0.7726042540140219,5907.813305338516
1.428,-0.6751129907443296,5903.942751738875
1.432,-0.5314700509950869,5896.237719236927
1.436,-0.38128181060513244,5890.715406378533
1.44,-0.2610582516931282,5904.687727689089
1.444,-0.19539186716744072,5903.849344158903
1.448,-0.19238242134575967,5900.577135309178
1.452,-0.24391562551637908,5899.084300641823
1.456,-0.3298968671402926,5901.7345828056
1.46,-0.42492049722014524,5905.484805470772
1.464,-0.5056315429333159,5897.045398059815
1.468,-0.5568653574454075,5895.015338850404
1.472,-0.5747581457652045,5905.172342848528
1.476,-0.5657673544842106,5896.37125525443
1.48,-0.5419724911809645,5902.106931280848
1.484,-0.5147572399833616,5888.800962501174
1.488,-0.4900836816619146,5900.956074262856
1.492,-0.4678485122956742,5905.098173553648
1.496,-0.44507484489662635,5904.7213424083975
1.5,-0.4199262093190497,5901.118132795125
1.504,-0.3933417268204205,5904.090393105216
1.508,-0.3676218936748244,5894.245175691964
1.512,-0.3439105924460706,5902.177556647791
1.516,-0.3209124688392798,5894.428790964422
1.52,-0.2956310318781998,5902.602606443632
1.524,-0.26527424723799814,5895.197251762839
1.528,-0.22901688808204046,5903.315565853433
1.532,-0.18890156208748451,5897.649032785264
1.536,-0.1499611852728783,5904.762408885968
1.54,-0.11994289346353715,5902.222083185036
1.544,-0.10862279189012691,5897.162219006562
1.548,-0.12618878822949775,5894.29022191721
1.552,-0.1804594779257526,5902.6369167363655
1.556,-0.2738038221227855,5902.711487382527
1.56,-0.4012359539862816,5909.253826391711
1.564,-0.5504074973415792,5897.122926774357
1.568,-0.7030291456767623,5905.329538385727
1.572,-0.8369872750151379,5895.661183243434
1.576,-0.92895130103288,5897.323733550029
1.58,-0.9575879906182493,5903.512859100127
1.584,-0.9073426455610758,5903.931692160693
1.588,-0.7724013030149235,5894.998970862966
1.592,-0.5600221014776984,5898.642123721029
1.596,-0.29217706054450715,5890.5193151613485
1.6,-0.004733763601097237,5900.145069624246
1.604,0.25609557633352964,5893.112099748168
1.608,0.4401889977111468,5903.431001509686
1.612,0.5029028252132268,5902.133523877676
1.616,0.41664108392447274,5894.618424179509
1.62,0.1824189441646758,5890.4628333357805
1.624,-0.16178691094801748,5901.792761200741
1.628,-0.539233793304357,5890.956222766759
1.632,-0.8417309371142563,5900.575620054534
1.636,-0.9468759589020848,5899.108741735654
1.64,-0.7432097758642326,5890.881202175794
1.644,-0.15826680901390916,5901.141560149224
1.648,0.8175643177345743,5902.271309048974
1.652,2.118809697728607,5899.187374054008
1.656,3.6101274477421366,5898.273416950104
1.66,5.110794540206233,5897.898691993114
1.664,6.433863717898722,5893.926243282292
1.668,7.42874272667289,5895.951161287301
1.672,8.013402448333085,5893.652430113201
1.676,8.186404910178602,5896.395684299534
1.68,8.017019999098885,5894.692319656563
1.684,7.619202748088789,5914.655241254653
1.688,7.119298933236986,5898.019604880285
1.692,6.627447502454562,5897.635041302583
1.696,6.21931697253114,5907.199758219402
1.7,5.929916616474411,5903.006842241548
1.704,5.757351559904972,5895.870609917532
1.708,5.672851022421751,5901.632776407369
1.712,5.63354419525048,5903.008818341375
1.716,5.5950509076914585,5906.186196973556
1.72,5.521494234599761,5906.486016737416
1.724,5.391349272533908,5900.480073963834
1.728,5.198883431142741,5908.96466926805
1.732,4.952252337920861,5894.49386112571
1.736,4.669679001969738,5897.960133162908
1.74,4.374575123101158,5900.938955210245
1.744,4.089981340306461,5899.7658508230425
1.748,3.8329999779747963,5899.849900403578
1.752,3.6105450409040474,5898.793573236754
1.756,3.4178468999740588,5892.003387438231
1.76,3.240394870551141,5901.584745945499
1.764,3.0588586605729846,5896.969331517552
1.768,2.855645876332718,5896.68483824108
1.772,2.621309884523058,5889.023766000453
1.776,2.358870118271813,5897.807646840044
1.78,2.084347552944621,5894.015563609998
1.784,1.8228595804586767,5900.345969564944
1.788,1.6014121775243102,5899.967980624384
1.792,1.441102106053073,5897.989727962167
1.796,1.3516672332753399,5902.886752436119
1.8,1.3300679296115643,5905.988493097587
1.804,1.3630027328046759,5902.499549519198
1.808,1.4319429261006447,5905.638345721804
