时间(s),电压(V),幅值(高频80K)
0.0,-1.5034838034048663,5899.230866028049
0.004,-1.3172584996852976,5902.126318193707
0.008,-1.19809085430356,5909.725889323407
0.012,-1.1816088131197877,5899.709848195583
0.016,-1.2680726470825212,5901.065903706323
0.02,-1.4210519012552658,5897.550855655568
0.024,-1.577450649654864,5890.263901490672
0.028,-1.6659486719207441,5897.185379588044
0.032,-1.6285835716776131,5895.194882339468
0.036,-1.438601701302462,5902.382637002562
0.04,-1.1085327214464422,5892.990693898347
0.044,-0.6863005694929798,5900.681330964077
0.048,-0.24210578313629055,5893.660354859698
0.052,0.1484545658315886,5899.903989061871
0.056,0.4203997813135187,5903.128086935236
0.06,0.5323487529687835,5897.25041676512
0.064,0.47550361454388745,5895.608520991747
0.068,0.27680484635483477,5905.215112608444
0.072,-0.0064645772988550084,5907.638298579417
0.076,-0.30158244795746786,5887.86025277766
0.08,-0.5412763100057354,5907.402334941116
0.084,-0.6832192939654063,5900.856757316593
0.088,-0.7208595130557022,5902.483477606631
0.092,-0.6823854279563911,5895.316015206354
0.096,-0.6197797191077982,5905.232073351446
0.1,-0.5930927518287801,5903.314021808689
0.104,-0.6552065407994561,5907.967143222597
0.108,-0.8405013776582686,5903.687821062158
0.112,-1.1585251168420116,5904.099575267437
0.116,-1.591918044461905,5908.061136063598
0.12,-2.0972380010865166,5906.18712664237
0.124,-2.6084596470322925,5898.074542921347
0.128,-3.044576127605966,5900.092449810117
0.132,-3.3224582205722206,5894.250804688587
0.136,-3.3733229251607644,5895.83659173511
0.14,-3.1583022369143374,5898.310315140302
0.144,-2.6782916549655074,5901.953610234833
0.148,-1.975424510063521,5901.5497173291815
0.152,-1.1263289744011544,5905.392926121802
0.156,-0.2293388547704827,5902.661164069444
0.16,0.6114193778463983,5906.007049627354
0.164,1.3023150638838799,5903.04875925339
0.168,1.7744304512298834,5904.56873306842
0.172,1.9934024008934286,5890.46299976169
0.176,1.9632077225399185,5892.689312847625
0.18,1.7236254727061004,5908.285014928415
0.184,1.3423762140226465,5903.027547823924
0.188,0.9032673692944235,5905.078128111437
0.192,0.49176631445560415,5907.413132775185
0.196,0.1801026210021044,5899.260864161117
0.2,0.01468222040517631,5891.136472320367
0.204,0.008299127827364548,5903.310337353655
0.208,0.13843324640915175,5903.476880582716
0.212,0.3518154100315695,5892.147728168868
0.216,0.575248572481235,5891.435532049757
0.22,0.7327058410759554,5889.8111422489565
0.224,0.7667989828090048,5896.675846427994
0.228,0.6583278249704968,5898.875784790454
0.232,0.43457017628147726,5898.726621459663
0.236,0.15990641735196248,5905.682541234679
0.24,-0.08915183467290382,5903.121453147802
0.244,-0.254010358622922,5905.1576891143695
0.248,-0.31547535445149866,5900.455845237821
0.252,-0.2968944755909367,5893.069773005671
0.256,-0.24810187613061332,5893.555457696382
0.26,-0.21860176367262382,5897.541190626068
0.264,-0.23315774085270036,5899.832352654028
0.268,-0.28118468614368347,5899.445812103947
0.272,-0.324434517221444,5896.473689823734
0.276,-0.31866996290805344,5903.2345207645785
0.28,-0.23840781543698755,5902.622797072124
0.284,-0.09264286554019327,5898.026226260104
0.288,0.07572587678310347,5906.090805362944
0.292,0.20585614737443822,5904.820060440619
0.296,0.24235187992632531,5902.517407475722
0.3,0.15588983105793972,5901.218278036261
0.304,-0.04642792299497508,5904.235902295513
0.308,-0.32364910731738666,5894.536146320351
0.312,-0.6143031066022941,5895.5937271689945
0.316,-0.8545131928052064,5897.781897238957
0.32,-0.9937582975164921,5898.294394615144
0.324,-1.0039503653955582,5895.789638761878
0.328,-0.8821826144368453,5895.274716818141
0.332,-0.6499153367271303,5892.352434869224
0.336,-0.35009873745137365,5902.547161774891
0.34,-0.041555571384201545,5896.572721462151
0.344,0.21015821944569096,5896.727678081774
0.348,0.34452614953486543,5885.127569009733
0.352,0.3182442279455877,5901.220555325153
0.356,0.11530731279105123,5901.39181908541
0.36,-0.24723717721363578,5900.775876844911
0.364,-0.7197736840833172,5908.37684640748
0.368,-1.228169760786951,5900.545111503839
0.372,-1.6892634863293603,5901.067414908338
0.376,-2.030698652106143,5904.565789748101
0.38,-2.208763241889832,5895.586347446753
0.384,-2.217337597412147,5905.628150442206
0.388,-2.0847418710491987,5900.001525826065
0.392,-1.860934974530391,5900.815904043669
0.396,-1.6011080063597434,5907.271326317797
0.4,-1.3514611872115045,5898.590069978508
0.404,-1.1407331491698753,5905.1208122825965
0.408,-0.979099008166055,5901.937584604959
0.412,-0.8639456368770843,5898.553236642256
0.416,-0.7889939754167592,5904.111356832431
0.42,-0.751328839093859,5897.444695249189
0.424,-0.7526736081904641,5900.54731572248
0.428,-0.7954591920091885,5903.8000319456105
0.432,-0.8769856736260515,5899.872452405702
0.436,-0.9847090265176337,5899.388588179583
0.44,-1.094266666274078,5899.637458335637
0.444,-1.1710560845440572,5901.003707513874
0.448,-1.1757689181126707,5902.185364698575
0.452,-1.0734307739718747,5900.324712646148
0.456,-0.8441531314791813,5903.918424412473
0.46,-0.492577432563624,5900.243138597964
0.464,-0.052615994557823044,5899.469320701468
0.468,0.41492313795516894,5892.478865914414
0.472,0.8320694644805046,5900.858317577806
0.476,1.1187713683657694,5901.587758905492
0.48,1.210109276351755,5903.353748292663
0.484,1.0721183287637917,5897.700174895601
0.488,0.7124979721162056,5892.444264757733
0.492,0.1827258730247696,5903.864385451862
0.496,-0.43014915909875734,5897.62214143958
0.5,-1.0207031654136065,5896.057981882647
0.504,-1.4872342190467938,5906.780346238358
0.508,-1.7534028379923075,5903.41918579799
0.512,-1.7841990963418926,5902.580141489751
0.516,-1.5920393371315553,5898.722846924602
0.52,-1.230729695542812,5899.743761076912
0.524,-0.7783349560798395,5897.559372465897
0.528,-0.31416215058139496,5893.665744532488
0.532,0.10195226001518053,5897.233744705372
0.536,0.44029382487400104,5894.912824056771
0.54,0.6984357458545046,5894.049651879837
0.544,0.8878648327282288,5900.304575296389
0.548,1.018060504076507,5891.086528834717
0.552,1.0869381084132015,5897.643719806702
0.556,1.082898867075856,5908.037911899983
0.56,0.997339673857887,5900.724138899794
0.5640000000000001,0.8404465020601976,5904.736715656183
0.5680000000000001,0.6504690362252364,5899.865564169703
0.5720000000000001,0.48906060838433035,5896.012658875751
0.5760000000000001,0.4219596921419297,5902.423661983939
0.58,0.49231517300376537,5904.333873798846
0.584,0.6989365066949539,5900.421377236829
0.588,0.9902810643005118,5907.6800325509785
0.592,1.2776568364675014,5899.326916589075
0.596,1.4624045967905606,5902.79307479158
0.6,1.4663905746481936,5896.0441969381245
0.604,1.255031297854896,5902.189764243532
0.608,0.8466322363660806,5902.340655751576
0.612,0.307854352811941,5908.317986812882
0.616,-0.26139709541030187,5909.4853983634575
0.62,-0.7500163063644807,5905.501225112045
0.624,-1.0606738145443484,5898.365187574455
0.628,-1.1320579102629638,5903.5407180849525
0.632,-0.9522911289347953,5902.267642409568
0.636,-0.5600844780767178,5897.146155102717
0.64,-0.03419758770996178,5909.210008956389
0.644,0.5253281980632986,5901.213481847686
0.648,1.0194547395515878,5896.813010335537
0.652,1.370965346293335,5894.758137476103
0.656,1.539121206955242,5894.265793687736
0.66,1.5247724444213604,5896.564952856222
0.664,1.3652396457553446,5905.322707907377
0.668,1.1213440209311611,5905.0259199330685
0.672,0.8608262051064508,5891.231330885733
0.676,0.6425377605068381,5904.938418756135
0.68,0.5045192591139118,5910.439684476057
0.684,0.45715319099110563,5897.051011773406
0.6880000000000001,0.48139509119882357,5907.4585771687725
0.6920000000000001,0.5323812118513027,5898.659447327264
0.6960000000000001,0.5492050422970043,5905.133456061523
0.7000000000000001,0.470559713142066,5895.725681272122
0.704,0.25333599749010705,5904.004175317761
0.708,-0.11111357741675207,5911.851685057406
0.712,-0.588828330237077,5906.927042218566
0.716,-1.1069977123578942,5893.200971738143
0.72,-1.5695076255707991,5908.312406317806
0.724,-1.8800129356748039,5898.988153018841
0.728,-1.9659361139789076,5900.283869323115
0.732,-1.7971068674329502,5899.2315118122815
0.736,-1.394707399205202,5892.552119608311
0.74,-0.8285034499409364,5893.119775115708
0.744,-0.20281306256247458,5905.640925558674
0.748,0.3657129323399991,5896.25020672854
0.752,0.7733748094956738,5897.760981775519
0.756,0.9519678924097115,5901.537812590544
0.76,0.8835046503731343,5914.220702947211
0.764,0.6038022664985222,5888.278649093394
0.768,0.19408751783423248,5897.98084571452
0.772,-0.23776914537317476,5901.3435259054695
0.776,-0.5828174096953747,5901.398488938663
0.78,-0.7579181848196296,5906.240654629611
0.784,-0.7267209406199174,5901.299951797069
0.788,-0.5076522059725284,5904.684805104218
0.792,-0.16547657005734542,5898.941870213462
0.796,0.21107619462116847,5899.447837925749
0.8,0.5378795763451049,5901.045473422533
0.804,0.760153411442025,5896.898140149905
0.808,0.8647178422246768,5893.641632916254
0.812,0.8756633754131294,5896.883606769839
0.8160000000000001,0.8358123374945413,5907.501738193123
0.8200000000000001,0.7824167809204655,5899.989495457093
0.8240000000000001,0.7283478652232461,5895.550345895212
0.8280000000000001,0.6575535771537546,5887.031853102882
0.8320000000000001,0.536391314114553,5894.533109417973
0.836,0.33435666809769404,5900.109938138492
0.84,0.043475496533878125,5901.404141170349
0.844,-0.3126961080623399,5899.283103663474
0.848,-0.6836882577905904,5896.768731436724
0.852,-1.007254242704181,5899.555741190409
0.856,-1.228242711931703,5896.130429270363
0.86,-1.3144632324325252,5896.512685237819
0.864,-1.2652479756494692,5900.8324619112
0.868,-1.1110831226004403,5896.889748123909
0.872,-0.9048496036188799,5898.924093977826
0.876,-0.707337650591485,5900.555987525359
0.88,-0.5713889781767226,5897.014577088577
0.884,-0.5290308476467471,5892.372202894674
0.888,-0.5842479605580457,5900.01563341966
0.892,-0.7120814326326887,5899.886865806493
0.896,-0.8637481214367477,5898.197608803054
0.9,-0.977211657445818,5896.356960279977
0.904,-0.9919878912398808,5896.458438640064
0.908,-0.8653328154794835,5904.102933640885
0.912,-0.5853184884816431,5900.387594455809
0.916,-0.17628405032883604,5900.885939270142
0.92,0.30572069683307135,5894.705803216897
0.924,0.7863515978166514,5895.042761383012
0.928,1.1906604679629003,5903.723932397569
0.932,1.4590926061398741,5889.462464653914
0.936,1.5575430130789398,5898.056109129765
0.94,1.4806091389579827,5897.716040848811
0.944,1.2495106231033923,5906.83863577606
0.948,0.906321726606055,5890.266132410807
0.952,0.5054824809157406,5904.179955919588
0.956,0.10363489226779991,5906.719497951237
0.96,-0.25034182147760964,5892.163934443918
0.964,-0.5228067460151387,5896.57392643882
0.968,-0.6987065847697259,5891.444886978519
0.972,-0.7804556415224436,5902.253386952531
0.976,-0.783119270345512,5896.884798811493
0.98,-0.7273892128216318,5900.531044845098
0.984,-0.6325368100542876,5896.660372096905
0.988,-0.5119209536930003,5895.025826212832
0.992,-0.37262941083202483,5904.312745950328
0.996,-0.2186032338795295,5901.419021471654
1.0,-0.054885594604861546,5908.461378311039
1.004,0.10964265251965527,5890.894768401118
1.008,0.2629534116520032,5899.74089850252
1.012,0.39409297560331086,5902.410751356609
1.016,0.49833299455855373,5906.736320708174
1.02,0.5793849882698408,5899.545452155792
1.024,0.646917209098695,5903.106012927617
1.028,0.7110715348482963,5907.486452137748
1.032,0.7771396120048395,5906.676285843144
1.036,0.8428474991376053,5900.226453695089
1.04,0.8995089552256088,5898.174272782606
1.044,0.9367462081807577,5906.019334595736
1.048,0.9482916892152355,5908.868160478776
1.052,0.9352856647719023,5897.222622361988
1.056,0.9049451154971063,5897.420397534454
1.06,0.865215057251592,5902.10256216166
1.064,0.8179827309017139,5900.824293886818
1.068,0.7541354015514363,5891.47107002468
1.072,0.6533429927027965,5904.329879169829
1.076,0.4898939029366262,5898.708905633611
1.08,0.24342691434667288,5906.420856030284
1.084,-0.08926029207365682,5903.960190320487
1.088,-0.48663181375527,5900.780976730584
1.092,-0.9031703403571885,5911.145353427874
1.096,-1.2788538640706613,5899.633524256004
1.1,-1.5539844100447633,5899.992009830363
1.104,-1.6843908120078637,5893.612897182484
1.108,-1.6523265155930051,5897.67827826079
1.112,-1.4697704632404462,5904.640948761812
1.116,-1.1734928180851918,5898.083245985972
1.12,-0.8145527119794638,5900.17981552609
1.124,-0.44658930896257437,5900.914110678009
1.128,-0.11616512285202019,5893.634689829495
1.132,0.1437765975784944,5895.3609196799935
1.136,0.31721620628555297,5905.057130016273
1.14,0.40455370982916394,5900.374565938185
1.144,0.4176804016191313,5915.082267978337
1.148,0.3716231670635664,5898.811530256104
1.152,0.27625288136997944,5898.606138695171
1.156,0.13247735289418414,5899.763132089823
1.16,-0.06505299395561993,5903.339750778623
1.164,-0.32082316403945377,5900.271101996771
1.168,-0.6312106188621333,5900.623974704922
1.172,-0.9804242668912702,5899.440194145432
1.176,-1.3407807166469967,5899.973004646628
1.18,-1.6768947943609462,5907.040256336397
1.184,-1.952164181260956,5905.30879110236
1.188,-2.1351341044104006,5895.3901221468805
1.192,-2.2038312226528998,5900.367992675641
1.196,-2.147713448076563,5902.2726844247445
1.2,-1.967898774976833,5907.097365605412
1.204,-1.6762439382835175,5898.872722732063
1.208,-1.293751036742236,5908.082582732984
1.212,-0.8491190694301292,5899.267260793502
1.216,-0.377806123585677,5899.669132859328
1.22,0.07959360410142426,5906.259084282311
1.224,0.48151990287175933,5895.838847140409
1.228,0.7923149836510159,5899.664359386246
1.232,0.9893508203911593,5895.212178215013
1.236,1.0670939103145467,5903.931242546985
1.24,1.0363428784615134,5904.738319531667
1.244,0.9194517910214043,5901.501018199669
1.248,0.7440357792368018,5897.634273275365
1.252,0.5375013108793957,5904.033086981088
1.256,0.3232395129166973,5903.974267669903
1.26,0.11803599918709894,5895.196343222484
1.264,-0.0696221168706237,5900.64813414218
1.268,-0.23983969317310802,5896.534604699146
1.272,-0.3996623025424697,5901.792000570658
1.276,-0.5596315254963121,5902.508315005579
1.28,-0.7292020286990145,5904.517767229369
1.284,-0.9118391337796369,5905.027116594363
1.288,-1.100783542755762,5893.710791532038
1.292,-1.2767115075063056,5899.99092217963
1.296,-1.40854909152485,5899.772286988657
1.3,-1.458151435841159,5895.533840565081
1.304,-1.388520123823783,5894.726441660285
1.308,-1.1741693090553385,5902.029736358539
1.312,-0.8113780210171857,5900.478276045572
1.316,-0.3254054080612459,5907.5131745886365
1.32,0.2284227226994685,5900.431273740161
1.324,0.7719877087619765,5909.018227544972
1.328,1.2199162725988502,5906.320348827202
1.332,1.499838514645184,5904.026886496386
1.336,1.5709440895883224,5898.869628658532
1.34,1.4341853899876122,5886.654443874193
1.344,1.1303406055908163,5906.229278822371
1.348,0.7266311639938963,5904.343323360009
1.352,0.296813960006537,5891.527429719698
1.356,-0.09796822839016504,5901.648023603408
1.36,-0.42111180948979726,5898.760152328501
1.364,-0.6625291935047952,5899.101661793089
1.368,-0.8321459845904094,5893.176308666449
1.372,-0.9486900006911605,5905.039434903128
1.376,-1.0279864041559013,5907.185633903133
1.38,-1.0745634920358056,5903.245978322954
1.384,-1.079098434596425,5899.920329561088
1.388,-1.0219421704336942,5891.054643457282
1.392,-0.8807871890405609,5897.498835460396
1.396,-0.6399238548377176,5900.19974862285
1.4,-0.29922238463560474,5908.859446210198
1.404,0.11878490000217701,5901.540243508743
1.408,0.5662142748657977,5910.593882684384
1.412,0.974468568973541,5902.190955423293
1.416,1.2675799427950423,5896.1680677815975
1.42,1.3821652472274577,5895.77781710248
1.424,1.2879698810524982,5905.65681812899
1.428,1.0008703113587671,5903.14602515036
1.432,0.5819621840821162,5892.121367315896
1.436,0.12182730393780887,5904.105816554556
1.44,-0.28469628040382183,5903.370366351355
1.444,-0.5644884936583232,5895.290726213624
1.448,-0.6845843965590974,5901.711402397385
1.452,-0.657627776871246,5890.101659685723
1.456,-0.5327438593318894,5892.43466626499
1.46,-0.3748867318635594,5898.270897425226
1.464,-0.24010696821843877,5892.94556127892
1.468,-0.15594006698757193,5905.642991634977
1.472,-0.11391753778449418,5906.286778914226
1.476,-0.07618902672339407,5901.878005053765
1.48,0.007226846516832101,5891.110063291712
1.484,0.17785770536442094,5893.3109146441775
1.488,0.45282334345513764,5904.448344967263
1.492,0.8187559620048676,5896.9108536916365
1.496,1.2362868526941448,5890.82499465224
1.5,1.651875160437641,5904.330852465386
1.504,2.0121273713394334,5901.494540269903
1.508,2.276296128153063,5899.703253779937
1.512,2.423958348477704,5898.015449032576
1.516,2.456078968263454,5897.483104741465
1.52,2.3893491211054996,5894.920023821766
1.524,2.246239409906648,5893.608493020697
1.528,2.0452249292695632,5900.175824201497
1.532,1.7954075411129131,5907.22303844926
1.536,1.4975228838169579,5894.348734915631
1.54,1.1505878350534426,5905.782612491746
1.544,0.761076540571695,5901.291612206343
1.548,0.3500091714622211,5899.673532046691
1.552,-0.046236841996202684,5900.078318692437
1.556,-0.3828627589419801,5904.314182271636
1.56,-0.6192355810103488,5907.023335173421
1.564,-0.7324040617748399,5900.852495227817
1.568,-0.7259293468819349,5901.943812266813
1.572,-0.6296758982548071,5894.701290508197
1.576,-0.48976677625968373,5902.445323044863
1.58,-0.3525429481956609,5903.841412888443
1.584,-0.24946429552198474,5896.003535091351
1.588,-0.18930328723332254,5900.582539160076
1.592,-0.16007189430086635,5898.915541473431
1.596,-0.13856081062451808,5897.047442882193
1.6,-0.10266993717669493,5900.447168661486
1.604,-0.04155958943182951,5896.294201040174
1.608,0.03955903703891308,5893.369977236844
1.612,0.12058053519431733,5902.21890637877
1.616,0.172113264050762,5895.733805604471
1.62,0.16324013897343873,5900.436579496289
1.624,0.0693369784310113,5892.3964574028105
1.628,-0.12159402935005115,5906.895773415501
1.632,-0.4049399909643769,5904.30056899996
1.636,-0.7579298794100171,5903.333501439968
1.64,-1.1401955217072233,5896.978128277245
1.644,-1.4965669442984832,5891.51281893081
1.648,-1.7630548709079095,5898.974117387736
1.652,-1.8768353782797218,5899.363018757377
1.656,-1.7894006856619151,5897.734459616635
1.66,-1.4798501776816997,5893.294338738006
1.664,-0.9640786992637852,5903.754584152542
1.668,-0.2963054541580875,5896.884346087769
1.672,0.43827248268279745,5896.634341227589
1.676,1.1381406478010996,5897.195350195219
1.68,1.7037445722457303,5899.609977656494
1.684,2.0548121022275,5898.570135164947
1.688,2.1430573628692855,5901.831211657471
1.692,1.9588856089003162,5892.494173978839
1.696,1.5325392930661328,5893.067992884657
1.7,0.9300841630211872,5899.854143908187
1.704,0.24367261571909937,5893.629677956242
1.708,-0.4240627351435203,5895.441053211288
1.712,-0.9791245261125577,5892.45560626073
1.716,-1.3537736862798726,5897.406448166768
1.72,-1.5173947120328934,5908.589475852868
1.724,-1.4781264667551859,5908.540384048879
1.728,-1.2769126635818062,5903.814209063814
1.732,-0.9779363705075486,5904.986454969458
1.736,-0.6579725880610593,5916.609654815352
1.74,-0.3940649455128694,5899.87007879237
1.744,-0.24838134361438027,5906.226105912758
1.748,-0.252440095481103,5899.730189060194
1.752,-0.3967843529301905,5905.150842599673
1.756,-0.6323606635510441,5902.808191350624
1.76,-0.8851917257417697,5899.022584917616
1.764,-1.079259039337963,5904.922041827184
1.768,-1.158488186947409,5907.56904239983
1.772,-1.1000119212269526,5896.101912549221
1.776,-0.9158137464011088,5892.6970279848665
1.78,-0.6445680792839408,5897.525774757276
1.784,-0.3378815839888391,5895.722535004813
1.788,-0.045642589385804094,5894.259888235167
1.792,0.19529143339212782,5904.172611499568
1.796,0.36614670881247885,5892.025364282266
1.8,0.4643593864236643,5899.975560222524
1.804,0.4969059629216378,5906.026961190936
1.808,0.47311412812946324,5892.3839360850025
1.812,0.40122318566001813,5902.036009647568
1.816,0.2902467722135144,5899.363214900184
1.82,0.15473927922545047,5900.233747131931
