时间(s),电压(V),幅值(高频80K)
0.0,0.11439378848848648,5892.650526356199
0.004,-0.07944737707679052,5897.227651512993
0.008,-0.21385762409116785,5898.177642329321
0.012,-0.24942131023396746,5898.336048453257
0.016,-0.17602201573895654,5898.003912081874
0.02,-0.01502911594016099,5898.900965237989
0.024,0.18771593406877943,5901.167844105791
0.028,0.3750876478073395,5905.46104448868
0.032,0.49390693343185477,5910.411892619822
0.036,0.5086463822275427,5902.237826091265
0.04,0.41095700858093037,5897.890193683518
0.044,0.22288833029334015,5909.634337510195
0.048,-0.007765978061211031,5902.722001048664
0.052,-0.22004449978361743,5904.836011359869
0.056,-0.35750709728423546,5895.877464746991
0.06,-0.38531144279144247,5895.728417295399
0.064,-0.30044350718765395,5903.745040578489
0.068,-0.13173182661330787,5903.297667474301
0.072,0.06951582942234452,5898.689300064568
0.076,0.24460575808249405,5901.533157749028
0.08,0.34374358747279377,5911.340823292159
0.084,0.3388349115485286,5898.943137206941
0.088,0.22871997194467864,5890.144007802675
0.092,0.035445998779076685,5893.192548505358
0.096,-0.2055178722998539,5908.15641934298
0.1,-0.4556457830514001,5908.216122817613
0.104,-0.6802716341973368,5904.703994374998
0.108,-0.8517180504274802,5891.089559642337
0.112,-0.9508450886701971,5894.713280147503
0.116,-0.9691155505057963,5898.683570669637
0.12,-0.9111572637527545,5899.164064893489
0.124,-0.7956495767413553,5897.340511744209
0.128,-0.6523200094745717,5889.175657322025
0.132,-0.5150572389065756,5896.198730629382
0.136,-0.41345637935389035,5896.024467783741
0.14,-0.3656470934692529,5898.86841871789
0.144,-0.3742610481602151,5892.211330274532
0.148,-0.4262566449968995,5898.88079236777
0.152,-0.49664331495864755,5903.384513610817
0.156,-0.5553052253938264,5900.967421666931
0.16,-0.5747593587804977,5903.859439250319
0.164,-0.5358979408095441,5905.90953423621
0.168,-0.42994495079388634,5904.606088224481
0.172,-0.25744519226889007,5898.911109692829
0.176,-0.026531458201334818,5900.352904275756
0.18,0.24846011743926694,5907.063255429925
0.184,0.5487575421719887,5903.322413215265
0.188,0.8538161664923223,5895.609514403735
0.192,1.1438061996359903,5898.278333802182
0.196,1.4005968546185061,5903.022770701433
0.2,1.6074490465634728,5898.51940280914
0.204,1.748785674855189,5901.455281406048
0.208,1.8108080923350163,5899.829255177573
0.212,1.7825771465922298,5907.715605563454
0.216,1.6571722107426106,5897.775060198516
0.22,1.4333355594688557,5902.629810641352
0.224,1.118038434877471,5894.945536778553
0.228,0.7293602025633216,5900.376580865881
0.232,0.29810111332231237,5898.270034424444
0.236,-0.13325148034090115,5905.276802648664
0.24,-0.5142525437285701,5901.893252257286
0.244,-0.7918638417592675,5902.709346626041
0.248,-0.9167551083903112,5903.13952236829
0.252,-0.8509973162971425,5905.500163216624
0.256,-0.5775468684451904,5906.158046656133
0.26,-0.10980418079953556,5905.046626810904
0.264,0.5029588175284321,5901.2690161242335
0.268,1.1785246417603032,5905.645013369261
0.272,1.8141495429881622,5894.223002439463
0.276,2.306062289289554,5900.710398666931
0.28,2.5716941398773776,5902.511404319343
0.284,2.5691533863496767,5894.6856556598495
0.288,2.3078714226907997,5898.878491170268
0.292,1.846446169711535,5901.481731927747
0.296,1.2786447064957729,5901.675108683613
0.3,0.7126684521142488,5896.498782038824
0.304,0.24949581438297677,5896.803409650885
0.308,-0.035443966079884696,5898.1231014716095
0.312,-0.10475879284585676,5905.100618630152
0.316,0.03556778926272176,5897.900090414492
0.32,0.33861268234699204,5898.960018872161
0.324,0.7266646366534999,5906.115207396539
0.328,1.1076488312563746,5896.979248415982
0.332,1.3946250103794182,5896.109182994754
0.336,1.524241444672814,5905.501262271434
0.34,1.4703509473337848,5909.63135740165
0.344,1.249830117011938,5903.119464155853
0.348,0.9185766665825724,5903.188591603789
0.352,0.5573281812258262,5896.486659567517
0.356,0.24990048013959884,5904.090944785109
0.36,0.05978127264281914,5911.16677399931
0.364,0.012692302226593519,5894.844715348199
0.368,0.09122663304022706,5896.5740572132045
0.372,0.24327600381941628,5904.127274874272
0.376,0.40074062057347387,5900.243515940905
0.38,0.5014798301713307,5902.70002893765
0.384,0.507147735507934,5900.224399934581
0.388,0.41215673974691913,5898.9597305219095
0.392,0.24258015625870388,5898.562555047759
0.396,0.04651510885795154,5901.184993177392
0.4,-0.12090002089809143,5904.189773350556
0.404,-0.21353852551503505,5895.323721757093
0.408,-0.2070223827486152,5897.222278861509
0.412,-0.10499232338091165,5896.082814129043
0.416,0.0623042304923924,5896.362255901679
0.42,0.2465158444331652,5897.675136034987
0.424,0.39455712440062657,5900.068319629896
0.428,0.4630977283172245,5900.481163554344
0.432,0.4298873221220537,5895.168582640619
0.436,0.2989951035723248,5896.546930007829
0.44,0.099374647489161,5897.500844575414
0.444,-0.12231760793323013,5896.892959821967
0.448,-0.31307262934225694,5897.092429434192
0.452,-0.4265587311778814,5900.933991325916
0.456,-0.43430866884273567,5908.24086207897
0.46,-0.33162314119532593,5907.637064796877
0.464,-0.1363798191674006,5907.161363083318
0.468,0.11855075077196767,5901.745522805885
0.472,0.3960500169163229,5907.744519000658
0.476,0.6639014600349264,5903.054968043967
0.48,0.8984628243279037,5910.355073693909
0.484,1.0824992905288193,5888.032616649822
0.488,1.2006764759711652,5899.175212837464
0.492,1.2374736470984005,5908.488825512566
0.496,1.1803242233671878,5905.936038569729
0.5,1.0271287275778167,5900.339000285991
0.504,0.7939034283425295,5904.402814196399
0.508,0.5171576189966373,5894.576922006586
0.512,0.2477598401246688,5895.740493812116
0.516,0.03763437601935532,5898.735744619626
0.52,-0.07524976881850871,5902.321830730337
0.524,-0.07728162438310042,5903.153952171041
0.528,0.018576854053719366,5910.264732065118
0.532,0.1783367791780004,5898.954819157853
0.536,0.35708365506719214,5893.280707273193
0.54,0.509756612215218,5896.837589797389
0.544,0.599799716001741,5910.474070290246
0.548,0.604645972539502,5897.766168572078
0.552,0.5181439962718563,5914.863565299197
0.556,0.35024382896436496,5911.109503461392
0.56,0.12437775648325583,5902.521029607437
0.5640000000000001,-0.12666130046968696,5897.972980388233
0.5680000000000001,-0.3655398083377129,5905.400264498409
0.5720000000000001,-0.5555329759554645,5897.764337253059
0.5760000000000001,-0.6658202902513323,5904.76258699444
0.58,-0.6763850290194598,5897.353189658708
0.584,-0.5813840584593715,5906.317480717221
0.588,-0.3896251602092857,5901.980415160487
0.592,-0.12160354446448188,5899.369394402806
0.596,0.19573198715478127,5891.883994388036
0.6,0.5340863031248191,5908.565222450764
0.604,0.8668162156792911,5892.318734868614
0.608,1.169515993637014,5900.937704800303
0.612,1.4195664852105672,5907.294665097243
0.616,1.5965249993058297,5909.539165614034
0.62,1.684088186579428,5892.202894051617
0.624,1.6725101831978022,5891.899163948081
0.628,1.5596484956795402,5898.664432548671
0.632,1.3500095087324402,5901.26019185823
0.636,1.0530145824807253,5907.239738777774
0.64,0.6824162277201906,5890.947086545676
0.644,0.25786885821967986,5892.737507514055
0.648,-0.19211281668745162,5900.902138125025
0.652,-0.628030639060726,5902.954123583834
0.656,-1.0005216411922682,5904.4586191644175
0.66,-1.2560312890417664,5901.899379965584
0.664,-1.346914892420821,5895.288187906835
0.668,-1.2443815309906645,5899.55270930576
0.672,-0.9507450611232113,5902.7481855563565
0.676,-0.5057757744293684,5900.845146406899
0.68,0.01737026412903376,5901.769683525069
0.684,0.5275049032599,5899.837095758668
0.6880000000000001,0.9380492160946173,5900.712956944965
0.6920000000000001,1.1892805511533002,5897.814006759233
0.6960000000000001,1.2618340959685883,5902.028415684672
0.7000000000000001,1.1764919304452857,5899.425795856053
0.704,0.9814786852679406,5895.420291163352
0.708,0.7336798468592817,5901.110600036294
0.712,0.4813715951447319,5896.385550516154
0.716,0.2537127826369986,5897.981924816733
0.72,0.05879725633438867,5898.285074230917
0.724,-0.11101239773310989,5905.228822420033
0.728,-0.26983994595852656,5899.133587019173
0.732,-0.429107783565356,5907.700842343028
0.736,-0.5915014696105438,5901.583215272363
0.74,-0.7494047280744118,5895.7532069745175
0.744,-0.8871500322770929,5904.821162153987
0.748,-0.9851131933096511,5900.453003892312
0.752,-1.0235317874823902,5899.298213673991
0.756,-0.9847055018886826,5905.3900951931455
0.76,-0.8535862618981119,5907.546151496242
0.764,-0.6183776382361247,5901.840422423632
0.768,-0.27361605282965007,5897.111430031008
0.772,0.1731069499355057,5898.7240385574405
0.776,0.6930671452976439,5897.100750348762
0.78,1.2322320612500384,5908.77443905936
0.784,1.7155109754910787,5907.785641561084
0.788,2.059588916045796,5896.256208403598
0.792,2.1903925354705716,5900.099443876453
0.796,2.0603261134665884,5908.021023135223
0.8,1.6615472828603421,5897.754808942129
0.804,1.0324538355081372,5897.499006589024
0.808,0.25525485782696933,5901.024445560909
0.812,-0.5559911158947315,5905.320839365379
0.8160000000000001,-1.2754404582537504,5899.12237361972
0.8200000000000001,-1.790312546190507,5904.084790081595
0.8240000000000001,-2.0253491967587496,5909.211284507322
0.8280000000000001,-1.9602580796884213,5902.126562355781
0.8320000000000001,-1.6342686824346102,5899.030398208616
0.836,-1.1357684015058636,5912.499329370044
0.84,-0.5798873422742541,5899.907867710776
0.844,-0.08026777197065764,5908.937923541352
0.848,0.2774093297324708,5891.239611924921
0.852,0.4527935200607181,5903.571358474656
0.856,0.453983335549408,5900.549044306334
0.86,0.3257966925912886,5895.8228510890285
0.864,0.12819757599467255,5903.83365903979
0.868,-0.0861889661674276,5897.79474792846
0.872,-0.28675278697090706,5897.5361323401885
0.876,-0.4675141036653494,5901.407010623092
0.88,-0.6392092721008176,5899.638249481989
0.884,-0.8159370084980128,5904.002803612024
0.888,-1.0019598538584469,5896.715847733153
0.892,-1.1833163481444304,5904.7424968028845
0.896,-1.3275607472432756,5889.394996988306
0.9,-1.3926813879436486,5899.033463284088
0.904,-1.34274576179436,5898.768886564817
0.908,-1.1642320954166214,5902.460588603865
0.912,-0.8755198348792937,5904.498300538033
0.916,-0.5244180331429747,5906.875447608557
0.92,-0.1741649441565713,5899.109688346188
0.924,0.11637756815889586,5903.081888693007
0.928,0.31044873365942144,5897.8018775576975
0.932,0.4024338547059923,5908.134945237844
0.936,0.41541417368251377,5899.772908197974
0.94,0.3892660693417627,5902.6969876561525
0.944,0.3650089707483649,5897.261351306618
0.948,0.3715208403467607,5902.208764751531
0.952,0.41813422640251746,5902.326432462758
0.956,0.4933619348822022,5906.297890285568
0.96,0.5683642741455687,5904.709285637341
0.964,0.6040297288237613,5908.5349625093495
0.968,0.5611098113937978,5890.5039425709765
0.972,0.4122229699619742,5907.022695677593
0.976,0.15285448456926615,5903.971250947759
0.98,-0.1927826211976562,5896.519304287793
0.984,-0.5744349880743886,5900.19314777679
0.988,-0.9274087897802271,5900.852137348345
0.992,-1.1895673326100948,5903.395056723679
0.996,-1.3178301396323522,5901.630592155693
1.0,-1.2987536461807634,5900.238362395033
1.004,-1.1505029655178063,5894.786976977655
1.008,-0.9165647005812034,5903.309056623152
1.012,-0.6534583583283248,5898.511945662512
1.016,-0.4156240591162658,5909.098632914699
1.02,-0.24129536016291364,5894.212339695036
1.024,-0.1433826887764507,5902.670548132412
1.028,-0.10845665124172638,5901.221847943487
1.032,-0.10440331793808538,5901.808668528252
1.036,-0.09380705735148395,5895.961933655517
1.04,-0.047476137225723185,5906.764857000882
1.044,0.0472180544700713,5907.703771676885
1.048,0.18527117902663837,5897.67835197979
1.052,0.3483864385389781,5903.531439017763
1.056,0.5110940425851405,5905.660002595418
1.06,0.6462398518243151,5899.500069038176
1.064,0.7294673027569195,5898.267892563365
1.068,0.7427491697451604,5901.480587166679
1.072,0.6764318282024894,5904.241113915959
1.076,0.5295603834521629,5902.828631834035
1.08,0.30932697536752196,5907.338172780218
1.084,0.03078861358532815,5906.122259359812
1.088,-0.2830122784844643,5904.6846266851935
1.092,-0.6019326651760862,5894.85018083246
1.096,-0.8925446153342782,5899.062371074087
1.1,-1.125044471408216,5898.2606512092525
1.104,-1.2802767887613562,5895.778918708969
1.108,-1.3523697476546916,5900.154022103421
1.112,-1.3446310563321162,5900.8502086063945
1.116,-1.2609599985777773,5895.5310729142575
1.12,-1.0986163232312192,5899.941847205445
1.124,-0.8479551863658038,5897.3022195560025
1.128,-0.5005367194565331,5895.706351850038
1.132,-0.06133191320790949,5897.010889431218
1.136,0.44257403840657855,5898.121343830845
1.14,0.9625348169999396,5896.770879963319
1.144,1.4379349528909529,5893.905529366894
1.148,1.8092791770225174,5907.301362714267
1.152,2.0287659980783417,5903.419708955954
1.156,2.066070338113883,5906.1788197579845
1.16,1.910491722345398,5906.2051169643
1.164,1.5708655076733273,5904.709630169198
1.168,1.073513867040606,5907.629461291507
1.172,0.458862559233875,5903.052398452914
1.176,-0.2217311961693622,5911.122642872915
1.18,-0.9084762472443956,5894.6200402622335
1.184,-1.5367757702383371,5904.591192752854
1.188,-2.044073980119415,5899.008065070844
1.192,-2.3797053221079287,5901.712901899107
1.196,-2.514966427575413,5902.070518294472
1.2,-2.4496233987542233,5895.262309235354
1.204,-2.2118685153342086,5893.565672187044
1.208,-1.8511078647231243,5906.536476738486
1.212,-1.4260115390775219,5911.0605033122
1.216,-0.9921570393941915,5904.873471098759
1.22,-0.5930457905533739,5899.5747978901545
1.224,-0.25601259881483024,5905.947726865311
1.228,0.007493607775496536,5899.867648227238
1.232,0.19867550595305583,5907.464070709301
1.236,0.32698050200219764,5906.560234383956
1.24,0.406575957054199,5908.274905392238
1.244,0.45517377652557506,5903.050617154394
1.248,0.4946452030250371,5902.579582268366
1.252,0.5506133261586242,5905.014583851315
1.256,0.6480027739975424,5897.683659617826
1.26,0.8022909459924294,5914.464419909974
1.264,1.0099941551799878,5900.316864210647
1.268,1.2433928583267986,5903.340278094848
1.272,1.4525571916166957,5899.889915770556
1.276,1.5747651898790362,5907.538050665049
1.28,1.5497962409265242,5905.207860550188
1.284,1.3385689083241916,5903.000165665834
1.288,0.9405873805474675,5904.6448928384925
1.292,0.40386586175988226,5898.906115954363
1.296,-0.17808274225781057,5894.936413150961
1.3,-0.6837822579240649,5902.707961148
1.304,-0.9925687772106576,5902.429713896017
1.308,-1.017133626783286,5907.351329436544
1.312,-0.730235546752308,5900.946739667291
1.316,-0.1770973381318889,5891.809223576208
1.32,0.5308161164126369,5905.7303669841385
1.324,1.2396616123126556,5903.634609765291
1.328,1.7894421573585335,5901.530677057299
1.332,2.054187558832642,5902.504202373376
1.336,1.9751814311811198,5904.645628453392
1.34,1.5761095134779433,5902.32108883823
1.344,0.9539162772350029,5898.013988264921
1.348,0.24842491701440492,5899.419656083783
1.352,-0.39776866444930054,5906.8088175629455
1.356,-0.8749021454049559,5897.56741689613
1.36,-1.1268201050360103,5895.183723286968
1.364,-1.1539964914034455,5900.062883053838
1.368,-1.0023081121391844,5899.448969552148
1.372,-0.7437239504279722,5896.206131769765
1.376,-0.4546875160607688,5897.415282490832
1.38,-0.1969596966517383,5898.123385536743
1.384,-0.004959548400717852,5897.55036560009
1.388,0.11773827912168063,5912.109623402835
1.392,0.19244142685507684,5906.954302906228
1.396,0.25207720468542416,5897.704003036875
1.4,0.32488171540515093,5893.09852774455
1.404,0.42069429947159104,5902.487975516638
1.408,0.5251497190015445,5912.040213566132
1.412,0.6042510327711049,5889.411348812047
1.416,0.6176261424863255,5899.781786634918
1.42,0.5351920294640663,5904.13010748211
1.424,0.35053190750222196,5897.465900963163
1.428,0.0857287644781527,5904.122875254082
1.432,-0.21395569844304552,5897.093734622018
1.436,-0.4931990016534203,5895.732012478256
1.44,-0.7026279017946009,5898.693871937293
1.444,-0.8122523366489764,5904.210235671056
1.448,-0.8179667251868428,5908.306023313718
1.452,-0.7391104278148721,5904.484476811325
1.456,-0.6082637936528481,5911.146932168911
1.46,-0.4576266874620901,5907.049972971625
1.464,-0.30787970933167963,5899.692819966253
1.468,-0.16404105031853025,5897.497066281814
1.472,-0.01916259909532545,5903.972146736553
1.476,0.13690510951914114,5900.898361086376
1.48,0.30825935874295024,5900.735842052168
1.484,0.4874490062327264,5899.747922183044
1.488,0.655826114532159,5899.768477605688
1.492,0.7889783270397727,5904.971697146684
1.496,0.8645778132314291,5903.862617426266
1.5,0.8695557098068387,5898.846576465771
1.504,0.8038447273410663,5894.913963846536
1.508,0.6790210462231305,5903.268321065777
1.512,0.5126381411208715,5907.1681087306615
1.516,0.32195873487084004,5905.080177630816
1.52,0.12165891196831716,5904.113266903903
1.524,-0.07256892418308829,5897.544895489702
1.528,-0.2373418140747404,5904.0541193296085
1.532,-0.33795962065735574,5908.055791287507
1.536,-0.33287047972989303,5901.375181815378
1.54,-0.18632589797127438,5900.879730037403
1.544,0.11596007290453142,5905.095228489807
1.548,0.5554553457515123,5895.399149460923
1.552,1.0790776363156966,5899.137915792999
1.556,1.608032856915175,5897.584470852274
1.56,2.0541345486467377,5897.913133536586
1.564,2.338636320024477,5911.040991685099
1.568,2.4088813903683004,5897.1065062260695
1.572,2.249156291193425,5908.469684776836
1.576,1.8831778166757636,5910.489894787222
1.58,1.3672195529840645,5902.479490986141
1.584,0.7755159343635726,5906.937176466379
1.588,0.18245792689641732,5903.072571431576
1.592,-0.35232278511290954,5909.474117305323
1.596,-0.7910180063306341,5902.915709583407
1.6,-1.1158737400035055,5902.991527444926
1.604,-1.3220403883582839,5901.3115090958845
1.608,-1.4102469375997382,5896.824508383295
1.612,-1.383126524047684,5908.825788945175
1.616,-1.2464015534687016,5903.377038804455
1.62,-1.013445019702652,5904.603476098549
1.624,-0.7094726000530815,5907.564522961503
1.628,-0.37142054860311785,5900.886948951807
1.632,-0.042455542691901535,5904.794790047613
1.636,0.23623800617375373,5896.941324458766
1.64,0.43271214256475227,5904.187367255276
1.644,0.528792964785186,5893.520201310068
1.648,0.5222017713617711,5895.684575723104
1.652,0.42680216137589283,5904.72340676181
1.656,0.2707395245854753,5894.510784526537
1.66,0.09209242040059862,5902.651795971431
1.664,-0.06747702984384109,5898.627588528867
1.668,-0.16966882033940237,5906.748503289224
1.672,-0.18565550127254396,5901.021497112886
1.676,-0.10057312656888191,5898.040665581336
1.68,0.08396937780966456,5905.873431078685
1.684,0.3498688327279306,5904.207263214738
1.688,0.6656447186863566,5899.688681177716
1.692,0.9927713138701334,5899.436867336937
1.696,1.2940305473183624,5900.13626113326
1.7,1.5413597036440558,5895.735301928748
1.704,1.7200427758153842,5894.673455017014
1.708,1.8271232646194537,5901.509043017318
1.712,1.865026671639811,5906.636232082858
1.716,1.8349262168899987,5891.922371482146
1.72,1.7351051316417103,5895.87692514426
1.724,1.5659215366021753,5901.249165385903
1.728,1.3375947987939458,5887.9600870269005
1.732,1.0745764787770131,5907.242256620886
1.736,0.8127109482028685,5902.560388246568
1.74,0.5901805331624518,5907.894735469351
1.744,0.43648064430856476,5900.495253891726
1.748,0.36413404288898293,5899.528472047336
1.752,0.3665784177692671,5904.625483922522
1.756,0.4231294477891259,5893.883051070543
1.76,0.5083749729780328,5897.790965053262
1.764,0.6009004604323502,5900.998266797972
1.768,0.6871814922352576,5894.439640845312
1.772,0.76002788094226,5910.048935817319
1.776,0.8141036547393421,5901.385790110068
1.78,0.8419241896818578,5897.002938108319
1.784,0.8327563494216481,5899.20664523869
1.788,0.7751657990914061,5900.132246340486
1.792,0.6622014861847905,5904.0968249192165
1.796,0.4969064572204195,5896.876118541297
1.8,0.29573427327291113,5906.450466247857
1.804,0.08841296199018622,5891.2494679433685
1.808,-0.08624362599912039,5903.788268965312
1.812,-0.18832396044472405,5900.00143629677
1.816,-0.18687963526522436,5889.83850723293
1.82,-0.06847157037776201,5895.511495396457
