时间(s),电压(V),幅值(高频80K)
0.0,0.7814507422787725,5909.2919574846765
0.004,1.151888884227538,5903.974250292024
0.008,1.448846210008698,5905.996927844392
0.012,1.6231201623093492,5891.657472175382
0.016,1.665144320531603,5900.002556967695
0.02,1.6040003161732945,5890.017740019997
0.024,1.491765402896212,5901.086009064497
0.028,1.3803980668875753,5898.753926982455
0.032,1.300372454476582,5905.19067908935
0.036,1.24957371599598,5896.265551688721
0.04,1.197495181138081,5890.003086906501
0.044,1.1030223573740123,5896.791411572842
0.048,0.9368804703635245,5895.301294070734
0.052,0.6975537962880471,5898.337842960704
0.056,0.4138868274712531,5902.685174064928
0.06,0.1348487462289657,5899.375177648236
0.064,-0.08768035059262297,5907.454653175737
0.068,-0.2158480908100799,5898.214567710571
0.072,-0.23703423011922842,5891.287833104744
0.076,-0.16663953909366422,5890.954166188079
0.08,-0.04214344492561407,5901.5181464588295
0.084,0.0896950616960782,5900.277994160034
0.088,0.18822640743370989,5897.663108535669
0.092,0.231036186904487,5904.6325230504335
0.096,0.2180429304492069,5891.927246876221
0.1,0.16676705307120862,5893.585426950748
0.104,0.102136799429539,5899.562081406347
0.108,0.04565525693956814,5905.131218964474
0.112,0.007303403806828123,5902.402409643545
0.116,-0.018609910059819334,5906.786158678255
0.12,-0.05321051802510861,5892.669944073322
0.124,-0.12763957915097487,5896.79506605797
0.128,-0.2723894140260304,5897.004532721746
0.132,-0.5040387504252298,5897.350541505338
0.136,-0.8147675085885777,5903.740171161246
0.14,-1.1701823880844215,5907.251297394973
0.144,-1.5177379952085839,5898.72716566567
0.148,-1.802989239267139,5895.086058823955
0.152,-1.9869382930712898,5899.324902977497
0.156,-2.0568771576582434,5907.206327399992
0.16,-2.0256590339370417,5896.918757294443
0.164,-1.9195524720226602,5902.529227510358
0.168,-1.7609063359850978,5898.852289069584
0.172,-1.5552670526986416,5911.753013331238
0.176,-1.2903867090186272,5912.585384907296
0.18,-0.947773567154666,5902.334320699827
0.184,-0.5206305746972684,5903.94401062662
0.188,-0.029101366192351687,5893.840040495832
0.192,0.4746671437797054,5892.923041405368
0.196,0.9147209934961478,5899.139828891955
0.2,1.210769265144918,5910.160070541101
0.204,1.3026552691980202,5907.919811138301
0.208,1.1707811026153112,5888.600029414882
0.212,0.8437871420986801,5895.611201225284
0.216,0.38996009274433757,5903.888743753087
0.22,-0.10326503617989304,5895.0439829448005
0.224,-0.5524791696548567,5892.660839218335
0.228,-0.8962124671569552,5896.198173883273
0.232,-1.1042649685250008,5909.009991284865
0.236,-1.1786141295647041,5894.748871205351
0.24,-1.1473299940841073,5886.523555666022
0.244,-1.0535931044792637,5902.966427697863
0.248,-0.9427761707989194,5906.479567045718
0.252,-0.8508691436753769,5890.929713042947
0.256,-0.7968243816105008,5884.71085012226
0.26,-0.7802188114187565,5906.16746202678
0.264,-0.7844337616473193,5900.628479416993
0.268,-0.7842447757982868,5895.033087350702
0.272,-0.7555120406881185,5899.782537575812
0.276,-0.6841507624230293,5901.899508895995
0.28,-0.5717839478116672,5898.088715984461
0.284,-0.43624569915717804,5899.787117405689
0.288,-0.3065648434115584,5903.504650915265
0.292,-0.21390767815323783,5902.493042098387
0.296,-0.18120474989155633,5910.7731738913335
0.3,-0.2143586083780326,5896.388754140898
0.304,-0.2975292627353681,5905.928004979355
0.308,-0.3945471781857238,5895.38129742153
0.312,-0.457526089102944,5894.490441347289
0.316,-0.441375097773802,5898.895835871668
0.32,-0.319869021006894,5896.608287523848
0.324,-0.09738884119239417,5897.998851979753
0.328,0.18845398385437132,5899.963622376404
0.332,0.47497946091747467,5893.093018306595
0.336,0.6912663675323534,5901.812840787217
0.34,0.7782943501520999,5911.316240397806
0.344,0.705399289773637,5903.286638668793
0.348,0.47714216427041245,5903.140559179989
0.352,0.1290158718356015,5893.1312688428025
0.356,-0.28425749457225724,5898.107316624575
0.36,-0.7014881963254371,5900.058465853709
0.364,-1.0641048377446642,5899.843328103789
0.368,-1.3209420085078176,5896.027360675935
0.372,-1.4314901598277303,5894.126181217287
0.376,-1.37040357647787,5900.219633494931
0.38,-1.1332835889330737,5900.654490251305
0.384,-0.741344742072836,5898.8632912533785
0.388,-0.24210464254086939,5904.94465567372
0.392,0.29613593778979574,5906.865917037879
0.396,0.7967144668928503,5893.427999567756
0.4,1.1916732686766942,5900.777674485286
0.404,1.4379992610017929,5893.231051223211
0.408,1.5265513866753768,5895.249700169971
0.412,1.479846184767437,5894.937309058695
0.416,1.3399896282324297,5899.390797949827
0.42,1.1525268957446182,5913.799144856697
0.424,0.9533141066688017,5894.19619100091
0.428,0.7630600467193067,5897.957510211021
0.432,0.5893816853744461,5902.217915245593
0.436,0.4322823327832295,5902.031470122791
0.44,0.28849933097129676,5898.202347827446
0.444,0.15271064276507895,5908.938403067007
0.448,0.016671574522217274,5904.009776202334
0.452,-0.1309783267691863,5907.058288387672
0.456,-0.3019675443368673,5899.726782178367
0.46,-0.5025690814653998,5893.152598908599
0.464,-0.7267822501441148,5898.917710576007
0.468,-0.9516398676754083,5884.2078309427
0.472,-1.1378084927349508,5897.732506937959
0.476,-1.2377502289754045,5904.842426184468
0.48,-1.2108294153568553,5900.0252679319965
0.484,-1.0403035121286988,5901.848753618357
0.488,-0.7443773170710474,5904.322236714175
0.492,-0.3753291517691027,5898.304003741995
0.496,-0.006404630750485514,5899.4970541580815
0.5,0.28812786923743366,5907.45894792
0.504,0.45221926147119645,5904.206530119121
0.508,0.4607030960906929,5898.651660479663
0.512,0.3225969786055547,5902.389230333443
0.516,0.07513329176944852,5903.7148121391765
0.52,-0.22882780654849366,5897.847016482034
0.524,-0.5356949362588905,5891.851748130021
0.528,-0.8042178971343403,5898.594225994517
0.532,-1.0138952062868178,5894.133080036808
0.536,-1.1668361162823828,5898.618451273784
0.54,-1.2820481485496948,5897.626232111585
0.544,-1.3831991357365683,5892.211314462725
0.548,-1.4840781288406972,5894.922116025498
0.552,-1.5781956058722166,5902.854383340936
0.556,-1.6381619630016713,5907.186529918904
0.56,-1.6263277960742861,5896.313615423839
0.5640000000000001,-1.512581882671472,5898.927014004121
0.5680000000000001,-1.2914171317558123,5892.230611990784
0.5720000000000001,-0.9904504768297799,5899.067946470143
0.5760000000000001,-0.6660528231988943,5905.365746231022
0.58,-0.38696035908543225,5894.899476076627
0.584,-0.21189840961477596,5895.571325629725
0.588,-0.17003669129836843,5899.532866150629
0.592,-0.2517285182576047,5900.278095554398
0.596,-0.4122012194915588,5899.763232177201
0.6,-0.5855490054562887,5895.444774205194
0.604,-0.7031879135441279,5900.027116965044
0.608,-0.7107438240390219,5901.674073452184
0.612,-0.5794644563852113,5885.268236309143
0.616,-0.3110476377321181,5895.832374929008
0.62,0.06351581522044837,5905.127479150536
0.624,0.4901958838045095,5893.639786670392
0.628,0.902148758910399,5896.101649735497
0.632,1.2320663204378972,5904.03826057756
0.636,1.424671033094601,5891.298738492308
0.64,1.4479370671203855,5896.718580097544
0.644,1.3014558684529292,5895.029204800092
0.648,1.019360298770043,5902.153950304898
0.652,0.6652393611309,5891.798070647014
0.656,0.31877367386600647,5896.437244598182
0.66,0.057347211734967395,5898.2197514195705
0.664,-0.06183688121391287,5895.011794086298
0.668,-0.01426935949114416,5900.3863278701465
0.672,0.18684585099416232,5895.459864487535
0.676,0.49287194498683456,5902.125554976808
0.68,0.828623949079368,5896.931742971998
0.684,1.1074932333327214,5892.689861941443
0.6880000000000001,1.2516139695925017,5909.879275005536
0.6920000000000001,1.21319213742973,5895.4934227764425
0.6960000000000001,0.9904213844880966,5898.375731362646
0.7000000000000001,0.6313893837303489,5891.741651278728
0.704,0.22271915122901598,5896.635794850173
0.708,-0.1350924104218582,5903.434165089973
0.712,-0.3584025962616322,5895.834261207062
0.716,-0.4065664319270269,5910.841004166044
0.72,-0.29363249881085984,5896.136280454085
0.724,-0.08139820764014284,5902.606932754525
0.728,0.1427872570068179,5902.383689067818
0.732,0.294905365574216,5895.249302621354
0.736,0.3201830397423906,5895.019121326176
0.74,0.20822502408618043,5897.86887341887
0.744,-0.006966261344386065,5901.24270658063
0.748,-0.26154984142957216,5903.012381479564
0.752,-0.48512257086742,5897.249617766964
0.756,-0.6237652981564024,5894.398261398357
0.76,-0.6552505111145259,5906.89305062967
0.764,-0.5931159988748557,5895.936671623937
0.768,-0.48008181311780523,5896.255698981788
0.772,-0.3732767002900824,5894.625458989426
0.776,-0.3251386536243976,5894.380778655465
0.78,-0.3652745902490161,5897.890011467759
0.784,-0.4892820717570436,5904.339971972124
0.788,-0.6593630046355683,5896.167533856936
0.792,-0.8175473882889441,5897.920844738828
0.796,-0.9064644904745195,5898.605706339484
0.8,-0.888483753565648,5903.724798254076
0.804,-0.755032642670587,5898.685803013951
0.808,-0.5235328686884005,5901.671058290139
0.812,-0.22594729207099515,5897.8367521882265
0.8160000000000001,0.10346133563170926,5898.453005990643
0.8200000000000001,0.43465214111829237,5890.655273239274
0.8240000000000001,0.7408177702194284,5902.522852257975
0.8280000000000001,0.9931540918937785,5901.836905525969
0.8320000000000001,1.1569914348747028,5906.926937540758
0.836,1.1937586978874963,5899.003647680443
0.84,1.0698302425398774,5900.507624489455
0.844,0.769376153844595,5906.608723767443
0.848,0.30578767974335885,5898.048415222736
0.852,-0.2736717607720972,5891.025260454057
0.856,-0.8930499162855012,5900.916994412169
0.86,-1.4626537637781458,5907.833106518671
0.864,-1.9003984084067944,5895.946944446132
0.868,-2.1531179546510644,5901.5383239675575
0.872,-2.210156896234339,5897.180777845636
0.876,-2.103917261563239,5904.165353128588
0.88,-1.8972176604349114,5903.734657673656
0.884,-1.662319878293577,5906.269418369001
0.888,-1.459022265459572,5894.34276727858
0.892,-1.3188141383732919,5892.77803699773
0.896,-1.2391138011110259,5898.641567891792
0.9,-1.1874571827874163,5903.409986359568
0.904,-1.1125396351207935,5902.5319669786295
0.908,-0.9586200302069945,5892.834464788756
0.912,-0.6809644515177821,5898.252986825739
0.916,-0.26054158623955803,5902.530814011704
0.92,0.28504354101171236,5897.5187687462
0.924,0.8989679554483915,5899.51806195019
0.928,1.4945599786933865,5901.169595986243
0.932,1.975670658445564,5898.330208509662
0.936,2.261667774070587,5887.8782359659335
0.94,2.308190342442546,5901.584124642148
0.944,2.116837109941461,5901.2941706716
0.948,1.7320572235995846,5890.784302251325
0.952,1.228610409902167,5893.664047338425
0.956,0.695306036312515,5897.061351492998
0.96,0.21957982437414858,5896.708749203719
0.964,-0.12532437049636086,5892.76544516799
0.968,-0.29055920838509786,5899.823666925404
0.972,-0.25898417782309746,5903.073255158012
0.976,-0.048144959205755414,5893.176639654353
0.98,0.29280388551246866,5902.310664695225
0.984,0.692715599159303,5895.215793436682
0.988,1.073065305382185,5903.790132258738
0.992,1.3642162153609223,5892.066835939461
0.996,1.5189611303688026,5907.335372331247
1.0,1.5194420668749504,5895.73764879766
1.004,1.3761360618507505,5898.611427237343
1.008,1.1210712126085958,5895.457708244731
1.012,0.799226555717883,5895.109666726436
1.016,0.4611179523838097,5892.175597308192
1.02,0.15732355986930258,5900.721086224657
1.024,-0.06606711753621759,5899.009396522302
1.028,-0.17272359727460987,5897.321017654323
1.032,-0.14285517342589166,5903.465352308256
1.036,0.020016317197333378,5892.329338864333
1.04,0.2858570773964518,5903.474053527541
1.044,0.6015697114087318,5897.596343766426
1.048,0.9013680332217355,5899.963136529843
1.052,1.1215289392611658,5904.868301429679
1.056,1.2152718941038787,5900.3369827242805
1.06,1.1629863095487973,5901.642203758077
1.064,0.9744080280245909,5892.01401140306
1.068,0.6827866049620029,5893.13771577749
1.072,0.33430116725568154,5885.481103874454
1.076,-0.023424228104758294,5906.325089161107
1.08,-0.3511715831879695,5902.493534054403
1.084,-0.6245604134225019,5910.249708926142
1.088,-0.8350919298039786,5903.934477383927
1.092,-0.9848815537488667,5887.336297733652
1.096,-1.0774025507388503,5894.982182871426
1.1,-1.1096020326791058,5902.944166702974
1.104,-1.0703910870648394,5895.43436626891
1.108,-0.946520911408632,5909.205565219983
1.112,-0.7322255559672943,5901.0163746954095
1.116,-0.4371507863269994,5896.941579573212
1.12,-0.0888785468705309,5900.710562770154
1.124,0.27045377269244975,5904.452661696532
1.128,0.5920605485040039,5900.6848488823625
1.132,0.8310831248147633,5896.500044369426
1.136,0.9572265819482031,5903.355283382778
1.14,0.9619990402345431,5903.577199808053
1.144,0.8600755163075213,5887.2195148142455
1.148,0.6849162270438884,5899.03174413577
1.152,0.4805691763134821,5904.955942675933
1.156,0.29200024124408436,5903.308269170806
1.16,0.15652003880419868,5898.082990378345
1.164,0.09848346740717344,5897.974356781901
1.168,0.12763525552048827,5895.889761516432
1.172,0.23999597385967292,5901.400205970678
1.176,0.42042846288572744,5892.906307485588
1.18,0.6461867128004395,5900.017716531131
1.184,0.8896202079301553,5897.496080193496
1.188,1.1182114953404123,5893.494293684175
1.192,1.2931429497449427,5903.450586840954
1.196,1.3707585945035334,5893.632719457724
1.2,1.3102274692672478,5901.781590016548
1.204,1.0857229752379627,5892.197910838659
1.208,0.697436998956308,5893.67249774478
1.212,0.17616289557726164,5902.022890804892
1.216,-0.42031938872744434,5892.326081649797
1.22,-1.0174549024869628,5895.856747759571
1.224,-1.537591678714551,5895.316238660183
1.228,-1.9140441688255947,5900.496589370184
1.232,-2.103056206519442,5898.29592992197
1.236,-2.0915847300469403,5902.494372208991
1.24,-1.899055687593278,5898.557685501701
1.244,-1.5721656690849088,5894.136467686644
1.248,-1.1741324724525988,5902.466083586253
1.252,-0.7721583822236145,5904.075336676295
1.256,-0.426611952528819,5896.899988419507
1.26,-0.18250350997053752,5907.725659079611
1.264,-0.06172992852012418,5893.675879989292
1.268,-0.056231660907757976,5903.397939466579
1.272,-0.12608827308116408,5893.476737800925
1.276,-0.20779307002777722,5895.863185039131
1.28,-0.23350773810162467,5902.661388737018
1.284,-0.15467892540058492,5897.554917600147
1.288,0.040818341916835685,5902.728080986353
1.292,0.3261346327343603,5899.825128637461
1.296,0.6478495905877897,5901.47585597947
1.3,0.9460407647836604,5899.598610220138
1.304,1.1719469631124777,5901.7979011928455
1.308,1.2967550194188853,5901.7013362789685
1.312,1.3119240168046908,5900.053897734236
1.316,1.2259751804559578,5901.645633778333
1.32,1.0618966972768533,5897.482446175712
1.324,0.8554066214897749,5897.7969451677045
1.328,0.6514209709699298,5895.155733176797
1.332,0.4963331598449222,5907.619775622133
1.336,0.4264277040249609,5898.116904173261
1.34,0.4559470209053215,5899.784401620223
1.344,0.5700904291143306,5901.118187956651
1.348,0.72704872775603,5904.012836773776
1.352,0.8689791611304957,5902.983682747553
1.356,0.9371690649173517,5898.147380083387
1.36,0.8851680809480315,5903.8384879246805
1.364,0.6864005577219496,5896.221917664231
1.368,0.33695669583244614,5903.186757399593
1.372,-0.14361599903082914,5893.543726318927
1.376,-0.711772700169123,5901.950947797042
1.38,-1.3008078596464376,5899.160565133223
1.384,-1.8264000817282458,5896.676394476964
1.388,-2.1995327128589968,5899.32000203409
1.392,-2.3456283054581433,5897.539451115101
1.396,-2.224239582929559,5899.324281464661
1.4,-1.8418955374143362,5897.521007878801
1.404,-1.2530240803436405,5900.303570181481
1.408,-0.5487062514460671,5901.627801373704
1.412,0.16249009490744737,5903.82236581221
1.416,0.775489751428985,5904.508299263492
1.42,1.2065418859676955,5897.791254163599
1.424,1.405382315353842,5889.917345465142
1.428,1.360984501232336,5901.985024191186
1.432,1.1010043259367337,5903.106646600269
1.436,0.6857283520332844,5900.33221680521
1.44,0.1979264343464558,5900.856525275075
1.444,-0.270141877478154,5896.046260809733
1.448,-0.6318157954635131,5902.014213180695
1.452,-0.8218956865079343,5895.978623190208
1.456,-0.8102203699234629,5899.7136009918
1.46,-0.6089608381163867,5896.7950915414285
1.464,-0.27079292999287824,5889.859240484479
1.468,0.12253427602395991,5892.732184510085
1.472,0.4792037003720871,5891.744346146845
1.476,0.719361357186077,5890.5820968104135
1.48,0.7938660412511513,5904.296809270347
1.484,0.6938898553322859,5902.797162786202
1.488,0.44857888015067277,5899.448310583321
1.492,0.11240986259365095,5895.043747475311
1.496,-0.2523590396594502,5893.341181577595
1.5,-0.5911996116655215,5901.393440518086
1.504,-0.8654271450323295,5906.225908161524
1.508,-1.0519895768942489,5899.913744171998
1.512,-1.1386619197837808,5905.190511861773
1.516,-1.1197548116632516,5907.619657699406
1.52,-0.9949225869212729,5894.673803333364
1.524,-0.7702847405609113,5906.59591787102
1.528,-0.4599664942186617,5902.689166805327
1.532,-0.08711891212719027,5901.449194746221
1.536,0.31580346202378384,5891.080712280298
1.54,0.708062519416556,5908.119487673719
1.544,1.043778201192957,5896.276721102856
1.548,1.2774469211292525,5904.120469485361
1.552,1.3709704332325068,5902.177048834491
1.556,1.3003154352073865,5899.163511306845
1.56,1.0597367573372836,5911.504720255743
1.564,0.6624906421147678,5888.673033258612
1.568,0.13870810290016164,5892.50249363236
1.572,-0.4674344856220443,5894.980079831752
1.576,-1.0992020669553293,5901.890359840485
1.58,-1.6878000400742892,5892.7997872936985
1.584,-2.155552406528273,5899.045818033433
1.588,-2.4261849823389925,5900.805687276473
1.592,-2.4427859272315127,5902.995275481058
1.596,-2.187808250177736,5893.909627906296
1.6,-1.6957141494986685,5904.003117513668
1.604,-1.0505399912177578,5907.353178119713
1.608,-0.3668981507205397,5890.94129371571
1.612,0.23982818190579785,5901.754111734941
1.616,0.6838277763728947,5892.553884401315
1.62,0.9294967516637621,5898.43689092158
1.624,0.9959844233683853,5891.288769764604
1.628,0.9449584644810273,5893.00047588545
1.632,0.8564708999319951,5896.159735761533
1.636,0.801555135608637,5898.268759682317
1.64,0.8207694134673158,5897.72309135491
1.644,0.9151961462910454,5902.7103403777855
1.648,1.0516250292439586,5898.020475303487
1.652,1.1784853736233714,5891.995733918126
1.656,1.2453063354340883,5904.001975629737
1.66,1.2178588902800753,5895.710134755744
1.664,1.0844032609571017,5898.008663663019
1.668,0.8536711367475773,5906.367111829683
1.672,0.5486645728516049,5894.098275416245
1.676,0.2003310896980338,5897.2112489469455
1.68,-0.1568751107613851,5907.831036405645
1.684,-0.48762264755542656,5895.075425241727
1.688,-0.7577532732490425,5901.350243308718
1.692,-0.9368492063005175,5897.747160744189
1.696,-1.0015123068054879,5895.508340718409
1.7,-0.938938773593542,5896.222576926416
1.704,-0.7501715697780523,5897.487542918353
1.708,-0.45220174849666384,5891.8286933654845
1.712,-0.07819046861317414,5905.684146681014
1.716,0.32445969078828507,5891.166631871063
1.72,0.6984625190516455,5892.184384837519
1.724,0.9839389405490178,5891.146841020388
1.728,1.1283224156410947,5895.857826272248
1.732,1.0970124711573905,5891.706067894591
1.736,0.8822493598016032,5904.122462057288
1.74,0.5081275163759319,5899.219108598352
1.744,0.030102183602573673,5899.113597948345
1.748,-0.4724467617922674,5902.805350372629
1.752,-0.9109107930193824,5898.876838932299
1.756,-1.2070466791225443,5891.224103687348
1.76,-1.3122642806666924,5888.464591279058
1.764,-1.2206033004925356,5894.488137173519
1.768,-0.9709829652363657,5896.966213807957
1.772,-0.6370195807007678,5900.827950445343
1.776,-0.3061493700324773,5893.613208974307
1.78,-0.05401157313518076,5896.319080421083
1.784,0.0768869300478391,5909.238399452012
1.788,0.08608842854102419,5899.819088128135
1.792,0.008642704646905773,5901.395468858725
1.796,-0.10342717651108946,5895.917864208123
1.8,-0.20361926737788824,5888.0377309313135
1.804,-0.26848081860113115,5902.670070185745
1.808,-0.3039280920238467,5907.407871848854
1.812,-0.33907530107847983,5896.90923367758
1.816,-0.4112330341319564,5901.279151677937
1.82,-0.548174977842733,5902.220703552465
