时间(s),电压(V),幅值(高频80K)
0.0,1.6720594503316575,5895.073351283795
0.004,1.3925333126910553,5899.390196659272
0.008,1.1424478769895319,5898.912068989384
0.012,0.9504335973099672,5892.346486424322
0.016,0.826381132692312,5899.608907766603
0.02,0.761069330592586,5894.023981245874
0.024,0.7333745330880832,5901.323020192132
0.028,0.721167277760768,5900.228408674617
0.032,0.7100690696377373,5893.772518716434
0.036,0.6962472405140557,5901.161873027261
0.04,0.6835944758510082,5891.462500902371
0.044,0.6782035101861826,5896.877820140569
0.048,0.6823946434783491,5896.168540814106
0.052,0.6890595901957451,5909.403830240874
0.056,0.6779129443446557,5893.813177061213
0.06,0.6174271940714544,5898.098237420192
0.064,0.4753034043962105,5907.35207533248
0.068,0.23489424097113315,5897.374287456625
0.072,-0.09052955534505433,5905.357640447713
0.076,-0.45434185015676587,5896.282949715456
0.08,-0.7875532780448866,5902.686394446846
0.084,-1.0203647111834904,5904.841342878151
0.088,-1.1050315919073148,5901.371450265464
0.092,-1.0305444264647885,5902.017711572348
0.096,-0.8239689268886488,5895.335236572633
0.1,-0.5390017891557453,5900.169927972507
0.104,-0.2369247193313335,5894.265578950374
0.108,0.032217309641827056,5899.74174252189
0.112,0.24085003091405552,5898.912455454359
0.116,0.3844688044226012,5909.174994985798
0.12,0.4744615929367256,5898.395869473909
0.124,0.5290198073182264,5889.215537049377
0.128,0.5661195573200277,5897.186501865029
0.132,0.598789041704756,5906.373137899441
0.136,0.6315402953873835,5902.265516869899
0.14,0.6583874758444558,5896.946835420246
0.144,0.6641120426947601,5904.190229464088
0.148,0.6293020095868752,5905.0016919472655
0.152,0.5375536239019735,5904.952893432191
0.156,0.38232664355665813,5903.929400994781
0.16,0.17160358554221744,5912.941455305019
0.164,-0.0705545362975368,5903.843885371177
0.168,-0.30616799153364693,5896.682922305519
0.172,-0.48973426977166246,5894.858855966097
0.176,-0.5784072156044054,5898.865830202405
0.18,-0.5436836935872,5900.631922309613
0.184,-0.3811395206618374,5900.787217995916
0.188,-0.1151144757709801,5905.465835079528
0.192,0.2036098539772705,5898.563168948755
0.196,0.5077463885719353,5903.828423305627
0.2,0.729546833521438,5902.820908897676
0.204,0.8188362357114031,5901.348246726739
0.208,0.7575794063104646,5897.066067556675
0.212,0.5663244043778124,5891.481629297741
0.216,0.30006092750830593,5904.020532047824
0.22,0.03414972127861657,5903.121553037957
0.224,-0.15540045024028135,5897.423274510624
0.228,-0.2109088458250338,5903.22540741531
0.232,-0.10591326466588716,5900.109259420795
0.236,0.1504485887888976,5898.353609436768
0.24,0.5176079970088915,5899.0339302829325
0.244,0.9346058857086708,5896.177092029546
0.248,1.334377824324101,5906.279806775556
0.252,1.6564298684178551,5907.7277879770845
0.256,1.8543341252734982,5899.43814619341
0.26,1.8979322493876791,5903.018490929085
0.264,1.7731049281368882,5902.829612647379
0.268,1.4821387946328541,5897.39530648728
0.272,1.045478733257766,5895.645146215304
0.276,0.5032511839476778,5893.028990250987
0.28,-0.0861263901708936,5905.327950377966
0.284,-0.6525722345576819,5897.728411936342
0.288,-1.1266547460606862,5898.764482157222
0.292,-1.4547902810236006,5904.185307873665
0.296,-1.6117336876821944,5892.499489804606
0.3,-1.605134940821811,5903.478755648405
0.304,-1.4707137934562462,5902.517911061542
0.308,-1.2608294630491443,5900.060695129437
0.312,-1.0309028297008822,5900.908383663411
0.316,-0.827237772765374,5902.87718801822
0.32,-0.6783021353279033,5904.249473726969
0.324,-0.5907651254035596,5902.258670719937
0.328,-0.5513023680909296,5896.946814783071
0.332,-0.5345053588347458,5902.032392859405
0.336,-0.5153133979881613,5902.296356758981
0.34,-0.48147849777758406,5901.295529832371
0.344,-0.43995756539886666,5897.7345409400805
0.348,-0.41310340599351497,5895.335095815728
0.352,-0.4256177323467983,5905.700114953319
0.356,-0.4884398276463981,5907.095267374632
0.36,-0.5878961766312455,5898.71151346523
0.364,-0.6861319535686253,5897.50924832846
0.368,-0.7332304097346225,5900.098963339714
0.372,-0.6855295693197485,5897.410615455418
0.376,-0.5217305770497684,5892.358978674424
0.38,-0.25013143233346974,5898.107672912597
0.384,0.09437740924114969,5898.330917777138
0.388,0.4596619472253181,5907.816530695899
0.392,0.7867975218302156,5891.346615267819
0.396,1.0193862380660228,5892.230183753327
0.4,1.1128050716919522,5892.948411684922
0.404,1.0441226602686529,5899.49416720133
0.408,0.8203130753414342,5903.14702635313
0.412,0.48038763581077143,5892.7900599244
0.416,0.08847096928978726,5900.286210409185
0.42,-0.2810522579252414,5903.268730052122
0.424,-0.5611074870929305,5900.217028660759
0.428,-0.7058821013575478,5897.744860152567
0.432,-0.6974341069112939,5896.83731990362
0.436,-0.5451875133801504,5904.247764967841
0.44,-0.28068702871322015,5902.847376269948
0.444,0.05037376863705776,5899.9705157927
0.448,0.3977831171866018,5892.974605762071
0.452,0.7167433166286133,5903.532295934925
0.456,0.9755681153964576,5898.81014300113
0.46,1.158475881360956,5900.355279126322
0.464,1.2627205772025678,5890.22334293013
0.468,1.2920579164891928,5897.089676654679
0.472,1.2504408541986107,5900.16762690845
0.476,1.1399816773520792,5889.90646084385
0.48,0.9649982083780335,5907.515088137671
0.484,0.7399114851353304,5894.954228242495
0.488,0.49562886232767966,5911.597906126066
0.492,0.2793964119942148,5904.153645850474
0.496,0.1464719632653706,5897.7874071857295
0.5,0.14582015717164332,5912.080115300139
0.504,0.30446206433263767,5904.492008573447
0.508,0.6157655353395056,5898.812513195534
0.512,1.0360525196478005,5896.355767028615
0.516,1.4913967342885515,5904.50365343917
0.52,1.8929061151455346,5898.88332758525
0.524,2.1559359023083178,5898.053045160272
0.528,2.218076208924983,5905.79825620302
0.532,2.0518616529201386,5900.040544797531
0.536,1.6695827935570013,5907.475968503287
0.54,1.1192752015390097,5901.2034948735245
0.544,0.47345724202729234,5900.6961966134695
0.548,-0.1854996620248261,5905.929021172686
0.552,-0.7792611830489764,5904.725209138322
0.556,-1.2445252893215017,5897.18435051046
0.56,-1.5407873767981703,5899.001033253713
0.5640000000000001,-1.6544186953719848,5904.874686044492
0.5680000000000001,-1.5977117450865224,5901.20514321769
0.5720000000000001,-1.4023970185494286,5907.070584464246
0.5760000000000001,-1.1098655558072776,5897.379765992936
0.58,-0.7622340788907703,5902.391882915701
0.584,-0.3973738064152043,5901.543804275468
0.588,-0.04814817911917145,5905.92173019189
0.592,0.25603759881342997,5906.850222045041
0.596,0.48761376542448365,5908.647688342755
0.6,0.6209027111126276,5895.525430576585
0.604,0.6351902855442093,5904.697474912008
0.608,0.5210849481831024,5902.443518632515
0.612,0.28804334495550016,5896.341899500667
0.616,-0.031079765837400325,5898.23944490211
0.62,-0.3819027601994723,5898.813223765304
0.624,-0.6974162562865643,5900.022050420239
0.628,-0.9118683620339354,5897.45622264267
0.632,-0.9759261120642512,5902.832918916758
0.636,-0.8685985609877497,5909.047734244091
0.64,-0.6020946180245946,5903.085262437324
0.644,-0.21817504090082987,5898.120165461205
0.648,0.22250181417081932,5900.228883819879
0.652,0.6544574354720757,5900.015387545177
0.656,1.0208318523341575,5903.001655271615
0.66,1.2831275478585888,5902.176678088572
0.664,1.425678419540456,5894.567149973833
0.668,1.4541620932150763,5902.874473096887
0.672,1.3882168594056514,5908.775782852467
0.676,1.250262750456823,5902.35849769335
0.68,1.0554214491133436,5906.652327819274
0.684,0.8077838129220958,5889.119407668218
0.6880000000000001,0.5047257158342098,5904.337538385437
0.6920000000000001,0.14637659545688858,5903.352079076542
0.6960000000000001,-0.25497621714443075,5900.777723190796
0.7000000000000001,-0.6703520555503978,5906.898913664234
0.704,-1.0569342540430293,5892.61710571761
0.708,-1.367459144030891,5891.56469342909
0.712,-1.5620919186256284,5904.753105255246
0.716,-1.6175113567705544,5894.311655674316
0.72,-1.5296770647713682,5899.631169948663
0.724,-1.310682106714567,5897.311692248712
0.728,-0.983503725132863,5900.970853240182
0.732,-0.5786791503346015,5902.539811460685
0.736,-0.13377571949315092,5899.453865498501
0.74,0.3070894043815554,5897.537707297156
0.744,0.6969663242677906,5912.905561222597
0.748,0.9933389050118996,5903.366501491879
0.752,1.1657873750660581,5901.202266050322
0.756,1.2000072133362596,5902.241114418915
0.76,1.096448067183706,5893.70166492784
0.764,0.8655948572497034,5903.0291023840455
0.768,0.5242108869626576,5900.036810903284
0.772,0.09566168611602387,5902.051917505382
0.776,-0.38643874608971207,5899.202982748533
0.78,-0.8754246382991947,5897.481301312475
0.784,-1.314042699239182,5897.0426828917
0.788,-1.6435495135115201,5898.84155180318
0.792,-1.8165611927896363,5891.225052521692
0.796,-1.8083109782330278,5899.447265548404
0.8,-1.62205572908923,5901.047926131731
0.804,-1.287852286741655,5904.999152919271
0.808,-0.8567422491890282,5905.251336776238
0.812,-0.39274321979401633,5905.056918963265
0.8160000000000001,0.036272742040405634,5895.033442688128
0.8200000000000001,0.36874905527144874,5894.847704416359
0.8240000000000001,0.560079868706645,5900.755794379757
0.8280000000000001,0.5917649542374012,5895.940232630624
0.8320000000000001,0.4765659843537318,5899.715805382198
0.836,0.2576701204143513,5905.540306094415
0.84,0.0007206061716761121,5889.172217957379
0.844,-0.22107489914951967,5904.685713501287
0.848,-0.34609593933369226,5897.617271265389
0.852,-0.34238943502857905,5898.40064352523
0.856,-0.21844734358268808,5908.712374209771
0.86,-0.022370706480069755,5893.785058429233
0.864,0.17098711820402573,5904.914447147769
0.868,0.2812327037838061,5897.321019945484
0.872,0.24547325056851754,5904.749582287474
0.876,0.03585227573401614,5901.657056835186
0.88,-0.33370348512654974,5903.447345868788
0.884,-0.8123013563713838,5902.225952546564
0.888,-1.3249338058121767,5905.552912250367
0.892,-1.7884617536840453,5901.974950774645
0.896,-2.127234255163173,5919.834437273921
0.9,-2.286599440649537,5895.333758392565
0.904,-2.242981271368289,5907.602986017465
0.908,-2.008775972493765,5896.383073388267
0.912,-1.6304865828356014,5905.442499917973
0.916,-1.17983011566986,5896.780725671463
0.92,-0.7393807570956497,5898.626755906953
0.924,-0.3858159115593313,5902.487324664806
0.928,-0.17464181184867578,5899.534497171115
0.932,-0.13021690218244913,5895.883556658851
0.936,-0.24375463546518822,5903.037206677481
0.94,-0.4796309846142416,5896.081368513816
0.944,-0.787077655610996,5897.921684159903
0.948,-1.1118236494304476,5901.163814530202
0.952,-1.402801322008981,5903.751911391005
0.956,-1.613159237631201,5896.764414718612
0.96,-1.6997609971520158,5911.348910332958
0.964,-1.6269505647790723,5899.963052966546
0.968,-1.3766963611607228,5906.332018926705
0.972,-0.96086579120557,5900.843543569404
0.976,-0.4276346094582509,5900.293092664394
0.98,0.14398196933252813,5897.615842191574
0.984,0.6614733236353463,5906.692507323002
0.988,1.042199751403071,5896.472446623603
0.992,1.2343949294581666,5910.041304835947
0.996,1.2289274714341383,5900.772678787707
1.0,1.0589631131151687,5897.532955866984
1.004,0.7886011613666198,5900.717766853076
1.008,0.49395755199895974,5901.548715604585
1.012,0.24147574213713194,5891.684218101696
1.016,0.06912980927658627,5902.746266019625
1.02,-0.023684925863651642,5899.736923898136
1.024,-0.07337319052121125,5899.044239167289
1.028,-0.13644063434991233,5905.862761219859
1.032,-0.26673580911388717,5894.350171706627
1.036,-0.49541244920746025,5902.064051818144
1.04,-0.8216337606605068,5894.387003842173
1.044,-1.2156613638549327,5895.178280531822
1.048,-1.6301361941592654,5897.7843540554295
1.052,-2.013562574555827,5898.864185119765
1.056,-2.3214047543172343,5902.224751432703
1.06,-2.522596877198405,5893.915562252984
1.064,-2.6017085922214216,5904.8488633463485
1.068,-2.558784581794895,5893.887089068788
1.072,-2.4088007660886244,5895.31010575241
1.076,-2.1808393825780548,5901.811910974675
1.08,-1.915302045963939,5897.482918071399
1.084,-1.6572926576493492,5897.203766427139
1.088,-1.4459042718917074,5907.160542834768
1.092,-1.3019488567625905,5902.98255623652
1.096,-1.2193261362989756,5898.960576297437
1.1,-1.1656009629792916,5896.308874722032
1.104,-1.0941135610571413,5896.114086330742
1.108,-0.9642645395664654,5905.006320435831
1.112,-0.7615994042582166,5895.936998292072
1.116,-0.5079881865638899,5889.104571349729
1.12,-0.2560833746581335,5902.679414882954
1.124,-0.07007323682988625,5893.225044242032
1.128,-0.0018755041137916673,5893.427530434582
1.132,-0.07332744270183837,5909.57911207001
1.136,-0.27015358206263657,5904.9501258228975
1.14,-0.5470920668598859,5905.071478515255
1.144,-0.8400270920590982,5895.416752739192
1.148,-1.0806587450577991,5902.945390792322
1.152,-1.21012605297584,5893.127546347208
1.156,-1.1892081808660764,5904.805956765632
1.16,-1.0042795822866437,5901.034080363145
1.164,-0.6692947993376163,5899.808055142056
1.168,-0.22407152339903397,5892.181787772869
1.172,0.27122585358210566,5893.669837351286
1.176,0.7453839248454979,5905.705858594132
1.18,1.1286534498094891,5905.5048924612665
1.184,1.3668291878599064,5899.520827789014
1.188,1.433612961344626,5903.878320089842
1.192,1.3372143549635167,5894.385084056715
1.196,1.118641475638156,5900.087038278949
1.2,0.8418758702012413,5902.276931697321
1.204,0.5780972436890986,5897.245964646497
1.208,0.3872094039388735,5893.128806155703
1.212,0.3012302000810078,5894.453368404025
1.216,0.31509266093761334,5891.983127082917
1.22,0.3890226154507903,5892.769090106895
1.224,0.46259860634193173,5902.296466098671
1.228,0.47608752325710674,5900.968627488694
1.232,0.3918331358612541,5900.83195965451
1.236,0.20807949918954224,5906.410911487012
1.24,-0.0400207005684078,5903.441413247575
1.244,-0.2924081895713737,5896.39266615722
1.248,-0.4836952252821162,5903.40513518321
1.252,-0.5622642154770989,5902.885034918063
1.256,-0.5026781107900484,5900.300041228046
1.26,-0.3092708975619535,5895.145310131427
1.264,-0.012146417466985011,5911.005918488483
1.268,0.34151703872303607,5895.491234214854
1.272,0.6977659893753698,5904.654107283107
1.276,1.0055634539264262,5911.222782420118
1.28,1.2246579119080054,5907.152555548398
1.284,1.3306631860127796,5888.380558931245
1.288,1.3164278980460622,5901.62274105904
1.292,1.1897541842845856,5899.886550606012
1.296,0.9690717561600813,5892.679540757104
1.3,0.6792253409719049,5901.330686012783
1.304,0.34871104967503724,5913.403158057118
1.308,0.008566554527145801,5893.237501962414
1.312,-0.30767859934251607,5899.653587882145
1.316,-0.564236893108505,5900.697505905043
1.32,-0.7251044512887664,5888.740215215137
1.324,-0.759113780896527,5896.362839493037
1.328,-0.647865893549844,5895.272706717671
1.332,-0.39451745183160664,5892.885390518937
1.336,-0.029625342864000558,5906.8714808122095
1.34,0.3900545548501477,5903.499335033637
1.344,0.791573024153077,5894.831408246918
1.348,1.102280989131286,5913.792824498006
1.352,1.2674302437614138,5894.031238880827
1.356,1.2632450158511002,5895.319066304196
1.36,1.1018666644969197,5896.618340784547
1.364,0.8274618732614244,5901.309885421676
1.368,0.5053405118348726,5907.204281048579
1.372,0.20713658505506358,5902.588050109563
1.376,-0.0051485472144485065,5893.575154758453
1.38,-0.09370628016782138,5887.196824170929
1.384,-0.05494005695216105,5883.797181427482
1.388,0.0782463967174309,5891.066779852786
1.392,0.24324252373115685,5901.750563594685
1.396,0.36234022111234443,5905.040307715307
1.4,0.3619523275946136,5896.705078061886
1.404,0.19181113909362876,5901.064070916968
1.408,-0.16124848943933234,5907.699126599155
1.412,-0.6690843401742701,5899.303945177973
1.416,-1.2685536341923431,5892.276420991278
1.42,-1.8759365889439628,5905.426739845274
1.424,-2.4050025003282434,5905.073221999617
1.428,-2.7837758191656725,5892.932054824024
1.432,-2.966440448541198,5906.635867866347
1.436,-2.939144434382089,5898.822169007587
1.44,-2.719801503423765,5902.692548577943
1.444,-2.3521461268772836,5903.560398544741
1.448,-1.8950846814640403,5900.573911760227
1.452,-1.4101756579035039,5908.922295450232
1.456,-0.9508869669395282,5893.517171918264
1.46,-0.5558888094363386,5897.718412737518
1.464,-0.24644585333073948,5898.536978609338
1.468,-0.027039704302424715,5895.221206877062
1.472,0.11134162575323359,5899.065592499264
1.476,0.18599825684930854,5899.674025135186
1.48,0.21718027856691796,5898.196581849359
1.484,0.22451784111268724,5898.767718071232
1.488,0.22554376011943983,5901.852011680408
1.492,0.23500836698025593,5907.8455473862505
1.496,0.26365133744889374,5904.811661883346
1.5,0.31643453450016756,5898.553599252935
1.504,0.3915799213091881,5899.339699750131
1.508,0.48183857479658987,5903.286860851576
1.512,0.5781144459829283,5894.949768110904
1.516,0.6739306677676938,5894.426240063218
1.52,0.7682968143528829,5905.241622864311
1.524,0.864802682724715,5899.775226861582
1.528,0.9665900758104151,5898.084700429574
1.532,1.0698838376592135,5905.587907954161
1.536,1.1608372277615224,5902.315853168127
1.54,1.218984319659347,5906.788398682558
1.544,1.2260113417757423,5900.950297706077
1.548,1.1747064844198483,5894.33853593359
1.552,1.0729724574641128,5899.503035127676
1.556,0.9411345909171004,5903.67957688081
1.56,0.804748299103208,5897.504664644352
1.564,0.687279785036437,5906.375475392711
1.568,0.6062198280555441,5894.022962344801
1.572,0.5731239511526246,5906.002490037515
1.576,0.5950194825792863,5899.94248921824
1.58,0.673653822100053,5892.674694106918
1.584,0.800959322163544,5900.402343794825
1.588,0.9529078664794013,5899.375255403869
1.592,1.0868803149705104,5905.068833567187
1.596,1.1471670080513225,5896.621220533028
1.6,1.0792648414085269,5895.516488398448
1.604,0.8488601853263011,5906.38465725889
1.608,0.4585578040205548,5903.947997634745
1.612,-0.044520898402073836,5892.627597077042
1.616,-0.5747741798802056,5896.60806675852
1.62,-1.0282596481850739,5901.376833482918
1.624,-1.3122498201330586,5899.070534932841
1.628,-1.374851296137001,5903.858363265432
1.632,-1.2238035011461093,5893.819445397161
1.636,-0.9267514003750953,5894.843143266516
1.64,-0.5920932309568132,5897.4908812895255
1.644,-0.336830261266148,5891.190693529821
1.648,-0.25232921746386566,5896.645799273648
1.652,-0.37872791863814714,5896.773475199429
1.656,-0.6947263691963821,5902.983824451715
1.66,-1.1243683537456073,5895.864740360185
1.664,-1.5580724739453027,5905.523943693148
1.668,-1.8818122761276208,5893.40888608174
1.672,-2.006079148781018,5898.23238530339
1.676,-1.8862931557816816,5889.8404039703255
1.68,-1.5295604136418752,5897.842229941036
1.684,-0.9879722184606169,5895.339274660411
1.688,-0.34326919076219187,5896.020385604833
1.692,0.3105931680112226,5883.745094263693
1.696,0.8820358024163303,5902.011809338359
1.7,1.2923510182296467,5897.81893065249
1.704,1.4843139962987157,5901.006969073964
1.708,1.4316734615025668,5901.467508681814
1.712,1.149048074809446,5896.766551715698
1.716,0.6972497746186436,5890.976880853943
1.72,0.17745834028825144,5897.231872196074
1.724,-0.2886673128211223,5901.101135113694
1.728,-0.5888253555817382,5901.985748266009
1.732,-0.6502165295704845,5893.193677219749
1.736,-0.45964323019520414,5895.5887629513245
1.74,-0.06680172333473493,5891.139858766413
1.744,0.43024689181033493,5899.241810722995
1.748,0.9126444268258082,5900.717085764801
1.752,1.2726524381107132,5890.16172283519
1.756,1.4404200379245942,5906.511931041162
1.76,1.39841435979077,5900.962024727238
1.764,1.1807432364416388,5892.3316043569785
1.768,0.8593064236003352,5897.693178100698
1.772,0.5219358862528557,5897.437480538143
1.776,0.24882123787532667,5897.91010269394
1.78,0.09302714818353364,5894.711984538846
1.784,0.06934280711444626,5894.486284337839
1.788,0.15338696689371192,5899.908773143019
1.792,0.29039079182618766,5900.120924215315
1.796,0.41110903352229244,5912.7256899279255
1.8,0.45104034999548975,5908.145017526688
1.804,0.36826840671831923,5892.812101190001
1.808,0.15499247392349205,5894.422278773714
1.812,-0.16080347708797477,5899.568662070723
1.816,-0.5238005086265859,5900.924735793941
1.82,-0.8665714270434278,5894.653155248728
1.824,-1.126481536797178,5907.679996007393
