时间(s),电压(V),幅值(高频80K)
0.0,-2.7844409766340865,5899.442004019978
0.004,-2.431444519054493,5905.041607026958
0.008,-2.124709007647497,5901.037271740588
0.012,-1.8848237991667232,5909.376759119832
0.016,-1.705721152532588,5901.352427098725
0.02,-1.5576180766742196,5895.337809502307
0.024,-1.3979660257596582,5899.582455674316
0.028,-1.1858673097186945,5901.145706459087
0.032,-0.8963162599910998,5905.251948641152
0.036,-0.5304366676002817,5899.87950610922
0.04,-0.11762261370982571,5898.620794549598
0.044,0.29191510587434794,5906.980521806305
0.048,0.64109738553732,5898.823126626889
0.052,0.8806903163376003,5904.200448023991
0.056,0.9803397560748046,5906.558404171298
0.06,0.934563517019358,5900.253764286531
0.064,0.7638218952465043,5897.623096508519
0.068,0.5099888703062251,5901.960304255483
0.072,0.22521603721126096,5896.587488466859
0.076,-0.04397084573297825,5903.990133766597
0.08,-0.27081383273872833,5896.243113609716
0.084,-0.4527330128763721,5902.110394499643
0.088,-0.6031832307885884,5913.638561191161
0.092,-0.736625855596795,5904.442916864186
0.096,-0.8568124514870041,5902.16772405113
0.1,-0.9553351573086294,5896.276931606652
0.104,-1.0196980704768106,5897.684080685828
0.108,-1.0444920115010405,5900.285231487967
0.112,-1.03886867897702,5902.920010254848
0.116,-1.0265936456941862,5904.778586269084
0.12,-1.038412207808625,5901.366983940643
0.124,-1.0993616494717746,5904.566725004847
0.128,-1.2160955697520228,5895.61918861806
0.132,-1.370191521993355,5900.732059358365
0.136,-1.5214567774447567,5898.792652734133
0.14,-1.6207709717993806,5903.588354915253
0.144,-1.6272939568874332,5898.17582974996
0.148,-1.5227278541675655,5902.2499026110045
0.152,-1.3170901727745155,5900.286203635436
0.156,-1.0449418509138868,5906.892010054138
0.16,-0.7552753084787767,5904.979754841579
0.164,-0.49977164992115325,5894.612297208622
0.168,-0.3227670962838151,5906.331231248601
0.172,-0.25404054009941246,5899.152722312171
0.176,-0.3043191173158416,5897.741930260997
0.18,-0.46349828355943756,5900.045570044133
0.184,-0.7020762239800306,5894.021589706021
0.188,-0.9761146595129349,5901.212039669122
0.192,-1.234955033203828,5899.876157734675
0.196,-1.4298675453407714,5898.788808634555
0.2,-1.5216847627228078,5898.417756317134
0.204,-1.486148831188657,5905.6509506190205
0.208,-1.316571920073969,5908.804669794481
0.212,-1.0241241918324,5896.867847179294
0.216,-0.6363023581179601,5897.933099497527
0.22,-0.19369871081918688,5900.501319942156
0.224,0.25517856955858886,5900.572502159799
0.228,0.6606832681653618,5901.62139581357
0.232,0.979146787512443,5901.429784617994
0.236,1.1791110216549197,5896.629653605046
0.24,1.2459986124672688,5896.5848141649385
0.244,1.1843641655355601,5895.645442963984
0.248,1.0164993360044423,5893.005633210781
0.252,0.7770397386155834,5895.521689408981
0.256,0.5050713438693952,5900.672412607677
0.26,0.236393622514011,5907.688885278836
0.264,-0.0016735964398151672,5895.424084809185
0.268,-0.19174302517718123,5897.13315022911
0.272,-0.3244677735417694,5902.504262271807
0.276,-0.3952308981477623,5897.33603986345
0.28,-0.40203323711783595,5905.687483776736
0.284,-0.3465866905086431,5904.23155409843
0.288,-0.2387674976716349,5888.532085440138
0.292,-0.10183622224379683,5909.914099143606
0.296,0.026206465388590172,5901.690537079592
0.3,0.09867861407276539,5896.449558852483
0.304,0.07308900606039047,5904.2860481036
0.308,-0.07381834246557405,5887.556864915264
0.312,-0.3348224188567708,5903.210785366369
0.316,-0.6695134359512624,5897.306822315038
0.32,-1.0120505015642853,5896.6516150544585
0.324,-1.2877276153403578,5894.05496172447
0.328,-1.433491753946137,5902.541564376224
0.332,-1.4161168179217458,5894.040090044538
0.336,-1.2422247119595622,5894.612455291991
0.34,-0.956500095111978,5891.923337917132
0.344,-0.6284465473263461,5905.044017279469
0.348,-0.3327515814219295,5896.647376973922
0.352,-0.1306469662921106,5903.380246110265
0.356,-0.05767125417261772,5894.788891652843
0.36,-0.11903128691557281,5899.042250869336
0.364,-0.2912527029477127,5899.024634928716
0.368,-0.5290943266590921,5895.795387065377
0.372,-0.7769869335331566,5891.23811255323
0.376,-0.9824394131987851,5897.729087925794
0.38,-1.1068985473210087,5898.422480034527
0.384,-1.1304578344076666,5904.4312645863365
0.388,-1.0504555820351584,5899.579334860059
0.392,-0.8774598727130486,5894.509595411276
0.396,-0.6325113854895438,5895.005073621362
0.4,-0.3463581731073789,5901.147695540103
0.404,-0.05774050773554405,5896.869988319868
0.408,0.19259430742779962,5898.615587260497
0.412,0.3720624635246885,5893.368685567534
0.416,0.4665478035747341,5899.419072777762
0.42,0.4854374861207574,5895.817407418282
0.424,0.45797600702817826,5894.897568029943
0.428,0.4216582465525385,5900.661184526431
0.432,0.4073417425660337,5898.375228315633
0.436,0.4271118556973638,5901.757040968692
0.44,0.46921046584336323,5899.14044198735
0.444,0.5014838485061437,5899.790120774782
0.448,0.482600317086049,5901.127791052181
0.452,0.37840321826429113,5901.9966921533005
0.456,0.17842778246733687,5894.122214050663
0.46,-0.09388881673046416,5908.92173768415
0.464,-0.382205479042902,5900.024716713026
0.468,-0.6100627444356211,5891.5196841822935
0.472,-0.7018637621300493,5901.028797285842
0.476,-0.6061261479689183,5904.317406098104
0.48,-0.31391958488662086,5896.562557138174
0.484,0.13453260370692752,5904.498415895681
0.488,0.6590586291183576,5900.596834501819
0.492,1.1622891766514103,5898.827807366235
0.496,1.5575349145849453,5904.889254644537
0.5,1.7912367838871373,5907.361921451166
0.504,1.8524215363444894,5897.433285323022
0.508,1.767536031663199,5895.31220186175
0.512,1.5847483018431576,5903.751114793786
0.516,1.3551960331618305,5908.097558922764
0.52,1.118789670226266,5900.703430978631
0.524,0.8988867847045583,5899.675183185113
0.528,0.7051787714803984,5897.240059537565
0.532,0.540694855054628,5898.449203153104
0.536,0.4083386635361458,5904.74055504886
0.54,0.3134634118900254,5894.012176594268
0.544,0.26070261878568657,5901.812529278306
0.548,0.24623933650836438,5894.396458952627
0.552,0.25025647603782936,5894.254585313814
0.556,0.235416353505678,5903.420140755394
0.56,0.15408031998160301,5906.320052473019
0.5640000000000001,-0.03795766595279469,5891.2091111621485
0.5680000000000001,-0.3663269024248715,5898.136116335994
0.5720000000000001,-0.8266688038641132,5907.917268679388
0.5760000000000001,-1.3809300215862366,5902.589686193476
0.58,-1.9634454181192527,5898.968865325559
0.584,-2.495735844567768,5903.598002297926
0.588,-2.905366961737652,5896.258104046984
0.592,-3.14249914354958,5903.819096829369
0.596,-3.189188216866845,5911.301305685459
0.6,-3.0598532338080466,5905.553787931142
0.604,-2.7942211845423905,5891.938834496766
0.608,-2.445542962776058,5902.341221794441
0.612,-2.067629585835947,5900.21213088974
0.616,-1.704375776248053,5902.961177482017
0.62,-1.384191382550761,5904.757210211532
0.624,-1.1196329672662797,5898.256945318865
0.628,-0.9110136415269185,5896.370668550524
0.632,-0.7521380070558056,5899.722174688184
0.636,-0.6358107284754231,5898.811304996061
0.64,-0.5567028795240886,5897.887262396482
0.644,-0.5106451412916883,5894.73788529415
0.648,-0.4921224429662018,5904.699008431046
0.652,-0.4933357502370191,5899.452608750827
0.656,-0.5067069977167115,5902.5508043318005
0.66,-0.5291172048040745,5902.844523538228
0.664,-0.5638569286129672,5902.177225386499
0.668,-0.6175673645292765,5892.140757770824
0.672,-0.6932460794443981,5908.727685204079
0.676,-0.7834354252564816,5903.989594407454
0.68,-0.8678505747565098,5899.769121722428
0.684,-0.9173584250945119,5908.846890189834
0.6880000000000001,-0.9032642195049142,5895.296691253703
0.6920000000000001,-0.8087680859705308,5906.213613805155
0.6960000000000001,-0.6385120370427264,5897.319714958373
0.7000000000000001,-0.4222412602247486,5903.569725193167
0.704,-0.21008585298688645,5898.627391861312
0.708,-0.059963488470257766,5897.116676591832
0.712,-0.02090888546750865,5897.62492193903
0.716,-0.1177324203362375,5899.273937378093
0.72,-0.34153309977302876,5902.42733344066
0.724,-0.6485945229392528,5897.85637784836
0.728,-0.9684608656529128,5901.875309954009
0.732,-1.2199921122634878,5909.669352167039
0.736,-1.331334986337295,5904.41349235194
0.74,-1.2577478957214145,5892.236312862121
0.744,-0.9921033914851165,5901.719891422156
0.748,-0.5658244984377214,5905.1805555381
0.752,-0.0406992282531433,5899.947234095266
0.756,0.5061162719583178,5901.859474108391
0.76,0.999809546940555,5903.337294852837
0.764,1.3829202984434577,5897.105745182624
0.768,1.6229342360160022,5906.897370307192
0.772,1.7109814443395963,5897.265926231388
0.776,1.6543235695405343,5891.338966009252
0.78,1.468095081706379,5900.99007840979
0.784,1.1715653798948007,5911.885802810248
0.788,0.7907640455490037,5905.517959332812
0.792,0.36435950705292003,5890.0753188927
0.796,-0.05355131962073906,5895.408006634515
0.8,-0.39906528894909676,5898.881146296113
0.804,-0.6129363275122743,5908.243795090454
0.808,-0.6586847435574269,5906.662258234729
0.812,-0.5362980781870003,5888.118807464958
0.8160000000000001,-0.28489182238050786,5899.762307102372
0.8200000000000001,0.02747720333240425,5894.39016120561
0.8240000000000001,0.3229625341647642,5902.02039555442
0.8280000000000001,0.534622543773494,5898.900652870431
0.8320000000000001,0.6215668782872729,5894.975764449995
0.836,0.5749874566413845,5902.90560031849
0.84,0.41576637150833334,5899.94160697306
0.844,0.1867381052443884,5900.90749513961
0.848,-0.05766816519761624,5901.1439951349785
0.852,-0.26299154926588886,5902.7390993716535
0.856,-0.3860864870140827,5905.061536446833
0.86,-0.4038940135100067,5891.402232910103
0.864,-0.31758197234035057,5907.758048593588
0.868,-0.15165206068707668,5900.194375165448
0.872,0.051444881125943025,5904.186326524369
0.876,0.2407418905889953,5897.557589415716
0.88,0.3690822732174449,5905.13942361802
0.884,0.4054633811629286,5901.720238354818
0.888,0.3437755025286037,5891.284129402589
0.892,0.2053133723124532,5902.188748131895
0.896,0.0341662674562684,5897.750836386933
0.9,-0.11360969999921387,5895.8312445139245
0.904,-0.18435023136701206,5901.448388114638
0.908,-0.1407885046758992,5902.398089912266
0.912,0.02802325105748128,5907.89354170494
0.916,0.3032423120033907,5901.9363029780025
0.92,0.6399328101473482,5895.010324712101
0.924,0.9772153371942627,5893.697133259779
0.928,1.252752635512566,5898.146291369992
0.932,1.4181118495112424,5892.722006470245
0.936,1.4506845831123736,5915.09804217939
0.94,1.3581048697483564,5898.625371293628
0.944,1.1733445336394497,5904.514553474854
0.948,0.9428462983087117,5906.765153484402
0.952,0.7135566178185894,5898.544100931359
0.956,0.5240533425815698,5907.720482454328
0.96,0.40050658933835787,5901.956770491152
0.964,0.35480556919752104,5902.256642668537
0.968,0.3832495142810902,5897.320091441689
0.972,0.4674193436057717,5904.109511450113
0.976,0.5794969765173598,5895.818032960282
0.98,0.69133678350215,5898.49415378354
0.984,0.7833637133177418,5904.273657756478
0.988,0.8489400254016138,5892.385070582126
0.992,0.8920579370787223,5894.144788478177
0.996,0.919399488446931,5899.654358240472
1.0,0.9306983338037456,5894.777467167536
1.004,0.9128280952110885,5903.330687473141
1.008,0.8419026828546331,5891.536851338902
1.012,0.6937702182244825,5897.5440981845895
1.016,0.458639918855923,5902.604840079815
1.02,0.15302329813871918,5896.5112772463135
1.024,-0.17725800767225725,5901.293778687974
1.028,-0.4662720665587849,5894.604673569299
1.032,-0.6479911712533061,5899.141150775837
1.036,-0.6803825698378281,5902.016519233219
1.04,-0.5635368685547699,5897.911943786273
1.044,-0.3434974142778836,5905.586099902268
1.048,-0.09982041245576213,5894.487341757967
1.052,0.07816274880264777,5890.914850433946
1.056,0.11782963249431404,5905.340301199531
1.06,-0.015678581146651962,5900.480693747379
1.064,-0.309372800535496,5900.268063082129
1.068,-0.7054001633953412,5891.639390545906
1.072,-1.1156651960180026,5895.624047711908
1.076,-1.4438017731404122,5906.398255524857
1.08,-1.6087624324191707,5900.577749823354
1.084,-1.5644502481749818,5893.828502971679
1.088,-1.311103198397418,5898.086598425864
1.092,-0.8956972345977999,5906.451851812462
1.096,-0.4003839242134924,5905.060044650762
1.1,0.0791231581088481,5899.848007252032
1.104,0.45941481675540097,5897.241337727807
1.108,0.6911226353849397,5904.855519046013
1.112,0.7690034862552285,5901.910614594559
1.116,0.7271882341771003,5905.332782094066
1.12,0.6223168844507065,5908.37804365244
1.124,0.5118803313432313,5898.174659001219
1.128,0.43606811373363075,5902.1055083826
1.132,0.4087294159417217,5905.02402176218
1.136,0.4189015336422071,5899.832161142278
1.14,0.44096128382254873,5887.935936030002
1.144,0.4491039112398299,5904.100361065999
1.148,0.4301552217804996,5908.165882452625
1.152,0.38880399425617024,5894.974556906004
1.156,0.3426670890449697,5902.658431831302
1.16,0.3099963889671207,5904.414375926313
1.164,0.2968101775863696,5891.424927561656
1.168,0.2902349940269021,5897.649305128813
1.172,0.26127016953739063,5900.633994458607
1.176,0.17562190317890317,5903.21966908958
1.18,0.008280895311858784,5898.764010778793
1.184,-0.24321402181495935,5895.862175098317
1.188,-0.5514262515354171,5888.726320401138
1.192,-0.8611170274090295,5896.88344851059
1.196,-1.1018954299770551,5897.297039452402
1.2,-1.2084349056991828,5900.365351424287
1.204,-1.1412405859684496,5896.018685227939
1.208,-0.899991809504756,5901.433372063187
1.212,-0.5249546034059885,5894.363690140403
1.216,-0.08753487982732211,5900.694978347536
1.22,0.32547293550663614,5908.714181759405
1.224,0.6297636185788865,5895.584014208898
1.228,0.7612158288895388,5894.0901889575625
1.232,0.6911018211980884,5902.009751567971
1.236,0.4346002923572427,5895.405086804019
1.24,0.047869323584669145,5894.168882286355
1.244,-0.3877470893756647,5891.706999232192
1.248,-0.7899002440326607,5897.870576497355
1.252,-1.0985817503975368,5891.410992759108
1.256,-1.28922652557037,5901.1558606962135
1.26,-1.3711844411349883,5903.919428189392
1.264,-1.3743004467772342,5894.441151524783
1.268,-1.3311619285614729,5900.210544635848
1.272,-1.262967692051234,5904.173551425525
1.276,-1.1738537030229053,5902.083040669966
1.28,-1.054233549845431,5901.640554751948
1.284,-0.8904420942511228,5899.066155661951
1.288,-0.6763433271915362,5892.627673897819
1.292,-0.4220805377845362,5896.341687025892
1.296,-0.15599129090737243,5908.873330162538
1.3,0.08152706840634687,5891.447833177943
1.304,0.24969684599951256,5897.790564854157
1.308,0.3197637190067471,5897.690820181136
1.312,0.28384759526316644,5897.454327086907
1.316,0.1584197266460406,5906.603334672488
1.32,-0.017395774803173444,5908.31323785558
1.324,-0.18808760108370323,5898.699808892165
1.328,-0.2921736473463096,5901.617974358246
1.332,-0.275741422844419,5905.73144695712
1.336,-0.10670495570874727,5895.838569721682
1.34,0.21377576908023188,5890.64024512965
1.344,0.6466365086126106,5895.893821706186
1.348,1.1202139048360165,5904.148941202912
1.352,1.5460590069178648,5906.403654018853
1.356,1.841356785137178,5897.338147616329
1.36,1.9503692680856524,5890.247876527671
1.364,1.8573523676479606,5895.727792931116
1.368,1.5874153192434897,5898.776267395469
1.372,1.1969270033979325,5901.241432464049
1.376,0.7579827630277486,5901.738203604221
1.38,0.3416232330891032,5899.338133501137
1.384,0.0038486631281815574,5900.873300552482
1.388,-0.2222544325188841,5893.835557724583
1.392,-0.32683345072054754,5903.901476122179
1.396,-0.3176102659427135,5889.870272114808
1.4,-0.21195135026057552,5896.930626135302
1.404,-0.030125431634846957,5899.8437804797
1.408,0.208555117222712,5898.032859041848
1.412,0.4864331131523027,5900.6317467466815
1.416,0.7854455600648366,5897.56393577143
1.42,1.083499309207706,5894.08209996011
1.424,1.3514857149810753,5901.102513757206
1.428,1.5534662173215956,5895.401522331824
1.432,1.6517423344194417,5893.280201011966
1.436,1.6165972685089824,5902.572338958827
1.44,1.4377528202130858,5893.745016795654
1.444,1.132439643307042,5902.843291779932
1.448,0.7455162299265482,5898.876018354207
1.452,0.34053501374795303,5908.430910864347
1.456,-0.0153495977690002,5892.438482296817
1.46,-0.26769184489295433,5902.753305248921
1.464,-0.38743742762154143,5894.52683806327
1.468,-0.3761936435349698,5895.297286631196
1.472,-0.2621278116914039,5903.858845131689
1.476,-0.0876158311328197,5893.279021323815
1.48,0.10673024679818167,5899.233709189839
1.484,0.29507491523867957,5892.725376174672
1.488,0.47073922254521744,5894.30870525879
1.492,0.6401716692369149,5898.641669763305
1.496,0.8103550511657,5894.157325254452
1.5,0.9774500130681366,5907.723509432814
1.504,1.1232936755320675,5895.443053763303
1.508,1.2206470682290111,5903.814025793185
1.512,1.2426341136569992,5892.787459223672
1.516,1.170826179969611,5901.153481860646
1.52,0.9996067791866245,5903.132482401407
1.524,0.7381380620644368,5901.399461023669
1.528,0.4121503612155319,5894.988323657632
1.532,0.0654080794640211,5896.75856897979
1.536,-0.24243520832297183,5905.568529128184
1.54,-0.44525789764854057,5899.46703501521
1.544,-0.48717486111675146,5889.735642442003
1.548,-0.3413500536379006,5900.745562562732
1.552,-0.023073381798307827,5894.085009358532
1.556,0.40907721883019854,5902.352427253085
1.56,0.8658561462481968,5902.477902576256
1.564,1.2511058130271746,5898.017312025715
1.568,1.48977219051765,5904.032583309912
1.572,1.5500124373441297,5904.535615709063
1.576,1.4500167183750976,5901.393086089999
1.58,1.2467946089842878,5894.179781715157
1.584,1.0127713413039037,5899.771296362092
1.588,0.8105755083513922,5899.52616937089
1.592,0.6751134232433071,5901.345239531599
1.596,0.6077880881783921,5893.789751154716
1.6,0.5831837112057385,5899.198920894936
1.604,0.5640940455521282,5895.857508390068
1.608,0.5174594079197772,5895.124541977363
1.612,0.42415751831507376,5907.683879344374
1.616,0.2801372821747152,5897.458354510567
1.62,0.09175446402320832,5902.599698926186
1.624,-0.12962019932922952,5894.93561184857
1.628,-0.3703793919359591,5900.458981198196
1.632,-0.6145639660769355,5893.885426286704
1.636,-0.842469670144841,5896.020641869022
1.64,-1.0302575583758697,5902.4667371320165
1.644,-1.1527987153596164,5896.625535003555
1.648,-1.1905361297852683,5912.139921475874
1.652,-1.1380779715621672,5898.455525880363
1.656,-1.0094612545904482,5900.224916563689
1.66,-0.8352455396462748,5907.548804530576
1.664,-0.6506849634853293,5901.355536028182
1.668,-0.479998873020617,5897.562548921986
1.672,-0.32519315113406194,5902.406518156271
1.676,-0.16626154750172348,5899.083602306309
1.68,0.026325309547089247,5899.868605305108
1.684,0.2728130984341282,5904.639118764022
1.688,0.5688723262605727,5898.850803304822
1.692,0.8817970344714169,5894.490252717167
1.696,1.1594957654619578,5897.10925262627
1.7,1.346766156494103,5894.6845396586
1.704,1.401029129868981,5894.393193981327
1.708,1.302430814412802,5895.750998806563
1.712,1.057468406359442,5900.048499636942
1.716,0.6974496178338593,5892.534329681459
1.72,0.27295215872795914,5910.110089344395
1.724,-0.1549340686309253,5897.8935977591655
1.728,-0.525298711684719,5905.4157163933605
1.732,-0.7877606228495106,5900.959085266518
1.736,-0.9097304043775334,5897.370277183239
1.74,-0.8790331807079929,5898.0716801917815
1.744,-0.7029106546171565,5892.156875700211
1.748,-0.4059377620186969,5901.66225084839
1.752,-0.028245757966556814,5891.759214743662
1.756,0.3767926571712811,5899.039787048024
1.76,0.747268326168783,5911.576952001026
1.764,1.0210747397348783,5899.725905091218
1.768,1.1475302387944524,5906.806009038383
1.772,1.09966748528459,5891.383470839623
1.776,0.8825164188775394,5904.694405936775
1.78,0.5328287385703889,5895.645259347572
1.784,0.10909517123031659,5908.803464538916
1.788,-0.3243768848062631,5901.54556469308
1.792,-0.7126888039809778,5906.123606257968
1.796,-1.019510478564604,5898.781152104634
1.8,-1.228794948517203,5898.680056181761
1.804,-1.3409923003960924,5901.275372130019
1.808,-1.3665944547004962,5895.778652793398
1.812,-1.3193179384723426,5893.15749342448
1.816,-1.2107041793328683,5908.46638254155
1.82,-1.047384830433395,5906.542107545133
1.824,-0.8314586734053637,5896.903387879572
