时间(s),电压(V),幅值(高频80K)
0.0,-0.5911105221176715,5911.25965687529
0.004,0.04090003978793052,5907.351366196232
0.008,0.5516432368498556,5900.621885582505
0.012,0.8556483351769222,5896.55483977157
0.016,0.9203128563509507,5903.945150336412
0.02,0.7692643496590751,5908.856266079775
0.024,0.4727787558860402,5895.677903382552
0.028,0.13060447337030393,5897.75087733448
0.032,-0.14951982303912367,5901.500518041014
0.036,-0.27535142762574405,5897.24993366399
0.04,-0.19150256706817417,5907.302649065999
0.044,0.1074836332103133,5898.860940880906
0.048,0.5772202925986818,5890.410475222851
0.052,1.136812014950301,5901.226097089448
0.056,1.69046155108388,5897.822519014862
0.06,2.1501369805795805,5892.762322118002
0.064,2.452994046825379,5901.55469448768
0.068,2.569811094577033,5892.657760884072
0.072,2.5038165994808854,5901.98776530688
0.076,2.2824783345364725,5899.160206440752
0.08,1.946926227220692,5900.339913682126
0.084,1.5431956191311542,5895.588294187018
0.088,1.1167246943841285,5897.032633873071
0.092,0.7090237942641576,5902.09470829062
0.096,0.35505802352569527,5897.62387256202
0.1,0.08087320593839205,5891.465531745857
0.104,-0.09857400038562433,5903.281325067363
0.108,-0.18179101157116326,5900.1986234712485
0.112,-0.18335754177004288,5904.764559967238
0.116,-0.13513954963297997,5902.4612678044205
0.12,-0.08337915527278958,5903.369064012752
0.124,-0.08008826750226943,5898.935751403124
0.128,-0.16997048401347734,5899.215498472368
0.132,-0.37664998649674325,5909.908337804804
0.136,-0.6929301406574809,5904.397350784388
0.14,-1.0788395703572324,5896.143100429938
0.144,-1.4689559106094245,5906.11385214326
0.148,-1.78772438466326,5900.486968233688
0.152,-1.9687987273447276,5899.464428138819
0.156,-1.9726715742391865,5906.627697860359
0.16,-1.7970536192609186,5904.151282007191
0.164,-1.4768803801913404,5905.123416890076
0.168,-1.074538356990012,5901.3703330000135
0.172,-0.6640660594458346,5898.817180734125
0.176,-0.3140120857752656,5895.873063050864
0.18,-0.07254087833139318,5908.639231241409
0.184,0.04258688220536275,5896.698781494785
0.188,0.046380091851622625,5899.180492559407
0.192,-0.02072986668667175,5905.462097841465
0.196,-0.10853545317937807,5894.315646293284
0.2,-0.17518904220571424,5894.48323355959
0.204,-0.2005944364876468,5907.197211896631
0.208,-0.19053385466454814,5899.669159903683
0.212,-0.1712701868509119,5896.91041112661
0.216,-0.1775139641554154,5897.398814485779
0.22,-0.23820594569770517,5895.805451438587
0.224,-0.36478623084944034,5891.569398845554
0.228,-0.5454916124088237,5898.941208139716
0.232,-0.7471041278670365,5906.451581576186
0.236,-0.9233628368368413,5898.98049288129
0.24,-1.0279103125945668,5895.350280666492
0.244,-1.0291715108271007,5899.083784014401
0.248,-0.9237226281117262,5896.421242652005
0.252,-0.7433022515463142,5900.590307103316
0.256,-0.5506778619354371,5906.018242799092
0.26,-0.4226651522805574,5906.185650888565
0.264,-0.4238763250229143,5905.195432252319
0.268,-0.5801240830883325,5900.04421492827
0.272,-0.8629288759303018,5903.274059151097
0.276,-1.1934177003896458,5899.084251058893
0.28,-1.4655923213207134,5904.049453796111
0.284,-1.5803033991773385,5900.721918245937
0.288,-1.4772060219672958,5907.263312087235
0.292,-1.1538275231156834,5900.413278132854
0.296,-0.6666874660092098,5898.390100397573
0.3,-0.11585165198904411,5905.225761373349
0.304,0.3812807538437448,5912.225674410843
0.308,0.7194387728623552,5891.3695079615245
0.312,0.8308949518760281,5898.655871919095
0.316,0.7010246236532454,5908.138061695127
0.32,0.3707851014088423,5896.973724376469
0.324,-0.07377103736361121,5898.320724590519
0.328,-0.5217890331657538,5907.591644055111
0.332,-0.8627975939681096,5899.891396022177
0.336,-1.0111558072365625,5908.561255209416
0.34,-0.9237999177186907,5912.465904142402
0.344,-0.6063694640312046,5899.628256947305
0.348,-0.10647900803833271,5900.9417277981165
0.352,0.5022498752043634,5896.460009704578
0.356,1.138864066379347,5896.388383698189
0.36,1.730321887805864,5907.574191224587
0.364,2.22002020138605,5902.4924414648485
0.368,2.569771131516378,5901.059356005492
0.372,2.7577067848665657,5901.416434480256
0.376,2.775235610319186,5901.674781306231
0.38,2.625547197312097,5894.2757042139165
0.384,2.3244665882414806,5894.935101383623
0.388,1.9019826410325782,5895.807167631169
0.392,1.4011062808920083,5901.78400702623
0.396,0.8719185413960536,5902.596911016738
0.4,0.36237206629934265,5899.663283493533
0.404,-0.08974839516533593,5893.405443617316
0.408,-0.46005872319799723,5913.054616927334
0.412,-0.7358162252659228,5898.170512902379
0.416,-0.9120587074022003,5898.727579731441
0.42,-0.989179975158504,5900.6000806036855
0.424,-0.9737816740178725,5906.441960889827
0.428,-0.8818413272487019,5904.819979995587
0.432,-0.7409238467966125,5895.414428285053
0.436,-0.5878258899727018,5900.392466167823
0.44,-0.4602968361709419,5905.299847192559
0.444,-0.38536677331647107,5900.232685108264
0.448,-0.3698712371612856,5894.471185181284
0.452,-0.398465138611669,5901.0151660265465
0.456,-0.44040554999069037,5909.353323788839
0.46,-0.46130525484319057,5902.565304638201
0.464,-0.4337049729329529,5899.651670962172
0.468,-0.34236680365399264,5896.804850379602
0.472,-0.1845465701789843,5903.641864025877
0.476,0.031840469956964955,5897.259491760492
0.48,0.29024869728656744,5898.369039347125
0.484,0.5685114088730152,5896.374918168082
0.488,0.8443906434570841,5896.832934584522
0.492,1.1028990814052189,5894.869746235671
0.496,1.3416313520387906,5892.754146643828
0.5,1.5698204827852325,5907.476026700585
0.504,1.7997085468151002,5896.687258801228
0.508,2.0336374948597813,5892.534671191304
0.512,2.2541310546638282,5899.348303158495
0.516,2.424068442740605,5896.402038881354
0.52,2.4989767890832506,5907.414324086986
0.524,2.446411641057121,5896.826641931478
0.528,2.263071904360613,5904.532223777092
0.532,1.981285294388302,5905.683032363327
0.536,1.6616561759534454,5895.838823107694
0.54,1.3748347894309318,5902.377792619863
0.544,1.1796191896106207,5898.659529872419
0.548,1.1054506017722139,5898.080961781601
0.552,1.1451404614277256,5903.684176817512
0.556,1.2597648814469335,5898.815272999579
0.56,1.3933916365950962,5902.373114410518
0.5640000000000001,1.491908676706584,5896.455668418014
0.5680000000000001,1.519083099084702,5893.765480795089
0.5720000000000001,1.4646749173130418,5905.836046046827
0.5760000000000001,1.3430534081426428,5896.777149504815
0.58,1.1845163462603676,5898.971336581025
0.584,1.0236193702789107,5907.262209006275
0.588,0.8885636097956452,5908.184311798425
0.592,0.7940883302318683,5899.700590334989
0.596,0.7389652582833189,5895.071893874589
0.6,0.7083719028561419,5903.024794607828
0.604,0.6803335670324444,5893.836956402913
0.608,0.6340006129829848,5898.103142682781
0.612,0.5568425722482301,5902.544842582319
0.616,0.44855818052847307,5903.512874744186
0.62,0.32099791179555826,5907.122816401138
0.624,0.1947683209597102,5898.458052819918
0.628,0.09398912704254242,5905.96478970877
0.632,0.0406516930497665,5904.73268306426
0.636,0.04942268744355455,5890.078976773765
0.64,0.12350674437502118,5896.432190183135
0.644,0.252741237222953,5900.486011255013
0.648,0.41534669436681915,5897.268638549928
0.652,0.5834193580173515,5900.853649712266
0.656,0.7299793858213125,5897.427285979867
0.66,0.8345436946178415,5907.693890822364
0.664,0.8859330737123478,5893.622211840742
0.668,0.8834088781638773,5898.1994003003065
0.672,0.8374582627656426,5902.004105415811
0.676,0.7695904697883038,5894.860381369158
0.68,0.70923775778898,5899.555730285975
0.684,0.6871832996023519,5895.079277311177
0.6880000000000001,0.7272045403566718,5898.687162864041
0.6920000000000001,0.8383514295110814,5905.332884795247
0.6960000000000001,1.0098515763965867,5899.284626622983
0.7000000000000001,1.2105237773362176,5904.882749900843
0.704,1.394327876779823,5904.569001108957
0.708,1.5122193602848903,5903.054256447018
0.712,1.5279186217435594,5902.875813031542
0.716,1.4323167859537647,5901.162442490392
0.72,1.2496119841606828,5911.970735399706
0.724,1.0302402636704435,5902.16851759085
0.728,0.8317331638091251,5893.461546036897
0.732,0.6954972342353869,5906.298611683638
0.736,0.6303079159331123,5903.34437736129
0.74,0.6099851657994093,5898.402155867776
0.744,0.585516929175981,5894.220925176526
0.748,0.5051085601409585,5899.299096810944
0.752,0.3328571338420577,5890.611741829287
0.756,0.05903265476384018,5904.851283359377
0.76,-0.2998786151135883,5902.746249570645
0.764,-0.7086445967755237,5898.958343370933
0.768,-1.1236270158314479,5899.5559261244525
0.772,-1.5020879888189853,5900.642153586246
0.776,-1.8086643224271515,5897.302238416802
0.78,-2.018933602251429,5897.002346291505
0.784,-2.120692975061242,5894.621626074182
0.788,-2.113924166831124,5899.345479661661
0.792,-2.010472969727234,5897.845316048275
0.796,-1.8333448172528566,5906.744828166362
0.8,-1.6138158027790246,5897.278723448237
0.804,-1.3846391772739095,5899.719099069504
0.808,-1.1704248042289809,5896.702813676484
0.812,-0.97957566076866,5901.271191189344
0.8160000000000001,-0.8028068195650473,5902.215186623031
0.8200000000000001,-0.6202519301099945,5898.48726534763
0.8240000000000001,-0.4144718391146448,5895.332633431089
0.8280000000000001,-0.18328797372490804,5893.773416503252
0.8320000000000001,0.05413245345291117,5899.52622555756
0.836,0.2619763501258691,5899.286794090617
0.84,0.4022681755432989,5901.594111176901
0.844,0.4525416693736015,5899.718611737779
0.848,0.41753244163806674,5900.482960196965
0.852,0.3285133533975271,5895.143462971803
0.856,0.230428357371473,5893.287675903026
0.86,0.16302553193974587,5901.019064906595
0.864,0.1445474185988156,5895.667000615018
0.868,0.16495964480738937,5894.31854542181
0.872,0.19169889097223639,5896.719260416389
0.876,0.18572120190382538,5903.405615088548
0.88,0.12057847362087189,5897.577602633969
0.884,-0.0048372006306643,5901.96447753736
0.888,-0.16610533653079412,5895.098793007591
0.892,-0.32503239178017995,5906.53931893741
0.896,-0.4466038270646409,5898.571082463315
0.9,-0.5124769817213057,5899.243998022448
0.904,-0.5251568639889325,5900.846290144375
0.908,-0.5023002514931332,5903.602815158591
0.912,-0.4652956863786412,5893.694138328488
0.916,-0.4282311731753099,5890.624938215447
0.92,-0.39215795735540065,5902.328224307197
0.924,-0.34628209489769984,5898.324336560056
0.928,-0.2743032369294042,5901.618699847495
0.932,-0.16214876949503418,5891.6944716486505
0.936,-0.0034218083343042784,5889.221269182807
0.94,0.19913324451893452,5904.624728907839
0.944,0.4350699344207002,5897.105473540239
0.948,0.6880744178014361,5895.886770013556
0.952,0.9368174045523647,5892.974338323668
0.956,1.1557247144717018,5896.734531284685
0.96,1.3174105226469015,5890.362553043138
0.964,1.397233206500774,5897.624673090556
0.968,1.378713065572144,5895.841952773674
0.972,1.2580000485434317,5910.217570018512
0.976,1.0460945492229725,5902.767222060729
0.98,0.7682301328855974,5902.089033719335
0.984,0.460383610638025,5906.830587394709
0.988,0.16343606268375213,5899.200713480092
0.992,-0.0839654912909748,5893.649643526504
0.996,-0.25261941896094575,5896.22269636626
1.0,-0.32899272016415554,5900.409033930456
1.004,-0.319269622633267,5903.977055542308
1.008,-0.24942650519655712,5898.741944628316
1.012,-0.15970647007006086,5902.550295265164
1.016,-0.09400036778799248,5903.442790797669
1.02,-0.08762645541480214,5892.203933070421
1.024,-0.1583628118837666,5894.639015926867
1.028,-0.3039021658222908,5908.545451391514
1.032,-0.504972394925166,5899.124550867806
1.036,-0.7301702110765023,5898.03055701786
1.04,-0.9391265731564232,5904.075100576064
1.044,-1.0846068737707908,5899.943127582507
1.048,-1.1174559082746138,5897.816911692755
1.052,-0.9973867639079191,5903.089251610892
1.056,-0.708250135518946,5905.777565720408
1.06,-0.2721434735034172,5906.208513698868
1.064,0.24487786120424018,5903.005820459203
1.068,0.7408757807689667,5898.246229724589
1.072,1.1004437941975598,5897.577908631427
1.076,1.226015967329058,5891.702649016079
1.08,1.068151579939991,5896.41375543799
1.084,0.644123268423302,5899.606497531538
1.088,0.037746882790801156,5903.586173475854
1.092,-0.6201612813697212,5896.8123169458495
1.096,-1.1849991160397324,5901.394841507366
1.1,-1.5355874582509113,5899.895939935025
1.104,-1.6045496125569407,5894.507858243949
1.108,-1.3928585522094663,5902.228790694157
1.112,-0.9645951009846042,5906.144384445529
1.116,-0.42501682788974043,5898.593846233582
1.12,0.10920060746939651,5891.710946507707
1.124,0.537473106713278,5898.046227473363
1.128,0.7939427414130878,5899.788973975265
1.132,0.855343481282927,5899.035164448
1.136,0.7390770371674551,5897.62720822348
1.14,0.4934808437194919,5902.66818858777
1.144,0.18275515314144433,5901.750446805029
1.148,-0.13046192449585498,5896.703651444077
1.152,-0.40125630420495495,5909.128559095943
1.156,-0.6132063472441311,5905.697590897267
1.16,-0.7799921090742931,5905.564690319845
1.164,-0.9361190723646253,5899.001196325131
1.168,-1.1187293240846568,5903.783430598724
1.172,-1.3465291247371214,5899.645563756691
1.176,-1.604141651987126,5903.338719086511
1.18,-1.8391193678694622,5903.252536403182
1.184,-1.9744877030878598,5905.210832888126
1.188,-1.9336981102545527,5901.931838210919
1.192,-1.6695440244365596,5912.110214391352
1.196,-1.186052573116859,5899.597841654744
1.2,-0.5442098225343603,5900.398189181122
1.204,0.15138608671374879,5904.135165135864
1.208,0.7800849714614742,5890.481047235582
1.212,1.2369360623533485,5892.1458813141535
1.216,1.4580802397696344,5900.538395908043
1.22,1.4327019910427112,5893.6742413496295
1.224,1.2000945597596184,5890.661468570659
1.228,0.8354583514825277,5898.367900761124
1.232,0.4299069381317178,5899.449946614486
1.236,0.06903991183190733,5910.992808208752
1.24,-0.18647097612467722,5895.339343292195
1.244,-0.3138638570295173,5900.124707743634
1.248,-0.3301063873999048,5899.909022702938
1.252,-0.28126338767045733,5900.729693109071
1.256,-0.22390277329688035,5901.759364358226
1.26,-0.2063939390587738,5890.11746690225
1.264,-0.25648756466814876,5900.973563864953
1.268,-0.37744671489171633,5899.012577378247
1.272,-0.5515552333728054,5906.249372802628
1.276,-0.7480336469191132,5898.891164602295
1.28,-0.9317263008742741,5892.130964604253
1.284,-1.069641100069769,5905.779383952512
1.288,-1.134763188203531,5901.572919626041
1.292,-1.1088754117647548,5902.137245701768
1.296,-0.9861052172734709,5894.368275210758
1.3,-0.7766253540189826,5907.474168210368
1.304,-0.5079698724904022,5898.296224921116
1.308,-0.22183275170498842,5904.984939248756
1.312,0.03378481904171749,5900.779387427185
1.316,0.2155396137102504,5897.569440609039
1.32,0.2962396479408297,5899.407481170378
1.324,0.2732711324946311,5905.094711096026
1.328,0.1702810417028673,5911.076818750459
1.332,0.03073254703283236,5903.503982462978
1.336,-0.09420552334824484,5904.967469035046
1.34,-0.15846611766680002,5897.599449261268
1.344,-0.1303810356400772,5902.144505396843
1.348,0.0025238483411478842,5903.177840167662
1.352,0.23141547828681153,5900.73459271965
1.356,0.525099381030998,5895.578732973641
1.36,0.8312587485827525,5902.589007516794
1.364,1.0832646067597784,5901.222724179159
1.368,1.2142131264858618,5899.711417588838
1.372,1.1754196070604799,5900.153884289996
1.376,0.9525754736649354,5905.682761301672
1.38,0.5720971532570238,5901.04548481946
1.384,0.09419564498366373,5904.198482577295
1.388,-0.4039479696526862,5896.630371316167
1.392,-0.8467486741662599,5903.615972734202
1.396,-1.173376819501419,5901.554280417733
1.4,-1.3434031273738514,5897.155050029225
1.404,-1.3371164562105051,5906.868874058796
1.408,-1.1539023449779668,5894.9841792985535
1.412,-0.8111260614037759,5896.415170484537
1.416,-0.3441545544829448,5904.821015821296
1.42,0.19384190851795574,5892.649488688243
1.424,0.734792766181505,5890.659681268206
1.428,1.2031444876009836,5895.8912812391145
1.432,1.5275626112098297,5905.868354583807
1.436,1.6547581841834,5895.778533042948
1.44,1.5624772785859626,5897.011984920598
1.444,1.268791724819977,5901.578685095012
1.448,0.8349030449972179,5903.117704174771
1.452,0.3585038153305805,5899.99432798033
1.456,-0.044196913792576085,5900.079325396051
1.46,-0.2658095150807428,5899.983581594131
1.464,-0.23717273576040995,5893.322191738048
1.468,0.051447314404134,5905.405189428206
1.472,0.5459303610122604,5894.803039974192
1.476,1.1432882937040887,5900.757009524488
1.48,1.7211818105624197,5902.196016907396
1.484,2.171550965025379,5896.349688711984
1.488,2.426877212577934,5894.178085320089
1.492,2.471067040842725,5904.0469741051775
1.496,2.3335675863670193,5897.168017029916
1.5,2.072269542028054,5900.123283534528
1.504,1.753864466891937,5905.082181545204
1.508,1.4379715908767732,5900.549887547175
1.512,1.1670446348828487,5897.201503923849
1.516,0.9619449229696622,5907.951037892043
1.52,0.8228510993099158,5898.47639464113
1.524,0.7345658175474928,5904.70231279678
1.528,0.6742457628316687,5892.720692958237
1.532,0.6192440532259715,5902.164357049581
1.536,0.5529752054319316,5901.642772862334
1.54,0.46723463747002075,5907.685513043372
1.544,0.36084219230146874,5897.915828887308
1.548,0.2366690897132168,5909.550919268176
1.552,0.10021972809135585,5901.424398464872
1.556,-0.03868160265596123,5899.905451381748
1.56,-0.163040355113849,5889.557044801055
1.564,-0.24880318586746258,5905.7150488138905
1.568,-0.2705587445265999,5898.439313184981
1.572,-0.211259079228558,5894.880787097055
1.576,-0.07080547729116196,5892.035042591338
1.58,0.13185813815768632,5904.474629394659
1.584,0.3648299298816721,5906.573219266832
1.588,0.5940952320712511,5905.54862444675
1.592,0.7932726475028415,5900.840963574665
1.596,0.948372719684165,5903.719632607183
1.6,1.057352550736886,5904.177606264096
1.604,1.1260448206034006,5905.819424444453
1.608,1.1618256204291535,5898.904699027642
1.612,1.1665419271173678,5895.66017483617
1.616,1.13165605999289,5905.379539670345
1.62,1.0393550125176862,5898.187741388998
1.624,0.8712856960701247,5894.149695399028
1.628,0.6220571808613942,5897.7447204068185
1.632,0.3107774163207591,5913.87977836455
1.636,-0.01639457193167731,5908.101698626018
1.64,-0.2958683150757009,5908.180888542176
1.644,-0.4655898752069066,5906.790003290962
1.648,-0.48565242989916935,5889.36137944438
1.652,-0.35189332630581455,5897.479521108076
1.656,-0.09708175732373495,5899.197789130348
1.66,0.22018383313168774,5896.516210385453
1.664,0.5334894257438545,5900.2712973231
1.668,0.7857365933980113,5898.908119153387
1.672,0.9394345590651899,5898.228982852553
1.676,0.97853413620873,5905.271166064161
1.68,0.9038449971916553,5900.308744087819
1.684,0.7258634887640131,5902.944646103357
1.688,0.45911845495086306,5899.333842803702
1.692,0.12077860682846653,5901.261709157181
1.696,-0.26667126156554166,5901.274906157113
1.7,-0.6717483728046807,5901.979119118297
1.704,-1.0532344827329212,5910.595895709354
1.708,-1.3648078539789705,5911.416071053102
1.712,-1.5644437141226342,5901.471030112492
1.716,-1.625140072398277,5902.819323610387
1.72,-1.5427621452733173,5905.9996687802
1.724,-1.3384550837661062,5904.4470643667255
1.728,-1.0552416066058612,5898.599810107102
1.732,-0.7495047474673093,5895.396070907171
1.736,-0.4788176209787725,5900.587728697667
1.74,-0.2890851964587922,5895.064560789228
1.744,-0.20507452661588368,5914.171328979121
1.748,-0.22728819562122074,5901.869728721124
1.752,-0.33529860417091256,5895.389985695543
1.756,-0.49553206452429827,5894.5214920455055
1.76,-0.6710424619897405,5905.449356885534
1.764,-0.8308650965527574,5896.877829481574
1.768,-0.9565337960883608,5899.545895674227
1.772,-1.0441812818696339,5899.976498787089
1.776,-1.1024444195344327,5905.241093524523
1.78,-1.1478280577865891,5897.540235806395
1.784,-1.1993297566893424,5899.534721849233
1.788,-1.273381977371528,5893.168556396287
1.792,-1.3793142191593453,5903.617820724311
1.796,-1.5153064243833252,5901.818984411077
1.8,-1.6657612760846248,5895.766167232574
1.804,-1.8023771794260148,5896.993182462727
1.808,-1.890793102154483,5900.939891006236
1.812,-1.9017389515899163,5899.577388550516
1.816,-1.8222613832355723,5902.156052270766
1.82,-1.6615274750447084,5898.776578968916
1.824,-1.447850089547723,5895.2019152771045
