时间(s),电压(V),幅值(高频80K)
0.0,1.0400711143347168,5901.487633004726
0.004,0.9609482630213393,5899.442981411383
0.008,0.8553476888348572,5900.971449807317
0.012,0.708178929576816,5905.642006174009
0.016,0.5179386255682842,5893.928399409756
0.02,0.2952175168971022,5899.639628534023
0.024,0.05973509705060387,5897.877688835889
0.028,-0.16211074720926372,5903.157984170977
0.032,-0.34061799022576333,5905.759593513526
0.036,-0.4494130138429624,5902.334112368917
0.04,-0.4746325352265858,5911.559138088221
0.044,-0.42215996051865745,5901.651354355465
0.048,-0.31792432054487474,5900.2129931498985
0.052,-0.19977254753231585,5902.059448437502
0.056,-0.10401375917346681,5896.705160292031
0.06,-0.052259928687954114,5898.152610032964
0.064,-0.043826589697564276,5893.724887860872
0.068,-0.05651768171055517,5901.163474173871
0.072,-0.05529462692620609,5911.83203383909
0.076,-0.005602736410195846,5899.725540697056
0.08,0.11291414321833944,5895.881819418697
0.084,0.29619581001798184,5902.893975847254
0.088,0.5118973827417164,5901.942884798415
0.092,0.7033221095258176,5894.838978236406
0.096,0.8011724705435139,5896.331965761642
0.1,0.7418525033872002,5905.698349002003
0.104,0.48894932137486774,5902.361782666993
0.108,0.051210150570199446,5901.726518119955
0.112,-0.5114148795369658,5903.106723242441
0.116,-1.0986680673817186,5902.95270469565
0.12,-1.5950937027852765,5897.906509540763
0.124,-1.9001722127228744,5898.735625509218
0.128,-1.953353060058024,5890.5603041962
0.132,-1.7473551902939028,5900.937159134957
0.136,-1.3273447464352757,5905.084009619323
0.14,-0.7770226812770411,5900.188008427263
0.144,-0.19598114607558403,5897.924430077014
0.148,0.3244281552655324,5911.16466900718
0.152,0.7191589455280629,5904.138013144116
0.156,0.9570131402305699,5902.359739979501
0.16,1.0378950120517496,5898.344786806419
0.164,0.9837128623981514,5898.324678470624
0.168,0.8278626034962019,5912.038834847324
0.172,0.606619537559623,5899.648623790391
0.176,0.3536215640188557,5901.756775289962
0.18,0.0974858447348341,5894.164703638386
0.184,-0.138259317966933,5901.525252302413
0.188,-0.33479517632405054,5910.093271906514
0.192,-0.47884443491355955,5893.917824404814
0.196,-0.5643033132045416,5897.883486075963
0.2,-0.5924180453048851,5910.044696718028
0.204,-0.5689263744865876,5901.056146301593
0.208,-0.49945270204885045,5903.862640153602
0.212,-0.386673975696597,5897.024243475412
0.216,-0.2317463660301768,5904.438379346373
0.22,-0.038888993661618076,5907.1635272175445
0.224,0.18050818346317646,5895.613317388735
0.228,0.4069969162146469,5894.308878726842
0.232,0.6153056822783497,5901.582241294342
0.236,0.7778799054430213,5888.910896404368
0.24,0.8686164671695767,5889.866704892394
0.244,0.8674310111571303,5897.201881926598
0.248,0.7667448757739836,5908.837326278313
0.252,0.579200564579296,5896.014466530909
0.256,0.34312042943859994,5899.670815381069
0.26,0.1206997775780414,5890.767666304096
0.264,-0.014363758649863915,5897.004882073021
0.268,0.0019132463768074194,5898.045718706871
0.272,0.20105974557436582,5903.109869081609
0.276,0.5676096101202603,5894.303229684999
0.28,1.039784623321136,5904.906827940602
0.284,1.5258116066234333,5895.688724603038
0.288,1.9293061320671425,5898.720259653479
0.292,2.173810957672006,5896.182140017534
0.296,2.2186064948467696,5901.367518577765
0.3,2.0633089591018576,5901.230248520704
0.304,1.7433450073650443,5891.838882604562
0.308,1.3195774680297714,5889.111488524051
0.312,0.8646093660269785,5909.826463979791
0.316,0.4484837345253358,5893.758559212393
0.32,0.1275319778594868,5898.536903469992
0.324,-0.0606107668577442,5897.249482852344
0.328,-0.09615872574344271,5907.61791495845
0.332,0.025783833231558775,5896.477772305953
0.336,0.2962628395760118,5902.050293259913
0.34,0.6903926135442665,5898.376984065379
0.344,1.1641593303031303,5898.298715289789
0.348,1.6533030741365398,5892.013224144881
0.352,2.076644843755945,5899.533059150213
0.356,2.34498745568802,5897.846823701409
0.36,2.375801851695661,5897.558939633407
0.364,2.1122253667401334,5913.449074456377
0.368,1.5419532484895693,5905.023575889635
0.372,0.7093780856529778,5898.068761214398
0.376,-0.284957551403999,5901.287751056079
0.38,-1.299884120649842,5901.017370245801
0.384,-2.181331046454408,5901.344156274411
0.388,-2.7949732149600983,5891.890710883576
0.392,-3.0546809240762514,5903.528347060727
0.396,-2.939386642963391,5898.353790317759
0.4,-2.494945365250998,5901.963597468949
0.404,-1.821672477866744,5893.803850547258
0.408,-1.0514068514020602,5895.33401704974
0.412,-0.31997222193848807,5896.517681632422
0.416,0.2583899800958685,5908.40789913982
0.42,0.6091245632397786,5904.361405696523
0.424,0.7054761062270063,5901.862784995531
0.428,0.5675394400735585,5895.344640696491
0.432,0.2546544902527754,5907.774989376305
0.436,-0.1475054207651783,5887.989490465988
0.44,-0.5446519532202356,5902.354081395015
0.444,-0.8540649721758156,5901.361409600629
0.448,-1.0219640648616064,5897.009377007481
0.452,-1.032448888404046,5895.133926914587
0.456,-0.9056678384917964,5902.8048601240935
0.46,-0.6873603405536091,5906.7590285891165
0.464,-0.43465509080559284,5903.345861024933
0.468,-0.20282066395140624,5900.642964260877
0.472,-0.03545458023838871,5897.327127902254
0.476,0.04178783279442074,5903.06416158075
0.48,0.024885739912780133,5899.875538045448
0.484,-0.0672899200318487,5900.38177726034
0.488,-0.19575830683190065,5896.5261086792525
0.492,-0.31023813941062095,5899.776463576644
0.496,-0.36373647273928505,5894.195233341036
0.5,-0.3292055771402741,5900.509407526559
0.504,-0.21209664032272113,5898.438229987847
0.508,-0.05254095559743951,5900.690725577211
0.512,0.08600511887684688,5891.837573511408
0.516,0.13883316958210828,5904.283120250544
0.52,0.06403282999734795,5892.552409559537
0.524,-0.1418738667188811,5904.972611309845
0.528,-0.44276421155092016,5900.065754180857
0.532,-0.7747966965940487,5904.879753431701
0.536,-1.0645833052904476,5902.532945628849
0.54,-1.2465801185223482,5892.327067088189
0.544,-1.2758261550476295,5904.174441240631
0.548,-1.1355470820579123,5891.831008101476
0.552,-0.8406764865280776,5901.842261018903
0.556,-0.43762830112827006,5903.808988877682
0.56,0.0012668732471200043,5904.308113129999
0.5640000000000001,0.3907580428087364,5895.619847319351
0.5680000000000001,0.6523776345171081,5906.722248707314
0.5720000000000001,0.7356264888404558,5901.8409448473385
0.5760000000000001,0.6330508783120491,5903.25283484712
0.58,0.38317935426624783,5900.204822701912
0.584,0.05942718640525382,5898.541232645302
0.588,-0.25224181059855616,5898.014164260249
0.592,-0.48006404418094883,5909.900872347136
0.596,-0.5883576968757183,5892.345830145529
0.6,-0.5858927784348507,5909.345286905219
0.604,-0.5169690833870533,5892.803361144381
0.608,-0.4392419898742239,5891.084528675893
0.612,-0.3988688736372355,5901.206336655567
0.616,-0.41445737445205244,5904.5719016785615
0.62,-0.4758318606566143,5890.599798672077
0.624,-0.5553836296970867,5908.484847216212
0.628,-0.6240342807002235,5901.287035604405
0.632,-0.6636648198280145,5899.917005804515
0.636,-0.6719018959228581,5899.35622543943
0.64,-0.6596078156324177,5898.651945183708
0.644,-0.6437996553894189,5906.980720277448
0.648,-0.6391108499233348,5908.093539347487
0.652,-0.6503909641911263,5903.053053509913
0.656,-0.6683507926739793,5897.863019264599
0.66,-0.6696114682690845,5893.573682470283
0.664,-0.6217619502880835,5902.543359770003
0.668,-0.49228934091251175,5889.274821711494
0.672,-0.25813925696907164,5904.3491922540425
0.676,0.08762353804626512,5907.5309023044265
0.68,0.5334752171043433,5898.762749956212
0.684,1.0504348835059232,5900.389759396444
0.6880000000000001,1.5945612770504827,5890.128095211268
0.6920000000000001,2.1099211458073457,5900.0819073235925
0.6960000000000001,2.5329166227495272,5888.693397180341
0.7000000000000001,2.800148840738397,5893.053800279171
0.704,2.860533821049256,5892.641378790562
0.708,2.6886619905546407,5903.401850309968
0.712,2.2938993178230485,5899.39541384731
0.716,1.7211121883155134,5899.79910579774
0.72,1.0429817896227613,5905.995599377394
0.724,0.3472130485195124,5894.453921135037
0.728,-0.2774615342344711,5896.691031264363
0.732,-0.7539862812560525,5902.935150030236
0.736,-1.027473567538015,5893.042559187943
0.74,-1.0732434131788096,5902.604404375949
0.744,-0.9020296623918503,5893.961137777747
0.748,-0.5613188883556492,5901.27066802912
0.752,-0.13089650139139047,5899.458344706526
0.756,0.2893935234712121,5902.396732327752
0.76,0.5996403343506758,5896.6651836985375
0.764,0.7239329400995679,5900.69184032939
0.768,0.6317934736053231,5895.152676743989
0.772,0.3497278344370504,5898.908621944197
0.776,-0.04210936562043167,5900.879881061558
0.78,-0.4289316991436297,5896.99414747035
0.784,-0.6919032092796794,5896.108739071138
0.788,-0.7420197002001344,5903.580770033663
0.792,-0.5470400502995313,5894.071245274456
0.796,-0.1425548545212106,5891.8995247809125
0.8,0.3767107673543436,5903.872325686083
0.804,0.882349693567666,5904.955497986807
0.808,1.2460812828232861,5896.563461453628
0.812,1.3717311814068422,5901.872731713503
0.8160000000000001,1.2165903546919226,5895.134402169922
0.8200000000000001,0.7970473384756389,5901.183557426231
0.8240000000000001,0.17874255576894535,5899.387414182293
0.8280000000000001,-0.5433682965280636,5898.90094512712
0.8320000000000001,-1.2672740403168705,5893.126346768537
0.836,-1.901768732699116,5901.4421757419495
0.84,-2.376401906063721,5901.726018669155
0.844,-2.6438846117237156,5900.236512033199
0.848,-2.67836299699266,5898.585349605382
0.852,-2.4736877574310463,5905.174791239455
0.856,-2.0439996062839816,5895.319020493796
0.86,-1.4261548329017864,5898.840504802716
0.864,-0.6813923397781009,5901.651935898928
0.868,0.10720530261047653,5891.843812466885
0.872,0.8442280889437399,5902.581233298049
0.876,1.4385869866810739,5898.218323562034
0.88,1.8234038955183143,5891.906968857535
0.884,1.9720632734151426,5900.585546341158
0.888,1.9037036896105972,5900.122926938764
0.892,1.6756692560986153,5896.223172774649
0.896,1.3657530589924562,5894.820055649461
0.9,1.050352977319434,5895.740023995347
0.904,0.785354231969682,5901.996554072392
0.908,0.5954893616020875,5904.642877933265
0.912,0.4750202115715911,5898.5330174563405
0.916,0.3977927305606299,5905.345731568876
0.92,0.3304715739647087,5898.835072661936
0.924,0.24261689369334338,5905.12676158748
0.928,0.11146536084566463,5894.903439263805
0.932,-0.07610973354733894,5897.229961663063
0.936,-0.3208539670544516,5896.700036868424
0.94,-0.6066716131668686,5892.273770295095
0.944,-0.8973333628589736,5899.399768250642
0.948,-1.1389766493415767,5901.205981898658
0.952,-1.2709070800414284,5898.4095894144175
0.956,-1.2422836869890814,5904.731898426096
0.96,-1.0282926709550897,5903.914977818955
0.964,-0.6396730637734018,5894.539856336557
0.968,-0.12314935409287489,5896.562190739819
0.972,0.4462418323315298,5907.238945710031
0.976,0.9786668921937783,5901.51352049482
0.98,1.3863982654696512,5895.347026516796
0.984,1.6013393966710636,5892.077586729472
0.988,1.5898946567262615,5902.206307128128
0.992,1.3614884535445106,5899.097182649838
0.996,0.9674433959520017,5902.434228769255
1.0,0.48919628932894127,5901.993521988821
1.004,0.01862948886030843,5908.711798912763
1.008,-0.3636868870718989,5910.242431549372
1.012,-0.6062016534769183,5894.652890875499
1.016,-0.6956096809889308,5901.29393275559
1.02,-0.6555100594349339,5900.044853389433
1.024,-0.5352891072649593,5889.0479593087375
1.028,-0.3933421745390241,5890.361005590422
1.032,-0.280772258578912,5894.677675566954
1.036,-0.23071822719079332,5904.905208184191
1.04,-0.25508779474299287,5896.585118122645
1.044,-0.34731835145785156,5901.963736974121
1.048,-0.48873732515019797,5892.543859097261
1.052,-0.656379791574189,5896.018789296974
1.056,-0.8300254634497333,5901.647947075179
1.06,-0.9958977151986613,5890.563232184736
1.064,-1.1455333159884427,5899.2612166651925
1.068,-1.2710371078229465,5907.365822191128
1.072,-1.360415738924833,5894.481005778145
1.076,-1.3969319573156398,5907.027266804464
1.08,-1.3639490626977964,5894.737985619567
1.084,-1.2527852291495123,5891.025604713743
1.088,-1.0683234154556172,5905.908732309757
1.092,-0.8281386488334693,5896.397702010933
1.096,-0.5555363360737927,5894.7332172358365
1.1,-0.2714015114791977,5899.4831563443495
1.104,0.00977264762577446,5898.396625050775
1.108,0.2780318284913793,5904.52733977548
1.112,0.5231589890060656,5898.0651063407495
1.116,0.7316267938396573,5892.195389701869
1.12,0.8882262364978454,5899.517796809113
1.124,0.9816087591507372,5896.497653171276
1.128,1.0099465565960308,5898.895528040848
1.132,0.9823733429624958,5900.765304581714
1.136,0.9143204026532078,5902.12066270697
1.14,0.8189562515123581,5892.919274617813
1.144,0.699758683396153,5905.304080832014
1.148,0.548756562099897,5893.065236494465
1.152,0.3519693862248346,5895.811978373094
1.156,0.1001400865980251,5900.917566451234
1.16,-0.19989914561050573,5901.947709166053
1.164,-0.5191384626461913,5894.19568734485
1.168,-0.8097243724883274,5897.973747578403
1.172,-1.017296877284802,5898.875470765944
1.176,-1.0976894005089866,5893.140152255667
1.18,-1.031839238005737,5895.906505478188
1.184,-0.8334146480860392,5896.095490731173
1.188,-0.5458863302040038,5892.94946243708
1.192,-0.22990019342369106,5903.512375164291
1.196,0.05363599739521625,5901.074949725859
1.2,0.2577147844165015,5900.658298921495
1.204,0.3562008931892522,5897.272716233166
1.208,0.3435389876708485,5900.2877683405
1.212,0.23005604370287994,5900.040293217662
1.216,0.03630559759585015,5902.029047472896
1.22,-0.21095964133256975,5901.534717874434
1.224,-0.48019797257890207,5896.868019640436
1.228,-0.7348933706588973,5906.883613060991
1.232,-0.9342720672485106,5892.660638060132
1.236,-1.0373050483302115,5902.529007261936
1.24,-1.0106833772273032,5898.725385770933
1.244,-0.8389188939909867,5895.435707526485
1.248,-0.5325508504948717,5888.517318976632
1.252,-0.1303657541081726,5905.83465391063
1.256,0.3058433401832473,5901.1660444180525
1.26,0.7022253376225818,5897.177062367412
1.264,0.9865247444023283,5899.68492432266
1.268,1.1019633859637445,5891.933550072324
1.272,1.0192066652720955,5891.329170856418
1.276,0.7440948769741887,5899.634272540955
1.28,0.31918090939037363,5889.656454686285
1.284,-0.1819739086314107,5903.843297922899
1.288,-0.6677172036165837,5897.763217699273
1.292,-1.0465802185580244,5909.051856385208
1.296,-1.246527289051117,5904.088250216324
1.3,-1.2295707529263924,5889.156498706995
1.304,-0.9978283326409232,5903.163160967988
1.308,-0.5904146642487895,5898.120647340068
1.312,-0.07303702630923022,5901.679565456836
1.316,0.47666004387276617,5896.96263749496
1.32,0.9842497984816196,5902.241586438056
1.324,1.3903902822678063,5896.06901726375
1.328,1.6568431401750379,5896.597836369104
1.332,1.7662662240458364,5897.538278481204
1.336,1.7177931510544495,5894.871621595523
1.34,1.5218898311246702,5904.679629238898
1.344,1.1973415083248182,5886.862604215301
1.348,0.7709598319244133,5897.912059355744
1.352,0.2786778447959437,5890.187272770761
1.356,-0.23394821659401316,5908.65025790323
1.36,-0.7137157714645077,5897.604695137734
1.364,-1.1055991312993803,5889.318590458531
1.368,-1.3625233584759555,5903.937023955243
1.372,-1.4569631182598552,5896.729745821296
1.376,-1.3898874490356035,5892.754285572539
1.38,-1.1922977850072722,5900.91652313602
1.384,-0.917688028577967,5894.042020509125
1.388,-0.6280723023764815,5903.810394849758
1.392,-0.37848032103298634,5901.794738023731
1.396,-0.20445918547253167,5897.537262247677
1.4,-0.11567389486297801,5896.893751189112
1.404,-0.09684905778659876,5893.7670723352585
1.408,-0.11512286106460733,5897.243057862153
1.412,-0.13134284641695326,5892.602099091609
1.416,-0.11246839996846429,5896.981103865062
1.42,-0.04195751078809497,5901.016631149985
1.424,0.07553486825465366,5904.20667233197
1.428,0.2175788235223685,5894.102397937852
1.432,0.3539481956861809,5900.047876474533
1.436,0.4577637838006996,5899.468241539358
1.44,0.5122257669987386,5896.949199100031
1.444,0.5106375823750123,5894.594661961888
1.448,0.45121844071172523,5899.178527966775
1.452,0.3304254908382938,5906.13786198112
1.456,0.13900441733158805,5905.003061606676
1.46,-0.13611830984826362,5893.019236427857
1.464,-0.5038107370639259,5898.659688011059
1.468,-0.957804922025769,5898.653456346483
1.472,-1.468230346350796,5892.001286289146
1.476,-1.9805284129638767,5898.599868025577
1.48,-2.4239452491814024,5904.137760222034
1.484,-2.727896993791888,5902.7742833014845
1.488,-2.840865802294554,5898.562988391652
1.492,-2.7449501807463332,5894.584951775013
1.496,-2.4608814605152753,5888.099298451311
1.5,-2.0421548856423297,5897.051045291188
1.504,-1.5605984919529878,5903.989397656195
1.508,-1.0880664664229385,5895.993640844818
1.512,-0.6800264550113517,5900.973608421153
1.516,-0.36632345727611487,5894.562211463548
1.52,-0.1518994453656989,5906.981071376279
1.524,-0.026219207576260048,5901.644582651592
1.528,0.023845480737609448,5903.008966004406
1.532,0.004781232652193056,5891.787563221599
1.536,-0.08403621753457445,5890.543483534747
1.54,-0.24225744634485477,5894.9731407221125
1.544,-0.4574212512797164,5902.539535206415
1.548,-0.6980412938577755,5896.144472306286
1.552,-0.9159240119744062,5906.407542448767
1.556,-1.0582638926507848,5899.5876596582
1.56,-1.0854365180678438,5895.2225100344
1.564,-0.9871948395225587,5896.397584406716
1.568,-0.7897389367738774,5900.642608936248
1.572,-0.5496484835015928,5897.922585654039
1.576,-0.3363763610963421,5896.117026621366
1.58,-0.2096132720525363,5904.124220290428
1.584,-0.1993073910361572,5901.983573785627
1.588,-0.295041664837337,5899.6159234876095
1.592,-0.44887495652723436,5896.272598211337
1.596,-0.5914424633222681,5890.78714459295
1.6,-0.6556597530832223,5896.084283648452
1.604,-0.5988169528854888,5898.201722978863
1.608,-0.41491449357725885,5895.2277424195545
1.612,-0.13392071284902585,5899.042046090636
1.616,0.1900844852823169,5909.531144090294
1.62,0.4965369465273319,5899.08093992246
1.624,0.7353698722347153,5896.831384165647
1.628,0.8780530799064316,5890.850969737937
1.632,0.920487078265324,5902.726908561373
1.636,0.8791784902278058,5905.388101278211
1.64,0.7841982701507361,5896.443058952607
1.644,0.6721095645072117,5897.573712855944
1.648,0.5800922166108977,5900.571178030636
1.652,0.5405971689910087,5895.635525316724
1.656,0.575807956487865,5899.560883869278
1.66,0.692819236389189,5899.932390723908
1.664,0.8814541121492182,5898.384236132287
1.668,1.11569114545415,5898.048564831753
1.672,1.3581195084288484,5897.891763515745
1.676,1.5662986304130104,5898.76793517242
1.68,1.7000120129887286,5907.507518852208
1.684,1.7282260996122258,5905.727293325209
1.688,1.6343979957645396,5896.496165699766
1.692,1.4192637525966412,5911.476721839877
1.696,1.1008881670812853,5900.1680252752885
1.7,0.7118434390474794,5904.778735873141
1.704,0.29345663809233635,5901.829583837998
1.708,-0.11185626159140254,5905.256400237679
1.712,-0.4675176994161158,5902.898849245814
1.716,-0.746047965223725,5892.03730663664
1.72,-0.9279234565617931,5903.961132433433
1.724,-0.9986116467241863,5895.667631196834
1.728,-0.9480159143393694,5899.648555836535
1.732,-0.7748575708615877,5897.071386850312
1.736,-0.49431767988717484,5901.105663529134
1.74,-0.14360893265269567,5892.57765034299
1.744,0.21994631052913408,5890.779548015034
1.748,0.5299424579376538,5897.8723970320325
1.752,0.7274980032409679,5894.040634121185
1.756,0.7767931919944504,5894.962167910911
1.76,0.6735950265907866,5894.745792848027
1.764,0.4446474713124852,5891.677676350836
1.768,0.1399297241120304,5903.862700745363
1.772,-0.17857735003548336,5898.808157598289
1.776,-0.4491898080854604,5894.234210634181
1.78,-0.6230368153059054,5899.028657770969
1.784,-0.675272160608581,5898.566495137624
1.788,-0.6111141745858923,5906.712920732336
1.792,-0.4623419139661934,5900.818448871126
1.796,-0.2737082819036588,5899.987050162397
1.8,-0.08499216593656828,5903.036769201067
1.804,0.08221322492557122,5898.821912404313
1.808,0.2267331099631433,5901.43729059713
1.812,0.35946651618652264,5899.431851025952
1.816,0.49004907548530635,5900.0192514796045
1.82,0.615279582954098,5905.518245436187
