时间(s),电压(V),幅值(高频80K)
0.0,-4.0825456579371275,5899.380298449037
0.004,-3.1593524394472854,5898.168558248724
0.008,-2.314978453093815,5884.1536232941335
0.012,-1.6029225216207184,5901.205707308796
0.016,-1.0468425218329638,5906.932155329395
0.02,-0.642960803462419,5903.865146074377
0.024,-0.36827546547546036,5892.367000882625
0.028,-0.1886754935171203,5905.858430378836
0.032,-0.06560829448325588,5894.291576085514
0.036,0.0370525125891267,5896.774413136053
0.04,0.14538846190421903,5906.601366884943
0.044,0.26926997701367594,5899.999805816342
0.048,0.40071414847477393,5891.852513284736
0.052,0.5180628532367639,5903.116135015882
0.056,0.5948106004371535,5893.073921545332
0.06,0.6103043956577691,5902.343802447924
0.064,0.5586960835896013,5902.117660387794
0.068,0.4525085575732172,5909.187782697466
0.072,0.3189106710688705,5904.555146799073
0.076,0.190213461498632,5896.936630726736
0.08,0.09305761015225213,5897.236609195573
0.084,0.04094205845783664,5893.400623277653
0.088,0.03216257179749057,5899.979218547528
0.092,0.052136723611404825,5894.602954958257
0.096,0.07779970556565187,5898.448434448659
0.1,0.08278049275094981,5897.950513313277
0.104,0.043612375968048726,5896.6049721936615
0.108,-0.053148900015620545,5899.928000333823
0.112,-0.20524369708509727,5898.341784040952
0.116,-0.3938525844933836,5898.1125598108265
0.12,-0.5888347815528621,5894.815472111329
0.124,-0.7578393810625983,5899.155480304105
0.128,-0.8753617836876801,5897.713419844839
0.132,-0.9287269451627764,5893.298323346834
0.136,-0.9198643814732835,5904.013898614142
0.14,-0.8629459706534287,5895.684587141403
0.144,-0.7786504051267455,5893.113895372416
0.148,-0.6870619558996622,5896.690605447235
0.152,-0.6022996100626502,5903.808496699513
0.156,-0.530858289025498,5898.819003326887
0.16,-0.47280796262942615,5894.324829827666
0.164,-0.4236702477500779,5894.3514529250415
0.168,-0.37624549399942275,5902.964028618913
0.172,-0.32322392148066187,5905.30188130049
0.176,-0.2604067603714104,5900.423056437786
0.18,-0.18811700391950512,5901.501949963341
0.184,-0.10854456408321633,5906.675189837254
0.188,-0.020216814087681625,5892.582209693813
0.192,0.08583761021649307,5900.76391570654
0.196,0.22395357075574573,5896.25563108071
0.2,0.40536508221271333,5899.556715941526
0.204,0.6274880851340919,5901.860142742071
0.208,0.86701625787641,5895.841335046624
0.212,1.0815995668174112,5903.190246214546
0.216,1.2210792820593241,5905.439983328553
0.22,1.2444980956646776,5900.391221153305
0.224,1.1357877212974636,5889.923033633413
0.228,0.9115233977969739,5892.850112345525
0.232,0.6181554091398889,5898.647070199476
0.236,0.32048460738409995,5899.707695626661
0.24,0.08519079816019454,5897.561479027393
0.244,-0.03672489734430081,5892.666367386895
0.248,-0.024791281755647338,5898.943368512065
0.252,0.10304074464810928,5894.267845728935
0.256,0.2932703642471608,5898.056694506582
0.26,0.4714348750046199,5896.234194130642
0.264,0.5648136075009378,5902.421220488785
0.268,0.5258078602678774,5903.105712827135
0.272,0.3476869145685508,5895.933403383697
0.276,0.06730466340392341,5899.027409102251
0.28,-0.24542865612784995,5896.930093498208
0.284,-0.5070459399518665,5902.331989819886
0.288,-0.642751682506504,5892.020099802419
0.292,-0.605517237624936,5898.671007475573
0.296,-0.38781732970188176,5898.4453904384045
0.3,-0.023553404926018224,5901.880929868696
0.304,0.4207238157836732,5910.965490856159
0.308,0.8639140311840963,5895.38703563032
0.312,1.2328219681074173,5894.438410854234
0.316,1.480937579081041,5905.178018060133
0.32,1.5963833954676288,5901.93251837155
0.324,1.5974441990256811,5900.8590339644215
0.328,1.5204134477235238,5909.364930560092
0.332,1.4066059166201939,5899.2048023993575
0.336,1.2926947995236011,5913.3367609422485
0.34,1.2049099021273704,5893.787515710378
0.344,1.1563781432104743,5893.616451296983
0.348,1.147352504967371,5899.930301411089
0.352,1.1679685560534814,5896.642930938468
0.356,1.20217207540612,5898.619686216805
0.36,1.2310588132568598,5901.178835515077
0.364,1.2347803201737957,5899.206157861598
0.368,1.1935697211406775,5901.166472207845
0.372,1.0893623919949644,5889.773678674291
0.376,0.909609386256471,5896.878725379548
0.38,0.6537858388070836,5896.398339914977
0.384,0.34044511677172634,5901.736351187279
0.388,0.009976869386061507,5897.373464325468
0.392,-0.28147863303680454,5906.542086127528
0.396,-0.4772742310921034,5899.246804836394
0.4,-0.539479704487973,5901.379610136539
0.404,-0.4636395593832163,5899.832473529724
0.408,-0.2814689156994738,5908.217324892136
0.412,-0.04905170424731234,5903.158546191026
0.416,0.17459149644971406,5905.511851205869
0.42,0.3486621186572878,5901.641038490838
0.424,0.46207600183807285,5891.836409462409
0.428,0.5312569372591704,5901.738938729929
0.432,0.5870727894676212,5896.357097272569
0.436,0.6586983894177055,5898.247037016938
0.44,0.7626175855136518,5898.902850430885
0.444,0.900512767575549,5900.8502234285
0.448,1.063728378373421,5892.427662817387
0.452,1.239054971634466,5896.121775426814
0.456,1.412130957736302,5899.4718873187785
0.46,1.5680722795030464,5897.062888040702
0.464,1.691076877130529,5894.81927679131
0.468,1.764907414601705,5899.288703183518
0.472,1.7749738126870984,5890.483776241261
0.476,1.7114948210529313,5901.627345569984
0.48,1.572833910518869,5899.020389637213
0.484,1.3680775685977833,5909.187531537349
0.488,1.1174326016558178,5903.399548646963
0.492,0.8488703092976672,5898.458834139575
0.496,0.5911214436456191,5896.09029748559
0.5,0.36582527474213444,5898.42289784652
0.504,0.18250263448790482,5900.965017919026
0.508,0.03814539400344437,5893.449273205101
0.512,-0.07915948336296462,5899.769171242926
0.516,-0.18432595308580366,5896.3277141923045
0.52,-0.28931765490000455,5903.923825439979
0.524,-0.3992738795655843,5893.492412511392
0.528,-0.5114968802217031,5902.969710765019
0.532,-0.6165264235903665,5889.5349089391775
0.536,-0.7004260403421981,5900.504704369564
0.54,-0.7480468488232326,5899.773369321121
0.544,-0.7466169141467137,5896.396315475089
0.548,-0.6881457124669266,5905.034097413691
0.552,-0.569892984530011,5900.559815117011
0.556,-0.3942735573547696,5904.878245821757
0.56,-0.17040302020241763,5905.645480464982
0.5640000000000001,0.08242399186998768,5897.017139880365
0.5680000000000001,0.3318676611384456,5903.646360246439
0.5720000000000001,0.533726166694105,5895.896213274676
0.5760000000000001,0.6390763437630183,5895.005069706803
0.58,0.6068269442620126,5905.656613514581
0.584,0.41857872879055846,5902.705262855635
0.588,0.0904699981395166,5898.369588553509
0.592,-0.32359578478622,5896.164307060516
0.596,-0.7402045382555503,5887.596086480154
0.6,-1.0646788385685266,5896.743145542288
0.604,-1.2143058012912835,5899.44798973675
0.608,-1.1400380255107079,5894.364437031391
0.612,-0.8406003004340086,5891.624033711937
0.616,-0.36490840786316914,5899.087766635351
0.62,0.19816383221381584,5902.334014357439
0.624,0.7400251332134473,5900.248238575157
0.628,1.1570954894688676,5910.109579767434
0.632,1.3734782299598347,5904.952344792811
0.636,1.3561175428620116,5890.265047142954
0.64,1.1195800039573842,5897.968338495242
0.644,0.720481299989057,5912.365938687915
0.648,0.24354012597999244,5900.015056318731
0.652,-0.21782181412622365,5897.369241503052
0.656,-0.5825778710387175,5908.387352101356
0.66,-0.8000712604836561,5898.470533019758
0.664,-0.8598830129404258,5889.4881540870665
0.668,-0.7905633187041653,5901.050152618802
0.672,-0.6477667144105372,5903.409878520741
0.676,-0.4956889380084579,5906.187024644099
0.68,-0.38753023565980427,5891.213054445984
0.684,-0.35075257973445606,5899.468372183264
0.6880000000000001,-0.38122831542387575,5897.2371487711525
0.6920000000000001,-0.4474636329013876,5901.783189759105
0.6960000000000001,-0.5031347881795342,5893.5425106617295
0.7000000000000001,-0.5040858056560898,5906.631587112717
0.704,-0.4246134168700802,5894.601495615271
0.708,-0.26766486233158043,5902.400141385436
0.712,-0.06558746205030629,5900.988769599312
0.716,0.12825469238184983,5901.235782177465
0.72,0.25386359999313934,5898.866924724642
0.724,0.261134898342506,5900.893162711457
0.728,0.12477236864907666,5910.081334127399
0.732,-0.14631569395045818,5901.47049009835
0.736,-0.508486029939532,5892.724292825591
0.74,-0.8925907253518831,5896.358759457967
0.744,-1.220438468594285,5899.120712085363
0.748,-1.4238144700685011,5904.617867405293
0.752,-1.46126607811165,5902.585468356228
0.756,-1.3286844330186371,5901.884997127758
0.76,-1.060868695087515,5901.738922225337
0.764,-0.7231398005363235,5901.583085314628
0.768,-0.39462359634924354,5897.320413968798
0.772,-0.14736852063021613,5902.415994643603
0.776,-0.02737975188571331,5902.772111413069
0.78,-0.043855059399919745,5907.121883871284
0.784,-0.17010338143419584,5896.436487438394
0.788,-0.35464819953925836,5896.292440582881
0.792,-0.5370717746656016,5894.49314806162
0.796,-0.6626305755289962,5902.353832887371
0.8,-0.6921797413258809,5902.607374125759
0.804,-0.6072508949455341,5900.656682919072
0.808,-0.4118514256269986,5891.612001800046
0.812,-0.13192900728442641,5900.507790445456
0.8160000000000001,0.1880849714989587,5901.848453476241
0.8200000000000001,0.49267059832664994,5896.845580681524
0.8240000000000001,0.7261450029920337,5903.576446992914
0.8280000000000001,0.8444465947571569,5906.637833317027
0.8320000000000001,0.8242280647638757,5900.742030290551
0.836,0.6671980099566285,5902.766038525412
0.84,0.3994628198331967,5894.857366784554
0.844,0.06586579144964372,5897.539997394585
0.848,-0.28035097083314436,5894.379135773225
0.852,-0.5900295192813594,5900.503995356477
0.856,-0.8280842127365546,5902.393917229553
0.86,-0.9771344722787151,5899.9079658547
0.864,-1.0343401218544965,5902.991816955686
0.868,-1.004651419023974,5901.721604137951
0.872,-0.8951741402753296,5890.8467944871445
0.876,-0.7136721521075667,5898.292094466739
0.88,-0.47089790408479126,5894.490588541541
0.884,-0.18429499699597165,5899.978252234304
0.888,0.11939193888696385,5900.866276136139
0.892,0.40441475531863585,5902.289339677182
0.896,0.6305178546037294,5891.1466066035855
0.9,0.7613848143419778,5899.869047306246
0.904,0.7741247322506098,5895.656680733901
0.908,0.6655067290653714,5903.533402924752
0.912,0.4522062064476836,5904.585412950311
0.916,0.16527704342440944,5903.304188404397
0.92,-0.1587732335840623,5904.448746762256
0.924,-0.48680307894847596,5901.547296506719
0.928,-0.7941609933778674,5900.154748364942
0.932,-1.0645016840277397,5896.812692812487
0.936,-1.286230381249215,5888.630447378075
0.94,-1.449577259033341,5894.808875240063
0.944,-1.5469298797159716,5900.7233551718855
0.948,-1.5759496880187562,5896.209977754576
0.952,-1.54297855344756,5903.59813632615
0.956,-1.4640719845500132,5899.083727588704
0.96,-1.3620502895919682,5890.597363160602
0.964,-1.2597155935909468,5895.738738897009
0.968,-1.1711529097328015,5888.720610565939
0.972,-1.0941730683886624,5901.16461376152
0.976,-1.0073917847189209,5889.868046832446
0.98,-0.8747567493014101,5900.401503390255
0.984,-0.6578499830550729,5903.979046626162
0.988,-0.3327057706873655,5889.127851770474
0.992,0.09489607992071473,5896.416199590937
0.996,0.5823093083977104,5895.501428820176
1.0,1.0557641023972424,5898.78616312334
1.004,1.429188973728979,5889.091425648359
1.008,1.6304120239697033,5899.2861132588605
1.012,1.6247576597208584,5894.862978768026
1.016,1.4266082396573296,5892.468890647978
1.02,1.0948118734973975,5907.937288914271
1.024,0.7145287827110999,5904.180752119488
1.028,0.3727393992284414,5892.575752591672
1.032,0.1356551910396676,5901.722567862136
1.036,0.03425768516731996,5902.539094811646
1.04,0.060872259686997957,5901.56601962932
1.044,0.17637497256424925,5897.608206924442
1.048,0.3248189207049625,5903.408233733683
1.052,0.45043469585569756,5891.499513582156
1.056,0.5117491982085995,5902.878359911282
1.06,0.4891470418440163,5897.744681286032
1.064,0.38489569434570425,5900.2772364961
1.068,0.2172941997909473,5898.240767574594
1.072,0.012195938276848539,5901.954142872956
1.076,-0.2048854057266631,5896.934889275766
1.08,-0.4144233701676093,5887.182787620746
1.084,-0.6062366249043801,5901.53596663152
1.088,-0.7805690554827683,5897.130536994301
1.092,-0.945787149658184,5904.369399368171
1.096,-1.1116096938378621,5895.799520300378
1.1,-1.2793066661101287,5895.719965442146
1.104,-1.4336811780988892,5909.966485132253
1.108,-1.5426012005253051,5902.358860868361
1.112,-1.5667303800308525,5901.287299757507
1.116,-1.4764507086170002,5901.962911549968
1.12,-1.2682811713125337,5904.302571897112
1.124,-0.9724078843843776,5904.065344869966
1.128,-0.6468012006604204,5903.125148760777
1.132,-0.359512937716691,5900.786823107606
1.136,-0.16562846795376457,5890.440958809912
1.14,-0.08696706451500573,5896.275501637739
1.144,-0.10161220245710113,5897.50589677513
1.148,-0.14798314309767666,5899.940688683513
1.152,-0.14409032905720848,5891.421108944534
1.156,-0.01664296438520225,5894.096592424208
1.16,0.2704608789461746,5894.028110104648
1.164,0.6993685419373836,5891.082274794113
1.168,1.199936500523555,5899.692054024148
1.172,1.6694786766309877,5896.164291072175
1.176,2.0034094055375835,5899.776719107389
1.18,2.125584249609489,5895.236768262521
1.184,2.0079204829364743,5895.11554658124
1.188,1.6741357451376535,5899.59623686371
1.192,1.1891700257013917,5898.564995191613
1.196,0.6403556497494433,5902.780861718676
1.2,0.11702798655989728,5900.682497188511
1.204,-0.3067937989643766,5906.610211191361
1.208,-0.5844440821374963,5901.504142816917
1.212,-0.7024091658732524,5896.191736695465
1.216,-0.6790995207784292,5900.18120407415
1.22,-0.5563181899830026,5885.624438617574
1.224,-0.3852722430601056,5901.608045864926
1.228,-0.21173317592634008,5901.52743417419
1.232,-0.06572887561965551,5897.995097564283
1.236,0.04087579086853192,5896.817768360617
1.24,0.10876338453205493,5900.976200678179
1.244,0.14057569356125438,5898.6593165064
1.248,0.13109116338449342,5891.362426121418
1.252,0.0641592987630506,5887.296423669299
1.256,-0.08125356841757882,5901.141320205841
1.26,-0.31899317388334153,5902.784046777084
1.264,-0.6440405678687713,5892.029378581239
1.268,-1.027068399465912,5896.025325881097
1.272,-1.4176554367529148,5893.461924540193
1.276,-1.754686036053808,5900.395981554192
1.28,-1.9800553315544362,5893.767288509204
1.284,-2.0515487146633298,5910.718822021368
1.288,-1.9521244339027102,5895.240068971432
1.292,-1.6945758509240303,5886.328010758112
1.296,-1.3212309866721836,5891.12183318276
1.3,-0.8977172594906047,5902.932710811733
1.304,-0.49983402589020565,5888.316139895396
1.308,-0.19504536708662074,5899.417362468935
1.312,-0.023795959561823003,5899.12333639328
1.316,0.012294234863339916,5899.21850610906
1.32,-0.05002626197858873,5897.598621032269
1.324,-0.14909390587432061,5898.06774915831
1.328,-0.2200070660940638,5908.281381111409
1.332,-0.21625794016651786,5898.511240625067
1.336,-0.12337229495114839,5895.382053925296
1.34,0.03988663920107245,5897.440114960345
1.344,0.23224903376946163,5894.743000243093
1.348,0.40726349956830504,5902.62820082108
1.352,0.5292120394340789,5902.663331178097
1.356,0.5810996699717942,5890.285607419112
1.36,0.5631315731272785,5901.345704999058
1.364,0.4849776929828332,5906.553677590527
1.368,0.3570508536201511,5899.486471601821
1.372,0.18495897151300758,5905.679101294209
1.376,-0.03098379864146773,5894.0621828096855
1.38,-0.291441458618501,5897.279625236907
1.384,-0.5909403050436582,5895.006173675284
1.388,-0.911264502788118,5903.66698826279
1.392,-1.2190295969388913,5901.64590226795
1.396,-1.4698864843288515,5890.926748185322
1.4,-1.6190094024027974,5893.103987280228
1.404,-1.6342119173121943,5904.342530665678
1.408,-1.5062033616223998,5888.822876278774
1.412,-1.2516720689250338,5892.06964473476
1.416,-0.9084378527620487,5910.319573875453
1.42,-0.5253090468194992,5899.947510605951
1.424,-0.15048559535853634,5905.288796577311
1.428,0.17848654583472823,5895.325620335841
1.432,0.4416288758230045,5896.600396874271
1.436,0.6394103090801827,5896.120067795544
1.44,0.7904719574506852,5898.232459034784
1.444,0.9235363816972595,5900.555427379488
1.448,1.06539633097277,5900.087675762553
1.452,1.2299819051985672,5899.323110468516
1.456,1.413886137288612,5891.73941968871
1.46,1.6003200090866905,5903.862323281622
1.464,1.7684772406837237,5894.294101553683
1.468,1.902220814592332,5896.486451758439
1.472,1.9933062194903568,5897.758040027243
1.476,2.039195877684132,5899.381271983374
1.48,2.039704901946923,5893.1522045941465
1.484,1.9966814211871093,5899.612759986548
1.488,1.9171894871666668,5905.1314461231705
1.492,1.8165674468315811,5900.560531593131
1.496,1.7164916631159512,5892.547501066973
1.5,1.6361339749938981,5904.391888952645
1.504,1.5799649879624544,5901.388453365091
1.508,1.529598094072307,5904.632930236625
1.512,1.446092531668533,5894.988934565778
1.516,1.2838222213200619,5886.602653753079
1.52,1.0107415910620043,5909.178488027093
1.524,0.626205789826901,5902.818243193853
1.528,0.16827152892278502,5900.123755828631
1.532,-0.2930549747324304,5905.963401449015
1.536,-0.6744691181327706,5893.449939574991
1.54,-0.9034853243984269,5886.813503036765
1.544,-0.9398206503189558,5892.146200497733
1.548,-0.7867788700255773,5897.707392682582
1.552,-0.4889387262931106,5896.42330253899
1.556,-0.1177613582888608,5901.812886556094
1.56,0.248553301344974,5901.184631626022
1.564,0.5432338000652237,5901.512729353816
1.568,0.7219971498078109,5894.863330084776
1.572,0.766194044296695,5904.533687388132
1.576,0.6803355884020171,5899.663028773022
1.58,0.487151543232151,5896.382099158411
1.584,0.22253485857539348,5900.060187346585
1.588,-0.06898483808275939,5899.788523001744
1.592,-0.3391206838872036,5897.216906726289
1.596,-0.5417251862876815,5891.675094858095
1.6,-0.6386350160105493,5896.858363750672
1.604,-0.6037062163484367,5900.033353993807
1.608,-0.424937420697166,5898.230643111634
1.612,-0.10648398078393632,5896.820626978432
1.616,0.3279941321255964,5899.806204425168
1.62,0.8316422801843705,5890.424830217119
1.624,1.3338199353913165,5894.256728280929
1.628,1.7466988078827477,5895.123790067561
1.632,1.9810865684112815,5903.910470594063
1.636,1.9691263352702428,5904.666771271744
1.64,1.6869426376107703,5901.867720423685
1.644,1.1684188262624218,5894.288784701981
1.648,0.5035355375913781,5898.174926529012
1.652,-0.17994427718956374,5900.202927991038
1.656,-0.7467839828585212,5901.786369973903
1.66,-1.088042166917525,5895.926363281934
1.664,-1.1489072551599802,5892.66539172283
1.668,-0.942775020452419,5898.909297652919
1.672,-0.5471231759403692,5900.428043965108
1.676,-0.08190866037008465,5894.1175887154095
1.68,0.3229577212434995,5895.972511364422
1.684,0.560949026507211,5895.495315420293
1.688,0.5736599563879614,5893.016994271513
1.692,0.3614377327950081,5894.618859043739
1.696,-0.021089223907365322,5890.03272204963
1.7,-0.4822012255751526,5893.331615203599
1.704,-0.9183115728858928,5900.791666093534
1.708,-1.2406502789523504,5900.617968333436
1.712,-1.3959924281640261,5895.485676345256
1.716,-1.3756322916355208,5897.304296527336
1.72,-1.210804899917848,5888.458141834284
1.724,-0.9574276333845626,5897.067875096509
1.728,-0.6764634305519788,5889.918237541038
1.732,-0.4170176424618659,5900.798118077703
1.736,-0.20713367114075035,5896.103174397558
1.74,-0.05337686872818724,5895.535628533153
1.744,0.053183795294629264,5893.987979398715
1.748,0.12861018721088796,5897.621912601061
1.752,0.1890360800022832,5895.785184150343
1.756,0.2469324033678392,5896.358571472347
1.76,0.3103837992089315,5899.477039440231
1.764,0.3832576158574591,5905.247742043784
1.768,0.4642612921639899,5901.961468833208
1.772,0.5449451864295383,5895.804907419771
1.776,0.608848432089962,5896.99212084518
1.78,0.6341579340946538,5890.791027595779
1.784,0.6002388482003173,5900.715561193944
1.788,0.49589248101816114,5894.964045591312
1.792,0.32605856811082423,5901.343337572818
1.796,0.11445438728661443,5906.446892444938
1.8,-0.09852965619500044,5899.480892719916
1.804,-0.2620644154107718,5889.991618981368
1.808,-0.3247557583373198,5897.867530404846
1.812,-0.24799550384187657,5895.678880627776
1.816,-0.02096328748853058,5909.024915980095
1.82,0.32799656628939444,5901.740855423358
