时间(s),电压(V),幅值(高频80K)
0.0,1.292226893818704,5902.500157697998
0.004,1.3230004635523769,5902.275545045601
0.008,1.357814698730168,5896.310081215977
0.012,1.3939026039308784,5904.216189931477
0.016,1.4180577727090615,5899.332068943032
0.02,1.4065019669943302,5898.006879350688
0.024,1.3302547411044694,5901.164898622444
0.028,1.1649648842151348,5899.715512592563
0.032,0.9007755095587725,5902.908303564949
0.036,0.5479538295762226,5906.525815471778
0.04,0.1370993718517104,5903.096550138606
0.044,-0.2847456665044126,5902.748748333565
0.048,-0.6608795529723569,5896.261670814367
0.052,-0.9344710481664059,5906.468983467329
0.056,-1.0599639060830324,5895.726377751721
0.06,-1.013292089656755,5908.206631114492
0.064,-0.797118370433879,5900.620658196118
0.068,-0.4396316227911691,5898.127614907379
0.072,0.011124678178378103,5901.747138905093
0.076,0.49428009309577997,5904.895972615595
0.08,0.9433482487279706,5897.889277964025
0.084,1.2945264757435682,5918.65704887326
0.088,1.496483985481962,5898.257427207304
0.092,1.519869486849403,5900.866218364735
0.096,1.3636441741199992,5899.436139064537
0.1,1.0561952949408129,5891.368733565413
0.104,0.6508211175800712,5900.992227411486
0.108,0.21634648892895592,5896.4422351975145
0.112,-0.17577940712182327,5909.863992390056
0.116,-0.465922015883454,5900.098778856243
0.12,-0.6193214758135239,5898.546780810114
0.124,-0.6343008610269146,5897.745143929389
0.128,-0.5428210084530185,5891.478233693918
0.132,-0.4023181871724067,5904.9198298291385
0.136,-0.2799347641839936,5900.723195842278
0.14,-0.23276192491895908,5903.484917203331
0.144,-0.290075604155954,5890.300018950934
0.148,-0.44415503680922,5900.719627478509
0.152,-0.6538120082883296,5900.383669012605
0.156,-0.8596142003605621,5896.81799873338
0.16,-1.0042148691936719,5900.985310122448
0.164,-1.048772931999373,5901.857134934493
0.168,-0.9795972450314239,5899.721848875302
0.172,-0.8057795208942363,5903.007322307671
0.176,-0.552990675555641,5900.049331000558
0.18,-0.25753396345281426,5908.291798451595
0.184,0.039211743011804856,5908.095878530654
0.188,0.2978891520292325,5904.675226884298
0.192,0.4902073264682995,5902.118178812884
0.196,0.6071994618400035,5889.903503299408
0.2,0.662208563581641,5897.1134738133
0.204,0.6856760997067622,5913.835766135762
0.208,0.7131329906516857,5898.698721289445
0.212,0.7716978224625581,5896.36531021439
0.216,0.870899869870216,5903.989728739732
0.22,1.0009894644856165,5903.458137794071
0.224,1.1383009360414584,5902.553972471624
0.228,1.2544331010904268,5895.934610028004
0.232,1.3251372111624655,5899.456941665356
0.236,1.3360938418515638,5908.6302513543305
0.24,1.2847823356228276,5894.686794949691
0.244,1.178885934934985,5899.305125711838
0.248,1.0322903138790875,5901.878421125261
0.252,0.8603582452851593,5909.644271213365
0.256,0.6765107298765352,5898.337024053707
0.26,0.4915562194189523,5894.163672746429
0.264,0.31546808516193264,5897.820282836534
0.268,0.1592669964263057,5896.826937904766
0.272,0.03439120834638434,5890.567564836956
0.276,-0.05046995779713347,5887.286019917997
0.28,-0.09195224731148488,5895.169988148557
0.284,-0.090813976083265,5890.39551124463
0.288,-0.04722487721717819,5909.492305952873
0.292,0.04350440268896118,5894.225241138112
0.296,0.19011526389510475,5903.805397010764
0.3,0.3977352275462818,5901.6197633629845
0.304,0.656278342462406,5905.182449525206
0.308,0.9315214099641272,5901.517439642305
0.312,1.1654783744970338,5890.62644500191
0.316,1.2886504108515253,5899.147088633131
0.32,1.240983152314396,5904.131928564279
0.324,0.9940333418718742,5896.335694467758
0.328,0.5657552435476849,5906.183035362856
0.332,0.021644235470221092,5897.861294804203
0.336,-0.5391853950245223,5900.955911606796
0.34,-1.0088302048808202,5907.293810365482
0.344,-1.2982051286816538,5902.654508157197
0.348,-1.3587132469607661,5892.4380170346085
0.352,-1.1919776442377596,5904.809220982881
0.356,-0.8458435908828197,5899.077646465807
0.36,-0.39876538355913244,5896.486449093734
0.364,0.06224037261281115,5906.37783729356
0.368,0.4630460633042839,5896.192924082082
0.372,0.7569522303805172,5899.657645648238
0.376,0.9295978142071346,5894.499371862932
0.38,0.9954830079814607,5897.92200027424
0.384,0.9888737387102938,5899.300235202899
0.388,0.9512946782443509,5896.200708251327
0.392,0.917513694585161,5893.673741007587
0.396,0.9028957529361404,5903.5059854187575
0.4,0.8960470112378394,5900.997739009031
0.404,0.8600936772065161,5901.503488401033
0.408,0.7435462725336148,5900.923774647348
0.412,0.49859623675490305,5893.600439851471
0.416,0.10174376949598138,5904.297962786418
0.42,-0.43034874151249,5901.041757722115
0.424,-1.0364624996178156,5888.891027474562
0.428,-1.621050166617628,5898.188108128778
0.432,-2.0769876541395242,5897.065790235334
0.436,-2.31384547354655,5897.97439499711
0.44,-2.282059607671536,5908.0672182564895
0.444,-1.9847813767676612,5903.008697656364
0.448,-1.474448014042821,5898.0861339468765
0.452,-0.8372307117632128,5901.1678395387335
0.456,-0.1719818352385103,5901.418508293824
0.46,0.43007900601835075,5895.052033721935
0.464,0.9013701332745884,5892.663925127045
0.468,1.2083235086459498,5896.546030997896
0.472,1.3553515444420399,5899.197748103137
0.476,1.3814647469474488,5895.483541974018
0.48,1.3491816884333403,5902.116646424454
0.484,1.3272574565427606,5902.241209677073
0.488,1.3715830420845012,5895.971695486498
0.492,1.510486791452811,5905.694225833648
0.496,1.7392302154317891,5909.730461727794
0.5,2.024177778753304,5905.318092297038
0.504,2.3133384888467163,5903.342102213654
0.508,2.54915312989739,5896.712585539004
0.512,2.6807831917449527,5902.818890974091
0.516,2.674467976030832,5897.043543531986
0.52,2.520523911506549,5904.867950475536
0.524,2.2351601486416732,5908.69337022351
0.528,1.8561039806964565,5899.569197531629
0.532,1.4331636409768562,5905.04807407655
0.536,1.0168530812515935,5893.033292841343
0.54,0.6487361029540785,5893.869216849867
0.544,0.35588216905429704,5895.178912213064
0.548,0.1495455081649676,5900.900715541879
0.552,0.026552663236976404,5901.668599412662
0.556,-0.02785424636851164,5895.9696996325065
0.56,-0.035653514229848415,5898.592896536191
0.5640000000000001,-0.02001579626064042,5909.602010559871
0.5680000000000001,0.0006515294734180393,5905.951521123361
0.5720000000000001,0.015408455016908802,5896.393539025946
0.5760000000000001,0.01873580473743037,5902.137200714486
0.58,0.0060876079670303075,5898.537160646072
0.584,-0.02854163925230046,5895.3854175227625
0.588,-0.09053133374804688,5909.352757130583
0.592,-0.17953213269651233,5901.387957664365
0.596,-0.28544304378822344,5903.484345776211
0.6,-0.3888710353549549,5890.471339261435
0.604,-0.4663903363792177,5893.370474227593
0.608,-0.49800238603117264,5903.418619619482
0.612,-0.4732712766620613,5900.728394400542
0.616,-0.39369631970318636,5904.872366655511
0.62,-0.27103159506684943,5894.221900179556
0.624,-0.12310611054273571,5907.829323236939
0.628,0.0309661033615749,5895.06374990838
0.632,0.17521410151074432,5894.877232061343
0.636,0.3005821928171577,5913.188697762695
0.64,0.4073432405839309,5902.712091230048
0.644,0.5044935098239606,5903.7254209416
0.648,0.6043998076348344,5901.488300844234
0.652,0.713263480474855,5907.26919430928
0.656,0.8219282907369146,5901.212813030738
0.66,0.9033519269177137,5891.534102186649
0.664,0.9198217695465891,5891.1317125421965
0.668,0.837086681189145,5891.229236355835
0.672,0.6388125824329215,5900.735007432198
0.676,0.33496638326819234,5896.983120726659
0.68,-0.03937736251613527,5907.625806631594
0.684,-0.4341354300667328,5903.651735559214
0.6880000000000001,-0.798548744014898,5900.148425471102
0.6920000000000001,-1.0936055702556167,5891.39180845391
0.6960000000000001,-1.298627729801477,5898.831206189192
0.7000000000000001,-1.4118811979001455,5898.594253989245
0.704,-1.4471838132983497,5889.003074232075
0.708,-1.4283109963575058,5897.07272012814
0.712,-1.382358804800565,5896.36239371568
0.716,-1.3331033953399012,5901.541214072692
0.72,-1.29541797503842,5903.311016806914
0.724,-1.2719491289019464,5894.30527595477
0.728,-1.2533924863180244,5903.145203657135
0.732,-1.222816530684754,5892.2404309481135
0.736,-1.1625481774435296,5905.724143810345
0.74,-1.0609387376676938,5901.960380388336
0.744,-0.916952143840355,5899.142533236268
0.748,-0.7419923953093535,5897.103584028564
0.752,-0.5592408982663786,5893.441379917644
0.756,-0.4006467102657396,5905.933499715328
0.76,-0.30144953411784725,5902.530533074149
0.764,-0.29252106349106366,5901.290455889423
0.768,-0.39170922245696077,5899.292357588307
0.772,-0.5962489381793976,5902.104618917171
0.776,-0.8789176206545672,5912.852079911113
0.78,-1.1904064008196384,5902.677112720322
0.784,-1.4684624008460412,5903.398518180366
0.788,-1.6511016886260332,5901.75498732533
0.792,-1.6890924701735481,5900.927308614893
0.796,-1.554170117744424,5894.838983741013
0.8,-1.2427996984121055,5894.573063385534
0.804,-0.7771678340222445,5898.154291949399
0.808,-0.20404121041908227,5898.820091872877
0.812,0.40964204568885204,5897.0304402338825
0.8160000000000001,0.9855433680895341,5907.277707204445
0.8200000000000001,1.4463517625686209,5891.315627305336
0.8240000000000001,1.7292541866401296,5897.408644840608
0.8280000000000001,1.7969309787019672,5905.378344625245
0.8320000000000001,1.6431128545753717,5903.101939087277
0.836,1.291796333892567,5903.394431270283
0.84,0.7916969063921224,5907.8541109959815
0.844,0.20860371947099174,5900.867599499299
0.848,-0.382581676618802,5904.766256741948
0.852,-0.9058276095297534,5900.681894518272
0.856,-1.2921586957676836,5906.000618494887
0.86,-1.4874667395761696,5904.330299378259
0.864,-1.4585391253965208,5903.872974127536
0.868,-1.1963563440668172,5900.924049834423
0.872,-0.7172303231641931,5901.71033096003
0.876,-0.06294093122355773,5908.435956983766
0.88,0.7004206144335293,5900.679522024263
0.884,1.4869320625151787,5901.028847879545
0.888,2.200355600705981,5903.941543726615
0.892,2.7481459236383885,5906.15889322245
0.896,3.0570771734714084,5906.517837814788
0.9,3.0862991321378455,5902.487270070513
0.904,2.8337820100247337,5903.475340198601
0.908,2.334381576944681,5904.623695618781
0.912,1.6512449359067765,5906.491724103482
0.916,0.8640857021705238,5912.309403744515
0.92,0.0569381259093091,5897.273542238957
0.924,-0.6933047636166991,5904.689167799466
0.928,-1.3261655246915611,5908.6058553120665
0.932,-1.8028790081219346,5906.475540339816
0.936,-2.106790808785132,5891.829246422783
0.94,-2.2397767332303085,5892.588285624212
0.944,-2.216958235995975,5896.380755255722
0.948,-2.0619582851677336,5903.742207886074
0.952,-1.8038498112959638,5901.534937545103
0.956,-1.4755498851794988,5895.986663364225
0.96,-1.1122842211170718,5896.173994507165
0.964,-0.7486444541766414,5904.234781948481
0.968,-0.41421601729570595,5903.846708810578
0.972,-0.1297235475244781,5906.421788548325
0.976,0.09404358154539744,5899.911671547494
0.98,0.25418458180730824,5898.722356119696
0.984,0.3524151288593964,5897.272414831272
0.988,0.3930515352177359,5900.677102031064
0.992,0.3834350101821108,5900.767735928995
0.996,0.3357596309805052,5898.456843035341
1.0,0.2677949482597412,5895.495137489616
1.004,0.200659217170557,5894.812500154543
1.008,0.15403040976421242,5894.80277329322
1.012,0.14102757077291947,5909.49873480521
1.016,0.16512622020108106,5899.784144162453
1.02,0.21991779297970437,5898.965485411378
1.024,0.29072613287857185,5903.601767150096
1.028,0.3569074106224744,5903.8886435499735
1.032,0.3949870800596755,5900.948125984697
1.036,0.3834553539032462,5903.1026944432015
1.04,0.3089014970982991,5892.533943987825
1.044,0.1715708799151396,5900.602122527668
1.048,-0.012058790699318546,5903.236142921901
1.052,-0.21146371997116165,5901.703752984947
1.056,-0.3893852453432691,5896.41546086307
1.06,-0.5123481684211709,5902.594265456698
1.064,-0.5603800154736507,5896.13866068117
1.068,-0.5319422561347185,5886.574408691976
1.072,-0.44246275391974976,5904.771590961093
1.076,-0.3178367572800993,5898.012896086738
1.08,-0.1860383291261401,5900.599640829092
1.084,-0.06993089948724152,5903.561748402049
1.088,0.016790127200653072,5902.537650285639
1.092,0.06970202027846707,5897.821681311284
1.096,0.09013857334489601,5903.825976526447
1.1,0.0801364925174421,5907.517690068545
1.104,0.038965277732879895,5905.146378091345
1.108,-0.03711550246400816,5905.037389316474
1.112,-0.15298034452939324,5907.323718590581
1.116,-0.31276092718770937,5903.210325346375
1.12,-0.518860833034576,5900.216936695371
1.124,-0.7712099939950336,5893.477070344268
1.128,-1.0654661504341676,5900.088220636788
1.132,-1.3895827839721708,5903.721399922441
1.136,-1.7204123184629732,5900.261683723017
1.14,-2.023916752126646,5898.00301087479
1.144,-2.2611770005765863,5898.679840483725
1.148,-2.3981746146323086,5900.247509126091
1.152,-2.4143125198304776,5899.27728735649
1.156,-2.305533127388812,5896.968209118002
1.16,-2.081431842790944,5900.395227895029
1.164,-1.7591694021139166,5904.381174210831
1.168,-1.3585179113501913,5902.90560889051
1.172,-0.9013203577964597,5902.536372128276
1.176,-0.4151631358350023,5900.417655976642
1.18,0.062789650679046,5897.122683592897
1.184,0.4868229456435469,5902.22541767155
1.188,0.8105995387168239,5900.177836614612
1.192,0.9995883125167143,5897.178134632994
1.196,1.0427809042262342,5900.849471330589
1.2,0.9583411338937496,5899.5731828587695
1.204,0.7899452630076949,5895.750509906379
1.208,0.5941953636676517,5899.790554879734
1.212,0.42330398351443044,5904.555562286205
1.216,0.30943488811503883,5898.222487776897
1.22,0.2564613051492299,5901.569237691818
1.224,0.2418248222154026,5909.401571923742
1.228,0.22713643551305415,5901.319842285348
1.232,0.1729721379353654,5898.214249506381
1.236,0.05256576561101197,5903.680697402696
1.24,-0.13910140141998265,5907.396466284682
1.244,-0.382145686015523,5899.959699621518
1.248,-0.6353894954416717,5901.909741059408
1.252,-0.8474249730889638,5905.540305413758
1.256,-0.973243026550684,5904.79529766345
1.26,-0.9904048993738173,5904.297391086387
1.264,-0.907544373238017,5904.298707136281
1.268,-0.7616668554582348,5896.371423341572
1.272,-0.6060286998636574,5904.181597615542
1.276,-0.49344156650901866,5903.95025174972
1.28,-0.4601764685549414,5902.686505897121
1.284,-0.5149356213402732,5903.540442684859
1.288,-0.6362933566934921,5896.36956353379
1.292,-0.7797865252903325,5894.998191729495
1.296,-0.8923736430535254,5902.102046459549
1.3,-0.9290760636968886,5894.777295654025
1.304,-0.8661799390818407,5897.369358741847
1.308,-0.7071478785559872,5898.2208934800765
1.312,-0.47975689739506955,5894.437658349135
1.316,-0.22562564666007412,5902.88056890046
1.32,0.013529908798046886,5892.461568445759
1.324,0.20676073911165951,5891.45080115447
1.328,0.3377074237246361,5891.468964268417
1.332,0.40189061425877914,5897.435485248786
1.336,0.40139762433992526,5893.131270204856
1.34,0.34096393547812726,5896.291267922275
1.344,0.2274247481431542,5902.823392815822
1.348,0.07243490635856947,5898.555008574314
1.352,-0.10313314985335097,5893.177744818648
1.356,-0.26600767335473735,5900.660418477953
1.36,-0.3722255720781289,5907.5918774807005
1.364,-0.37607689886379236,5901.845979066514
1.368,-0.2447723485951712,5904.68376818305
1.372,0.026546908796462196,5905.479236478122
1.376,0.40575972122175863,5909.499218015129
1.38,0.8248810160181433,5900.6351947174
1.384,1.192355911819362,5898.087196937735
1.388,1.4143061802856605,5892.545751069722
1.392,1.41923841356119,5895.150536499865
1.396,1.1784566822520846,5896.502595651728
1.4,0.7152488060191479,5896.207204939136
1.404,0.10023562847125335,5912.892625831308
1.408,-0.5645720751814122,5897.709677754922
1.412,-1.1675943561771986,5908.715455975627
1.416,-1.609897581831701,5900.1159602568505
1.42,-1.8234232947103721,5904.858823181276
1.424,-1.7820274839920027,5904.203509253506
1.428,-1.5037297367136642,5900.71805894254
1.432,-1.044677445099796,5885.888352283421
1.436,-0.48690175735740465,5899.600492823663
1.44,0.07752018147581514,5894.011134269638
1.444,0.5629596049088307,5903.520944298126
1.448,0.9039953281906212,5893.04637633034
1.452,1.0635448018972053,5898.55312587023
1.456,1.0346847628099314,5903.599309659765
1.46,0.8381130264952902,5897.979071955967
1.464,0.5178792389390898,5889.609129854315
1.468,0.13600570666696435,5905.913978777647
1.472,-0.23575827070271013,5896.4624323018015
1.476,-0.5284501367400748,5901.32837454144
1.48,-0.6908876426633803,5910.9983187549005
1.484,-0.7024926151427696,5907.16931911018
1.488,-0.5793251049886757,5897.423839712904
1.492,-0.37104621741709287,5900.973160022138
1.496,-0.14919239180266294,5896.308188209895
1.5,0.01072298866865466,5894.999406348514
1.504,0.04904511824896565,5911.625331179355
1.508,-0.061482375246728026,5892.18742972826
1.512,-0.3072345532249895,5905.430701725876
1.516,-0.636021008376651,5895.50527468377
1.52,-0.9701352478943729,5912.075220211271
1.524,-1.2270344684958319,5904.924752693921
1.528,-1.3416347081649658,5901.711444097256
1.532,-1.2829292794742329,5912.182420298749
1.536,-1.059863382530408,5902.805393154535
1.54,-0.7163032766335837,5894.366530526032
1.544,-0.3188956117895305,5901.508793967433
1.548,0.05787257133459832,5896.011479352926
1.552,0.3468277262709762,5905.343588507633
1.556,0.5019708220345436,5902.720250623225
1.56,0.5088131375536246,5910.092427510454
1.564,0.3878623924544841,5894.241649464841
1.568,0.18869956621593093,5906.211937404302
1.572,-0.024681673657797932,5890.5835967254125
1.576,-0.19273395713431324,5900.162565885593
1.58,-0.27697180791444176,5905.62416918815
1.584,-0.26897661229971054,5890.005654060744
1.588,-0.18947444911180558,5906.974071990822
1.592,-0.07850401517250138,5901.174984818869
1.596,0.019968814275157377,5899.189719776374
1.6,0.07463884127754213,5905.96940702704
1.604,0.07995734855712537,5894.785127852399
1.608,0.060942318203829164,5898.094538218186
1.612,0.06635113402680327,5910.766608735841
1.616,0.15103835177672864,5900.439773326756
1.62,0.35348460698059453,5905.8188822946495
1.624,0.6771273246239136,5900.33657058216
1.628,1.0827256599388135,5895.678862858682
1.632,1.495012585893529,5895.933130042108
1.636,1.82232796501782,5901.191564879468
1.64,1.9836709261327872,5904.921526758267
1.644,1.9345988392283162,5900.737945219849
1.648,1.6832491761757744,5899.934216495003
1.652,1.2909304941338045,5900.562129282144
1.656,0.8566971598991487,5902.564859571194
1.66,0.4902171427846177,5898.505691026175
1.664,0.2809105101791694,5901.273416019225
1.668,0.27280145107339954,5903.860529903858
1.672,0.4529616546143062,5904.283081239764
1.676,0.7571655159781471,5906.892321460065
1.68,1.091002398196796,5901.140907468858
1.684,1.3598117035595452,5906.111741124331
1.688,1.4977356569082685,5902.093051302437
1.692,1.486248845392252,5897.895641199407
1.696,1.3561499058967135,5905.376175678069
1.7,1.1728693630132179,5902.720955878945
1.704,1.0107797185596155,5901.190859395482
1.708,0.9258180533520384,5894.336329671807
1.712,0.9357832982209195,5899.067496840828
1.716,1.0143469634298343,5897.12538527327
1.72,1.0998084020406977,5897.22371433646
1.724,1.11500043173193,5898.497981608237
1.728,0.9918906762721597,5897.886941777952
1.732,0.6935697255658219,5906.28434570635
1.736,0.2271215471358356,5902.813109896858
1.74,-0.3564848288342705,5896.942907563698
1.744,-0.9748007018139407,5895.449631362332
1.748,-1.5334604506562304,5900.895390207121
1.752,-1.94639512946904,5903.089632514062
1.756,-2.1523551677374098,5895.5113049734855
1.76,-2.126210543679095,5906.67352482527
1.764,-1.8840950672829473,5902.682398586135
1.768,-1.480330619741332,5899.346834141793
1.772,-0.9944547642078316,5898.560645990605
1.776,-0.5104071923337745,5898.9602558303
1.78,-0.09453975767412315,5905.150365628407
1.784,0.2195667080905419,5898.458031876304
1.788,0.4345493847873096,5900.183841632298
1.792,0.5809561079935074,5905.634811981237
1.796,0.701265562801344,5893.702560388453
1.8,0.8324851890887784,5907.935918868142
1.804,0.9932701658765244,5900.272332504328
1.808,1.1788437817062047,5904.434744363111
1.812,1.363662079270463,5904.183357434607
1.816,1.5097010583392814,5899.673289214206
1.82,1.5777069034829256,5911.66431782662
1.824,1.5388085533904776,5904.3746900032165
