时间(s),电压(V),幅值(高频80K)
0.0,-3.628471310148732,5905.3159060452135
0.004,-2.2755170562750893,5898.28177553672
0.008,-1.0744440189152678,5896.080319782331
0.012,-0.14321328311116513,5888.825112777016
0.016,0.4547038568117349,5900.628224580794
0.02,0.7165391536533269,5899.217545719225
0.024,0.6925112764428462,5899.119546271487
0.028,0.46886931468073817,5901.985172970845
0.032,0.14615671995093638,5896.010919302383
0.036,-0.18288791233046164,5903.264626172064
0.04,-0.4507948400783819,5892.38504681592
0.044,-0.6239116710401724,5900.308896511277
0.048,-0.7008894219003373,5893.291351343535
0.052,-0.7039123304046143,5900.016786311943
0.056,-0.6675481550851244,5896.388229999835
0.06,-0.6292271690611282,5898.883272743961
0.064,-0.6229288709232592,5908.500049820953
0.068,-0.6757394221994466,5898.252504286221
0.072,-0.8060433541789686,5909.488133957876
0.076,-1.021465696051037,5900.853560046068
0.08,-1.31467786940958,5898.400433571162
0.084,-1.6574394019305512,5896.086430185712
0.088,-1.997217510680237,5910.345118393527
0.092,-2.2623340828667993,5898.392684722833
0.096,-2.377752631805755,5903.619367142416
0.1,-2.286909194641032,5903.186010055033
0.104,-1.9710275706604223,5897.170572626349
0.108,-1.458534875174401,5895.030606655458
0.112,-0.8214600910038165,5898.622731806446
0.116,-0.1601877476048816,5894.987931666863
0.12,0.418804689850617,5900.453955682914
0.124,0.8260842849358858,5898.549218828088
0.128,1.0073589065259299,5906.787376301389
0.132,0.9521945229051025,5905.399546725084
0.136,0.6917577360644758,5900.7641601901405
0.14,0.28755238260118315,5894.7252834559
0.144,-0.1840412919037944,5896.856271106047
0.148,-0.6464235760800779,5890.21104353064
0.152,-1.0340382382845905,5905.496495829008
0.156,-1.3002332415765323,5900.344484167515
0.16,-1.4221913740631378,5900.240567579503
0.164,-1.4022205224037476,5900.512171175507
0.168,-1.264222805931302,5887.770509857903
0.172,-1.0455741480333984,5901.950769265086
0.176,-0.786753943765998,5898.572779209256
0.18,-0.5222301911517698,5900.936522857244
0.184,-0.27570952076071026,5904.440534056858
0.188,-0.060958127800231375,5903.1833583406415
0.192,0.11341218418377237,5899.723113389592
0.196,0.23908379262220375,5903.866440768336
0.2,0.3071114169462054,5900.9443442118045
0.204,0.31239417294378663,5908.526267859824
0.208,0.26116709178495146,5900.543369516324
0.212,0.1765062279955626,5907.452420306759
0.216,0.09705327871828909,5905.91031719795
0.22,0.06721810439696149,5907.392588886523
0.224,0.12156962751351828,5902.760032949379
0.228,0.26958610372404457,5902.352584764498
0.232,0.48745625851424695,5899.163448841812
0.236,0.7209786545972091,5901.222656501547
0.24,0.8992058112819393,5894.903886791787
0.244,0.9545402016198725,5891.200717052272
0.248,0.8431212482135829,5902.215825725408
0.252,0.5594638023207196,5894.782572931694
0.256,0.1406929639769501,5903.383202811455
0.26,-0.34156819347762757,5899.242943383626
0.264,-0.7995808515924507,5900.370677652671
0.268,-1.1522709576255226,5900.323664400444
0.272,-1.345033446911508,5907.333872248498
0.276,-1.360545127537501,5900.759228758646
0.28,-1.2179968719255423,5907.641161001037
0.284,-0.9625690385690879,5902.782570631191
0.288,-0.6505627499502816,5899.724508746964
0.292,-0.33621266062803323,5893.127617814554
0.296,-0.06380565126321083,5893.680753849852
0.3,0.13450944395923692,5896.790625065709
0.304,0.23733260596192235,5897.995755535007
0.308,0.23254931981812874,5900.564661940632
0.312,0.11881530277397828,5904.852521479165
0.316,-0.08992396787472284,5891.357300768903
0.32,-0.3604624326742613,5895.402319871567
0.324,-0.6418006248158763,5915.432458522533
0.328,-0.8746232819030052,5898.227966369701
0.332,-1.0069724376725262,5897.140901400086
0.336,-1.0103809509681778,5900.698483453736
0.34,-0.889317917737345,5900.101327783735
0.344,-0.6790257094472156,5895.5450541795735
0.348,-0.43215056367644067,5902.158804599352
0.352,-0.20010416387864677,5904.169543087471
0.356,-0.01718473741897959,5904.951906561463
0.36,0.10697936048208236,5905.319886374652
0.364,0.18560091706645745,5906.524986999379
0.368,0.24580404533104222,5909.2842505257095
0.372,0.31614858170415505,5897.1766869991925
0.376,0.41422815915012895,5897.198707095293
0.38,0.5376680602800399,5903.472175482211
0.384,0.6612651208056416,5902.114781795143
0.388,0.7416786521264475,5896.341815038457
0.392,0.7289236767600278,5901.324328322785
0.396,0.5817319231682024,5893.888306921685
0.4,0.2825191420464469,5897.981924540568
0.404,-0.152526975520584,5900.90577522306
0.408,-0.6718849070531127,5906.407375689206
0.412,-1.1971952920206455,5905.520821794084
0.416,-1.639931301799353,5909.195806378536
0.42,-1.9210052975097385,5905.999505461045
0.424,-1.987282380374076,5902.99138149298
0.428,-1.8214906254728376,5898.078447364892
0.432,-1.4451467614868563,5897.847036862472
0.436,-0.914964803632353,5901.292810583384
0.44,-0.31259431964597684,5902.154539172741
0.444,0.2717089590573686,5896.435427994757
0.448,0.7582769649824457,5902.7452332796265
0.452,1.0947194156968318,5905.687169801207
0.456,1.2648272025421725,5901.336192570737
0.46,1.2866168857478197,5899.626632578256
0.464,1.1999229759808692,5888.711769807951
0.468,1.0478627922243071,5900.646278721745
0.472,0.859495776455265,5897.687179344236
0.476,0.6411724562807679,5899.623884113945
0.48,0.3804176948701609,5906.587999030703
0.484,0.06014483586596224,5909.084131218084
0.488,-0.3241121437009447,5898.738304757047
0.492,-0.7526764902095361,5899.219203176624
0.496,-1.1818274768848462,5898.092294259712
0.5,-1.555703399978026,5905.31084908052
0.504,-1.8242590467266906,5911.847703015905
0.508,-1.9587762346108624,5905.297980962226
0.512,-1.9585266813921425,5897.722312404064
0.516,-1.8472954465205638,5898.03246444299
0.52,-1.6628830373947778,5893.9081080544765
0.524,-1.444243435865789,5903.705427745675
0.528,-1.2203209643001696,5896.381705448207
0.532,-1.0036577590323714,5896.039752295442
0.536,-0.7907763450703821,5898.801766202435
0.54,-0.5694842207900387,5897.546927836716
0.544,-0.3306938852286611,5896.899588007923
0.548,-0.08009312288512364,5901.09102168561
0.552,0.1558708620558539,5897.180406957217
0.556,0.3335592484968809,5891.909839663133
0.56,0.40475942979200163,5901.925843037098
0.5640000000000001,0.33324339003479464,5893.6070983436375
0.5680000000000001,0.108613329575523,5903.28526579893
0.5720000000000001,-0.24718138525284591,5902.303767251732
0.5760000000000001,-0.6818600588332515,5899.64432549116
0.58,-1.121920640368542,5892.774282914937
0.584,-1.4864077753469076,5905.080406849002
0.588,-1.702990778957143,5897.810163412075
0.592,-1.7235718122975434,5898.013971042192
0.596,-1.5354689485265063,5900.6813365648095
0.6,-1.164455438006691,5896.373971594678
0.604,-0.6687329279393802,5906.25856366576
0.608,-0.1261426033524185,5899.601756235556
0.612,0.3819009557477315,5906.740862007816
0.616,0.7867656180725051,5903.437961974766
0.62,1.0464070906502028,5891.722529952972
0.624,1.1531114275205065,5902.749650405551
0.628,1.1319530719943929,5897.2065365036815
0.632,1.0294776297517105,5897.934554646263
0.636,0.8962842573171417,5900.059386814007
0.64,0.7702111145700935,5904.562220608584
0.644,0.6667998559675418,5909.426911011444
0.648,0.580333247320194,5893.872928008928
0.652,0.49347068176776954,5898.665681067296
0.656,0.38945768377012535,5901.947282803138
0.66,0.26077556196253565,5908.00898612285
0.664,0.11135373028889356,5901.366031555414
0.668,-0.046997831496649836,5898.19557608078
0.672,-0.20133373206286376,5902.240776889471
0.676,-0.34428153105034776,5896.91235848047
0.68,-0.4777949758388273,5909.838533151144
0.684,-0.612210933737659,5896.035911509855
0.6880000000000001,-0.7606575612345561,5912.707324384651
0.6920000000000001,-0.930700888533783,5893.658677553107
0.6960000000000001,-1.1162393332417628,5903.286818402613
0.7000000000000001,-1.2926439407440846,5900.827235926486
0.704,-1.4176030668981032,5896.0897637549215
0.708,-1.4394064681655427,5901.365634681014
0.712,-1.312404404235062,5899.639526227064
0.716,-1.015766600139396,5902.73375391439
0.72,-0.5685645251729115,5903.454145833239
0.724,-0.03390712210002365,5900.586911315418
0.728,0.49204682282648515,5901.051002773723
0.732,0.9045589254753134,5904.774834772378
0.736,1.120339757552168,5898.7657782228425
0.74,1.1020895983661207,5900.368164378009
0.744,0.8685469237843679,5904.365829867473
0.748,0.4868865997373598,5900.317062814839
0.752,0.05097311990003383,5898.517306416058
0.756,-0.3461939667407483,5885.702526386855
0.76,-0.6362152404164658,5899.3121375385535
0.764,-0.7881409942744609,5905.45260863528
0.768,-0.8082815258666869,5897.023665320293
0.772,-0.7296280843304969,5901.240614704316
0.776,-0.5964620990649677,5904.889002524136
0.78,-0.45023587804627907,5892.258920831335
0.784,-0.3210360700928175,5898.346918893667
0.788,-0.22572336696043654,5895.016514887066
0.792,-0.1708292694339556,5895.51201096046
0.796,-0.1569574842025993,5908.994311697243
0.8,-0.1819564998483606,5895.364609824243
0.804,-0.24171532752656233,5896.148383608882
0.808,-0.3291739798366614,5898.998767813151
0.812,-0.43310396096802944,5895.651398174969
0.8160000000000001,-0.5379452979404142,5896.9803766902205
0.8200000000000001,-0.6251982570272744,5898.840603170576
0.8240000000000001,-0.6764513015628397,5901.320868790938
0.8280000000000001,-0.6778517119693916,5903.666361337579
0.8320000000000001,-0.6251566547732204,5900.096365486064
0.836,-0.5277510171903785,5900.426382291946
0.84,-0.40973387819953044,5902.625277591693
0.844,-0.30652717123355666,5895.105234984059
0.848,-0.2566912818767448,5901.979100548509
0.852,-0.29072123981103853,5899.283291747111
0.856,-0.42030675090080244,5902.785849957399
0.86,-0.6315171150880046,5899.862654086151
0.864,-0.8840717334890796,5897.594715172321
0.868,-1.1175200323265166,5894.426917449927
0.872,-1.263759009530392,5901.212814884975
0.876,-1.2635226026907815,5902.698700704396
0.88,-1.0829852468267371,5901.787336578518
0.884,-0.7260824668645903,5906.454692116709
0.888,-0.23862077463789008,5904.681723019568
0.892,0.29808881263077064,5899.9416930381785
0.896,0.7836251538352428,5897.561102309296
0.9,1.1215350655599472,5902.477523749012
0.904,1.2434613051229624,5903.80550380374
0.908,1.1275661115920275,5900.64006861853
0.912,0.8053145721765208,5902.463553979705
0.916,0.3538047206489248,5898.532526766043
0.92,-0.12453038418324557,5895.413521603407
0.924,-0.5284975214711628,5910.021915325952
0.928,-0.7821777523740758,5901.056628727302
0.932,-0.8488271084409538,5900.059027566512
0.936,-0.7317677008819196,5902.846337647027
0.94,-0.4648803280306441,5895.040460475542
0.944,-0.09844732251774117,5893.59247948903
0.948,0.3139292462114637,5902.836968142579
0.952,0.7236555375210261,5901.579425505396
0.956,1.0900113939794633,5911.647334253864
0.96,1.3796492548847583,5904.846861813257
0.964,1.565848972858256,5907.001417117558
0.968,1.629430759321725,5898.4859312350845
0.972,1.5613555928807858,5902.838055092641
0.976,1.3660672543296892,5891.751575504925
0.98,1.064474561560021,5899.959360329327
0.984,0.6953211973263865,5909.148551684724
0.988,0.3131913779893811,5899.220124353544
0.992,-0.01883435525755762,5892.686788562273
0.996,-0.24250536197094752,5906.043807203567
1.0,-0.3209203340972377,5904.1121662826345
1.004,-0.25179159267791984,5900.319637300715
1.008,-0.07033500587880487,5903.23793257228
1.012,0.1613419112496127,5904.412532630531
1.016,0.3748103001519425,5901.133694726857
1.02,0.5173279376091732,5901.774416853238
1.024,0.566483940248444,5909.648499520568
1.028,0.5325541104609163,5903.41360552188
1.032,0.4490578497081023,5896.305048754284
1.036,0.35664441777196954,5896.852670147506
1.04,0.28773563216941433,5903.192274214237
1.044,0.2582933352439031,5903.784321746017
1.048,0.2689696260900125,5903.858273183005
1.052,0.31296964049995823,5901.328389357843
1.056,0.3850468356300821,5900.686066220688
1.06,0.4864229703693622,5906.565637899681
1.064,0.6232682157596678,5908.833171451895
1.068,0.8000337602591638,5903.264487615165
1.072,1.011704007059033,5904.867100759389
1.076,1.2394425196384082,5903.528959657858
1.08,1.4519505823953005,5907.163154881695
1.084,1.6117774173482695,5897.302519766562
1.088,1.6837009150227826,5902.53648548553
1.092,1.6419008580367145,5897.68276813888
1.096,1.473964065280719,5899.657390514811
1.1,1.1820457047387145,5890.656951552324
1.104,0.7830309211817078,5897.472586894899
1.108,0.308917655126803,5891.95278216825
1.112,-0.19356058731295772,5898.560186215944
1.116,-0.6667142094949536,5903.837285730949
1.12,-1.0509877183807133,5906.105165804115
1.124,-1.29827837547521,5904.685693135029
1.128,-1.3853481266706742,5900.648750303368
1.132,-1.3221307252347023,5901.16067887302
1.136,-1.1509850500914207,5903.752781022417
1.14,-0.9360157459087587,5914.129758158095
1.144,-0.7455345459258993,5902.974298053304
1.148,-0.6335233754075725,5902.623802589142
1.152,-0.6259832109862524,5904.418126351628
1.156,-0.7158986554420322,5907.684685253108
1.16,-0.8675553957961277,5898.435052160889
1.164,-1.0277825773381444,5905.782139097195
1.168,-1.1394935593263398,5916.012003794373
1.172,-1.1533883786488255,5906.83682824665
1.176,-1.036563490339261,5910.588926484882
1.18,-0.779027454345436,5894.210455162411
1.184,-0.3984915361415332,5901.658041249665
1.188,0.058542085104295705,5899.71560295413
1.192,0.5225662515950721,5904.242737433556
1.196,0.9152127686695489,5903.549203009442
1.2,1.1691164844263713,5895.177014184822
1.204,1.2467519599037542,5907.787972733078
1.208,1.1506023939860153,5894.945890615368
1.212,0.9207621031005724,5902.560327818672
1.216,0.6221745120010989,5907.991460690547
1.22,0.3277094630721584,5903.251786015713
1.224,0.10273481684167884,5901.1146773935225
1.228,-0.006486759680810295,5902.850223409948
1.232,0.019268678960161333,5909.171304010224
1.236,0.16772639425841798,5900.360342942866
1.24,0.39523157012841703,5904.284012858127
1.244,0.6334529498977122,5906.773587801969
1.248,0.8039219308348146,5903.165604352832
1.252,0.8386243161466768,5892.767679326238
1.256,0.7008528366664234,5895.304368225425
1.26,0.3987279729007771,5900.628626832479
1.264,-0.014018249069025311,5905.301616969821
1.268,-0.45082006059970126,5903.048731038695
1.272,-0.8150443961709131,5907.060377938207
1.276,-1.0259558669040953,5907.488437973386
1.28,-1.0394327446376004,5899.168527557102
1.284,-0.8562899437142171,5891.504457123296
1.288,-0.5161326651902542,5895.641996346456
1.292,-0.08106790538492915,5901.231924979064
1.296,0.3829205197121093,5900.78489311773
1.3,0.8203289081357239,5907.504323187434
1.304,1.1933779069019805,5905.930590362669
1.308,1.4826054134310673,5896.879706262015
1.312,1.6830293436835622,5901.2902638672
1.316,1.7986646926523882,5903.572815383002
1.32,1.8376967255341894,5903.914431403548
1.324,1.8092821267770431,5898.311774240891
1.328,1.7218881265610193,5899.749320377799
1.332,1.5830775400714199,5905.309694284624
1.336,1.400748540992128,5897.131183206991
1.34,1.1850054685124602,5905.5814305170925
1.344,0.9490791094238397,5896.640849138883
1.348,0.7085184766181429,5904.600192484444
1.352,0.4795490531470967,5893.789500874308
1.356,0.27801965527993244,5899.04371273346
1.36,0.11918463561073582,5895.721299249488
1.364,0.01713061350417537,5901.40945403316
1.368,-0.017398544743633726,5905.16027469
1.372,0.019499555050210542,5898.011415278123
1.376,0.122026809643304,5904.425379356731
1.38,0.27462926157675704,5904.265560261368
1.384,0.4554551821435423,5910.139774661274
1.388,0.6421684197805669,5905.796947902654
1.392,0.8178561550503421,5896.443564800014
1.396,0.9749006992973915,5896.820032671698
1.4,1.1157686338504151,5907.66629626389
1.404,1.2505830421583515,5890.44840540408
1.408,1.3914542092828368,5896.027011157821
1.412,1.544075336377172,5900.7004765777165
1.416,1.6991410540144392,5900.741022348527
1.42,1.8281445757705377,5898.280518099542
1.424,1.8874631900127234,5897.374110463371
1.428,1.831125411322929,5898.545213336653
1.432,1.628510696294405,5907.778000745009
1.436,1.2806235635439074,5890.14592973808
1.44,0.8282375967014345,5901.994944227775
1.444,0.34719326318160165,5898.37076564715
1.448,-0.06964147619524103,5907.658731830081
1.452,-0.3388660951231219,5899.960594217619
1.456,-0.41244325086464284,5896.112420200529
1.46,-0.29325402787888655,5897.382942353865
1.464,-0.03402428434431047,5905.604268796669
1.468,0.2804715082516437,5907.632869856916
1.472,0.5616770848516864,5909.918998357674
1.476,0.7457403159579333,5907.65949018953
1.48,0.8118766179753403,5905.583902364008
1.484,0.784318227398769,5901.891256170949
1.488,0.7182403860855965,5900.517564940393
1.492,0.6762653371750457,5907.216282586922
1.496,0.7048786486121542,5897.0510565901
1.5,0.8186324645219643,5901.075066973691
1.504,0.9960254866735917,5904.478120863616
1.508,1.186648493585199,5911.156449379923
1.512,1.3260618582366046,5907.2502449002295
1.516,1.3535912556440868,5893.891359926449
1.52,1.2285878917598652,5901.096928026835
1.524,0.9418819402675522,5897.918776455895
1.528,0.5204820049960861,5905.889146684873
1.532,0.02476480420380912,5904.463494323803
1.536,-0.46173576315505416,5889.003793509791
1.54,-0.8491745894676133,5902.840152459582
1.544,-1.0627628304276473,5902.947425249729
1.548,-1.0638244178357472,5900.65062314672
1.552,-0.8631311622329616,5904.8096607764055
1.556,-0.5199263024585564,5894.092322428724
1.56,-0.12540835046758345,5903.161075930778
1.564,0.22381581469904863,5895.053300741233
1.568,0.4529034755476191,5891.90857421161
1.572,0.5275350024706775,5901.818762474762
1.576,0.458900568226484,5905.130229402304
1.58,0.2948782813720133,5900.155848430219
1.584,0.10209377790958282,5906.212865123982
1.588,-0.05435759198949028,5900.572463451901
1.592,-0.1275746710290287,5908.51039800952
1.596,-0.09826118719845146,5907.011442821525
1.6,0.024463299764238423,5894.180586759799
1.604,0.21017318654834566,5896.2856360938
1.608,0.41922025621831566,5904.447490866901
1.612,0.6149727116367131,5907.465262029649
1.616,0.7717686782294126,5897.26366463372
1.62,0.8769759149812797,5909.311052255856
1.624,0.9285859440359817,5902.428334761423
1.628,0.9310999312860986,5899.5975622982
1.632,0.8919522008355458,5904.320573328875
1.636,0.8192161325356943,5898.00278239268
1.64,0.7202221695892708,5897.895748022335
1.644,0.6008982492414187,5906.830468264848
1.648,0.4662779958359787,5903.063539582756
1.652,0.32216617500714,5891.629660685837
1.656,0.17654894148594583,5897.954015054202
1.66,0.038918350372203044,5903.061479999649
1.664,-0.08269933875380829,5902.680227154287
1.668,-0.18503131288732486,5898.819027031109
1.672,-0.27056684909798445,5900.302630406416
1.676,-0.3449650709588911,5906.67562107998
1.68,-0.4114545753383501,5901.411465272384
1.684,-0.4644883128678101,5912.3153792141975
1.688,-0.4860999839734399,5903.772229798051
1.692,-0.4482697239392632,5905.5793149263945
1.696,-0.32223709160526187,5902.206893063019
1.7,-0.09200322726031566,5901.606838018304
1.704,0.23352574060303052,5899.26464488707
1.708,0.6156216664118032,5902.955286727355
1.712,0.991378794424785,5904.09553406076
1.716,1.288765432877494,5896.802340993376
1.72,1.4458186105472575,5905.172103752735
1.724,1.427362563523105,5903.0909871378935
1.728,1.2345058914092049,5900.058902900132
1.732,0.9054825194069738,5908.682450321639
1.736,0.5087020997744004,5903.275494486916
1.74,0.12948828980726065,5899.820889620596
1.744,-0.14763080129028594,5904.172828482327
1.748,-0.257926467053309,5906.4476425782805
1.752,-0.1721637071405657,5911.06628098938
1.756,0.0958027444367656,5906.400397250816
1.76,0.49243499083140424,5901.55455385323
1.764,0.9382054615959424,5908.445231379641
1.768,1.347250913440061,5902.211722939844
1.772,1.647025794324222,5907.617008712998
1.776,1.79268811340657,5905.787712617159
1.78,1.773032366715618,5906.8860306034885
1.784,1.6074150689479636,5903.594066896567
1.788,1.335598918246695,5900.534537808809
1.792,1.004132635493181,5909.207730106818
1.796,0.6536980196682854,5899.134418618636
1.8,0.3115922104361951,5896.885196912822
1.804,-0.00854850193531751,5899.312532157014
1.808,-0.30102157407990654,5892.9372892934125
1.812,-0.5600366925537319,5899.319329567982
1.816,-0.7735946425829786,5911.801236219671
1.82,-0.9225881419995279,5906.430814714735
1.824,-0.9862309428884252,5902.881079668846
