时间(s),电压(V),幅值(高频80K)
0.0,3.0342248334260233,5897.074579942891
0.004,2.095137841121874,5898.08545145884
0.008,1.2261819442891602,5897.474401359787
0.012,0.4951301565781154,5903.684171834002
0.016,-0.04840491851281269,5900.241048760002
0.02,-0.37861750218716783,5905.924735575819
0.024,-0.49419367696625377,5891.48302360748
0.028,-0.41529718416696315,5908.896140165817
0.032,-0.17975485094024238,5898.448011250191
0.036,0.16009568440729613,5903.57155612188
0.04,0.5412040924501977,5898.083427052861
0.044,0.8962417940502119,5888.8086506347
0.048,1.1625961721065714,5899.302199085442
0.052,1.2915929779542075,5906.701478214035
0.056,1.255592553992915,5895.62757573761
0.06,1.0522558020425183,5900.468635560673
0.064,0.7061034318315033,5905.684644032869
0.068,0.2666316953519203,5901.420714289327
0.072,-0.19853913554826244,5897.936389551236
0.076,-0.615890316378784,5908.041654674401
0.08,-0.9212380776330126,5904.551907094426
0.084,-1.0733085299167946,5895.701338839448
0.088,-1.0611979691519546,5905.764840951836
0.092,-0.9037938586057945,5893.745480561554
0.096,-0.6420774234412921,5900.599629945419
0.1,-0.3270485712452288,5901.061057895514
0.104,-0.006915769918773778,5892.91853543319
0.108,0.28266674612216486,5890.781162216345
0.112,0.5225776286776594,5906.377188195556
0.116,0.707977745917769,5898.832264576976
0.12,0.8419506315130264,5902.486268683724
0.124,0.928587783991815,5897.441253201581
0.128,0.968646542228067,5901.423758651477
0.132,0.9591628822077846,5897.071275432317
0.136,0.896636380940969,5897.774844988729
0.14,0.7822181814802419,5900.703409802973
0.144,0.6262252078466856,5902.276101214737
0.148,0.4487005364782461,5892.74977705149
0.152,0.2745654025867638,5900.870057223063
0.156,0.12606442481212837,5903.050282351155
0.16,0.017838995960505994,5897.077582287995
0.164,-0.042191450714096565,5901.315123521659
0.168,-0.04811804655139497,5903.23749327327
0.172,0.007349537102252687,5900.470922658583
0.176,0.13132026156319895,5906.903489351331
0.18,0.32487443525962684,5892.150867677303
0.184,0.5767471678379144,5901.652686833303
0.188,0.8601844852908853,5898.208669177059
0.192,1.1344200654875323,5901.864426682111
0.196,1.3506824694538555,5909.494857060145
0.2,1.4622887527830921,5908.798961045207
0.204,1.4374310912521358,5895.753238456175
0.208,1.27098882769181,5904.599911274558
0.212,0.9900631727136123,5895.633909311939
0.216,0.6492392017572961,5899.229555324385
0.22,0.31578966855620066,5903.488704194281
0.224,0.04988635986354119,5902.246171605913
0.228,-0.11242354304890552,5896.446781009647
0.232,-0.16688679905100237,5900.186869826517
0.236,-0.137162297731181,5896.261960622651
0.24,-0.06219163956685046,5901.510086008187
0.244,0.019395782089740746,5901.475683198492
0.248,0.08207704121441939,5900.58889988543
0.252,0.11979351491078197,5902.605101512041
0.256,0.14499781311873627,5891.545596538254
0.26,0.18194153742026117,5891.58366003287
0.264,0.2571551424304393,5896.071728854306
0.268,0.3901175487815286,5901.899066651717
0.272,0.5864592637013794,5887.598184328733
0.276,0.835378468717629,5904.808853623265
0.28,1.1119838474473145,5905.148595479975
0.284,1.3836774182266043,5899.600525445261
0.288,1.6180168613891681,5905.267669417576
0.292,1.7888368217655486,5903.42789295224
0.296,1.878589037829507,5903.8128689062505
0.3,1.8774311237734067,5899.563816812281
0.304,1.781558783739416,5901.891516183171
0.308,1.59292958864748,5891.050692286476
0.312,1.3203966157336327,5899.013171529068
0.316,0.9805444037730889,5901.374572983268
0.32,0.5968363877360707,5894.068262761528
0.324,0.19751211276922823,5894.646032798699
0.328,-0.18629709186031795,5897.702490337343
0.332,-0.5219090046039303,5903.545668132877
0.336,-0.7772756072757706,5901.165761758191
0.34,-0.9252570114012033,5902.443921139952
0.344,-0.9493367501164122,5900.681191216576
0.348,-0.8484106305928206,5897.245188136514
0.352,-0.6379279447910585,5905.243774772568
0.356,-0.3459900572399409,5900.438986616056
0.36,-0.005676406689770385,5899.798610261377
0.364,0.3528263192634678,5903.435338234302
0.368,0.7066887909605047,5899.553867216374
0.372,1.040034507877981,5901.582973804911
0.376,1.3396857356650247,5887.498636422385
0.38,1.5896837706583125,5903.133003460832
0.384,1.7678995671944109,5895.352688838869
0.388,1.847502863640199,5892.621175808993
0.392,1.8036487470620775,5899.216777158785
0.396,1.6225194318045884,5900.48640714198
0.4,1.3083896305661051,5900.406585632365
0.404,0.8858552657758173,5896.118993746843
0.408,0.3972437109112553,5894.934815856128
0.412,-0.10295453186481118,5892.618045624478
0.416,-0.554935029698858,5898.587839395972
0.42,-0.9009801551046213,5899.711194646527
0.424,-1.0932010743911178,5899.712753100699
0.428,-1.1013863566675608,5903.675687300466
0.432,-0.920269513979479,5904.556719178216
0.436,-0.5744719956805534,5909.705860958811
0.44,-0.11836448533671928,5896.748939908425
0.444,0.37140275329097144,5894.775699190277
0.448,0.8104116077153474,5903.348762712482
0.452,1.1246335033567092,5896.0416908484
0.456,1.267138356086449,5904.333895950304
0.46,1.2285857687435222,5900.982774546937
0.464,1.038550853709878,5893.551094010664
0.468,0.7574413224242033,5900.920005872026
0.472,0.4614888587962537,5896.79492329313
0.476,0.22494569946199852,5895.543222408197
0.48,0.10380762194254206,5897.550569709906
0.484,0.12461644225173978,5900.94747855033
0.488,0.2806578926764078,5903.502167643958
0.492,0.5361592073520163,5898.626825351475
0.496,0.836899176657262,5901.545474946602
0.5,1.1236693479681406,5908.255271699348
0.504,1.3442952644303479,5901.618790050802
0.508,1.460773543447259,5904.894827308841
0.512,1.4502124972894166,5898.76138300376
0.516,1.3013224415318523,5894.826409689648
0.52,1.0110792856586408,5904.979084897536
0.524,0.5865308683934449,5896.809171573988
0.528,0.052916254046364554,5908.882612381726
0.532,-0.5369136785528607,5896.747813436608
0.536,-1.1006808891823472,5888.8036432823465
0.54,-1.539197859638358,5902.037356947906
0.544,-1.7623216598758356,5894.782733046777
0.548,-1.719212451656983,5900.060760790234
0.552,-1.4200662488829623,5889.5186800071415
0.556,-0.9391280828491234,5898.5045548091175
0.56,-0.3960514330667163,5903.090651740246
0.5640000000000001,0.07868960010557774,5887.687747207522
0.5680000000000001,0.38204642013158,5902.13501884804
0.5720000000000001,0.466357814134001,5895.035609167902
0.5760000000000001,0.3474843292969621,5901.811415525774
0.58,0.09229104931463802,5903.114811219169
0.584,-0.20679652004603485,5894.043658894113
0.588,-0.45887068733838904,5909.207796460221
0.592,-0.5946345356585044,5897.319649337504
0.596,-0.5765356026484086,5892.743853440352
0.6,-0.400499456647635,5902.848446204217
0.604,-0.09267048994836673,5900.496444704852
0.608,0.29606777501817927,5900.363403737969
0.612,0.6973301512969518,5908.109598122756
0.616,1.0356868882452022,5890.372050007478
0.62,1.242988717974769,5914.304695148479
0.624,1.2739019089313925,5901.772347345981
0.628,1.1173342812243583,5895.15891646791
0.632,0.7992361322430623,5902.2457149681295
0.636,0.37618952653807614,5904.629753269311
0.64,-0.07697004456091097,5897.845987466178
0.644,-0.4814513902863443,5894.35375075977
0.648,-0.7683261871019754,5908.542290868376
0.652,-0.8905076815880552,5895.753305270387
0.656,-0.8308484369292517,5903.34813736673
0.66,-0.6040885863992399,5900.640776837514
0.664,-0.25226267574926475,5906.132220566408
0.668,0.16424854314695092,5900.838397143534
0.672,0.5767712991905343,5899.260801986091
0.676,0.9172075003488518,5899.924372572693
0.68,1.125423033068958,5898.736442674321
0.684,1.1563858875345643,5900.066100632937
0.6880000000000001,0.9881330275716979,5897.678336810742
0.6920000000000001,0.6296911239613938,5895.014828309648
0.6960000000000001,0.12550924526781113,5899.6214941307
0.7000000000000001,-0.4480757225727382,5898.419517755704
0.704,-0.9964670952071457,5883.488437905505
0.708,-1.427572587874552,5891.921260117801
0.712,-1.672578783375088,5893.120023251887
0.716,-1.6996204989099228,5899.678467635082
0.72,-1.5170432174926225,5891.862247802176
0.724,-1.1675850063192426,5912.477547385147
0.728,-0.7175766553057943,5903.764850449485
0.732,-0.24514417975859246,5894.301553770619
0.736,0.17089977924870164,5900.422175135874
0.74,0.46215744369577416,5895.034741486828
0.744,0.5825363050658673,5889.876476761178
0.748,0.5190807790908601,5903.9100919800085
0.752,0.29698960953544395,5891.911012585464
0.756,-0.02564401831747551,5902.375733582906
0.76,-0.3737093757943948,5889.001835516935
0.764,-0.6768027819247929,5898.100830033284
0.768,-0.8891023821794354,5896.36490673054
0.772,-1.000129781983225,5903.601606396931
0.776,-1.0325394875682428,5899.04289869181
0.78,-1.0281456988696762,5899.124077035281
0.784,-1.0279265318837085,5897.992537681462
0.788,-1.0536501854134115,5899.68133822261
0.792,-1.0976611990048966,5901.056235917969
0.796,-1.1243359678355693,5895.28898301823
0.8,-1.0828509995942799,5895.119023490186
0.804,-0.9270503416318854,5899.375331123325
0.808,-0.6354452918397567,5905.868120000151
0.812,-0.22379541450066948,5887.857169306885
0.8160000000000001,0.2551290726121592,5900.7797320816135
0.8200000000000001,0.7253076092119688,5899.400931770049
0.8240000000000001,1.1096996624098738,5906.679094784698
0.8280000000000001,1.3519841809955881,5902.387680889989
0.8320000000000001,1.429446043690574,5894.945891112647
0.836,1.3535785876910187,5906.130296920128
0.84,1.1609140679020857,5894.828324790978
0.844,0.8998539973150627,5904.545997996473
0.848,0.6187237593679809,5900.3468951285
0.852,0.35769914845332684,5896.853289567247
0.856,0.14492999444172383,5898.712039142115
0.86,-0.004189992836788525,5901.440196714045
0.864,-0.08615081962376615,5897.091954795597
0.868,-0.10780110261882907,5895.13227780953
0.872,-0.08409775665177661,5895.391647225719
0.876,-0.03488224780098577,5903.28004094712
0.88,0.019099882053358087,5886.597274633646
0.884,0.0606238476721346,5892.402498095767
0.888,0.08034225087388065,5895.204911472161
0.892,0.07943368940654148,5898.251780515153
0.896,0.06810317174246966,5900.647966405062
0.9,0.05895855969919146,5899.464058323693
0.904,0.05758460155134411,5896.360827443938
0.908,0.055247726439151504,5910.674275497484
0.912,0.02857971457133453,5900.983267232284
0.916,-0.05195217651776627,5909.7333740985805
0.92,-0.20764343073192773,5894.101881464127
0.924,-0.43782922995941786,5909.610617583897
0.928,-0.7138136842847007,5894.132888701602
0.932,-0.9839328669164977,5905.736099354049
0.936,-1.1880938377639063,5895.396780093785
0.94,-1.276360911061532,5895.9345830722095
0.944,-1.225064144593859,5899.480026660537
0.948,-1.0448327521849476,5896.498607667097
0.952,-0.7772560978837787,5898.470770267604
0.956,-0.4807596181991075,5901.603153263095
0.96,-0.21115122233893555,5900.033675487326
0.964,-0.005425986340415114,5891.184263550097
0.968,0.12409329086033025,5895.803897167116
0.972,0.18409125970961768,5900.104263598671
0.976,0.18825406020916197,5903.495966205943
0.98,0.14672360583393607,5905.708216277278
0.984,0.06254911788331036,5899.232126462743
0.988,-0.0641895918094342,5898.583810662227
0.992,-0.22813816760714067,5908.016929406351
0.996,-0.41155073229534767,5902.257298356967
1.0,-0.5825029107501403,5895.685838352345
1.004,-0.6998338709008759,5896.2085442197495
1.008,-0.7233523507273595,5903.394608227913
1.012,-0.6260673942979099,5896.4516113073005
1.016,-0.40431303265889795,5895.463404709042
1.02,-0.0815562143661617,5905.164992132248
1.024,0.29654380833647515,5896.150734741818
1.028,0.6745040542115393,5894.080465163389
1.032,1.001877067672425,5900.04611652264
1.036,1.2445789088114052,5897.880055332291
1.04,1.38881624062701,5901.1017645857455
1.044,1.437815412108619,5897.841699940757
1.048,1.4049245990801567,5889.843964531499
1.052,1.3072162386485497,5900.011040262751
1.056,1.1616243650735465,5893.973825855216
1.06,0.9831537426876593,5894.385819839392
1.064,0.7838806478480322,5898.418132588896
1.068,0.5722557696103482,5891.220554297764
1.072,0.35305689024347675,5891.651912716661
1.076,0.12823064062210465,5890.995204443909
1.08,-0.10174657655579589,5905.315305003684
1.084,-0.3362804456830213,5904.276042958494
1.088,-0.5723634785752927,5901.831324455439
1.092,-0.8014753063378998,5894.690950602557
1.096,-1.0076882075620213,5900.006095973268
1.1,-1.1699805815736757,5895.477892349745
1.104,-1.2693427473564538,5897.886787541896
1.108,-1.2974730424630296,5901.637745549961
1.112,-1.2622058361804318,5903.638011395519
1.116,-1.1862450596832208,5898.199592712831
1.12,-1.0991725072675822,5896.996919219369
1.124,-1.0262640032062915,5898.387728195229
1.128,-0.9792464603415575,5896.926714520307
1.132,-0.9527445355196784,5901.271677730947
1.136,-0.9271613887245241,5901.899644955441
1.14,-0.8763699038082897,5889.68079408923
1.144,-0.7775707418621839,5893.00083866265
1.148,-0.6202372492401231,5897.657488499209
1.152,-0.41108587828558485,5896.867571305273
1.156,-0.1733959873963986,5898.1079603291455
1.16,0.05840308427983386,5902.647758340758
1.164,0.24623706285223648,5892.910418124285
1.168,0.355997599160722,5897.46122897622
1.172,0.364885226578199,5898.569307403116
1.176,0.26814139845243995,5897.854650587045
1.18,0.08321219431622989,5896.322470783354
1.184,-0.1514484832544283,5891.740472061845
1.188,-0.384105091237754,5894.835173777133
1.192,-0.5619944621315159,5893.493520575731
1.196,-0.6437737442985884,5899.327662536918
1.2,-0.6079900000865445,5891.262455637817
1.204,-0.45572456147264273,5897.101960005071
1.208,-0.20826815520690503,5897.72261166541
1.212,0.0979472167461076,5901.818787711679
1.216,0.4173579118439287,5901.404504682467
1.22,0.7016664800144413,5904.714396930713
1.224,0.9067197791307248,5903.746291587534
1.228,0.9995592708006904,5897.687068859945
1.232,0.964542015739919,5892.932045645923
1.236,0.8068134306698079,5903.9071623197815
1.24,0.5513662348624585,5902.222625117745
1.244,0.23715389822575808,5896.184440176887
1.248,-0.09196063829433397,5901.298662152293
1.252,-0.3960838398872016,5892.635121852025
1.256,-0.6452105514699917,5899.986880479244
1.26,-0.8212956199050772,5901.070024672735
1.264,-0.9173360112676752,5898.329385554252
1.268,-0.9351625987046295,5895.699244711404
1.272,-0.883296645716791,5901.098912116738
1.276,-0.7749244112117247,5900.888974690211
1.28,-0.6252487981643112,5903.834217478281
1.284,-0.44842263876300453,5897.547093782029
1.288,-0.2557271647333104,5893.395670589764
1.292,-0.05639667351934813,5901.496570966275
1.296,0.13963828403676803,5894.587571862498
1.3,0.3197628636598645,5903.721703075579
1.304,0.46969818821464776,5901.819412493307
1.308,0.5767926568389805,5901.070115314222
1.312,0.632146772258531,5887.865005325135
1.316,0.6291712741478499,5890.593846571954
1.32,0.5604142971867359,5898.011719374682
1.324,0.41732644178272155,5903.586899023047
1.328,0.19572638185523572,5893.5964769580105
1.332,-0.09521285631957743,5900.407871916821
1.336,-0.42599748809908916,5894.257394431356
1.34,-0.7466609038039775,5895.764291046189
1.344,-0.9949604486819557,5906.832846589462
1.348,-1.1114245445627815,5899.447404356615
1.352,-1.0574931939191468,5901.579894994052
1.356,-0.8308877406634699,5900.736576212858
1.36,-0.471494641039604,5897.017787067251
1.364,-0.05362643484900678,5902.407661416863
1.368,0.33375398169864434,5894.623264116685
1.372,0.6118108604561739,5897.838060368558
1.376,0.7326273476039982,5898.91861886949
1.38,0.6891071241091948,5890.493157932357
1.384,0.5116871154135946,5899.346445020961
1.388,0.2544950370917583,5890.125576466114
1.392,-0.0231589749215792,5900.059384472647
1.396,-0.27337075065914557,5900.091151217403
1.4,-0.4691943791742782,5895.402647902922
1.404,-0.6049313130521614,5897.962503745799
1.408,-0.6883265170234153,5896.57838223733
1.412,-0.7285205116076494,5900.550178619009
1.416,-0.7249198347399178,5908.820171612024
1.42,-0.6620679939808926,5896.074750221517
1.424,-0.5137116031818992,5900.692148244639
1.428,-0.25542976992841165,5893.635707599886
1.432,0.11920573185594911,5897.223783225613
1.436,0.586570908484025,5899.249769572163
1.44,1.091483187016359,5896.322387874421
1.444,1.5578508966795774,5905.529697302784
1.448,1.907490004855234,5894.718113802106
1.452,2.08024274585159,5895.251288871323
1.456,2.049181497650378,5896.397756290991
1.46,1.8272253604290978,5895.77198201228
1.464,1.4643242460809809,5896.568768219722
1.468,1.036614717639644,5885.682113697775
1.472,0.6301071298011207,5897.956944365957
1.476,0.32195914709057727,5884.308088990508
1.48,0.16326657728480107,5890.524057591626
1.484,0.1682109025603926,5899.359066254501
1.488,0.31351299229220136,5893.26817687003
1.492,0.5485083592109623,5898.909978701405
1.496,0.8113824000662619,5903.083790557184
1.5,1.0445949262511303,5900.639390345187
1.504,1.2045016898058327,5901.250939839101
1.508,1.2648760148603648,5885.877265539018
1.512,1.21710368209936,5897.66697225652
1.516,1.069208915651206,5893.6065954906
1.52,0.8437590442964683,5894.534493727324
1.524,0.5739961744482823,5908.28738562564
1.528,0.29829388982603494,5896.331226230477
1.532,0.05360613535911459,5897.021745193136
1.536,-0.1313477336615593,5898.596472619619
1.54,-0.24192023122044554,5897.374159007136
1.544,-0.2803364726151611,5891.124209388221
1.548,-0.2636509733126343,5907.24191476534
1.552,-0.21701650168892775,5905.064535991533
1.556,-0.1650188803361914,5894.444955616009
1.56,-0.12528404245267377,5898.828482585794
1.564,-0.10745825968267748,5893.897234490405
1.568,-0.11700559780292408,5897.308103627329
1.572,-0.15960963795203584,5890.67596229701
1.576,-0.24177154869672582,5897.371089474126
1.58,-0.3666922548129854,5897.531877002714
1.584,-0.528215780382955,5895.098175030393
1.588,-0.7067487036830604,5908.770098611162
1.592,-0.869927119013124,5901.2758124300135
1.596,-0.9784874530573053,5898.039472366163
1.6,-0.9952739541974992,5898.821691261776
1.604,-0.8941566479898637,5903.509774059301
1.608,-0.6666219693738351,5890.941986303808
1.612,-0.3254347048401107,5897.2320929495445
1.616,0.0948002032980897,5895.334463802664
1.62,0.5408759093026652,5893.73374294718
1.624,0.9485809242165648,5893.99725736119
1.628,1.253810581263717,5900.4331471364485
1.632,1.4047500563612727,5909.94235420919
1.636,1.372077284726352,5902.729198476491
1.64,1.154720837170536,5903.418912051446
1.644,0.7801114459199339,5895.866176900431
1.648,0.2994464672286427,5901.085407700207
1.652,-0.2206286316085095,5904.057517236134
1.656,-0.7086853163132872,5901.5003809776645
1.66,-1.100660543318812,5905.4011766455815
1.664,-1.3520125273459092,5893.138445890711
1.668,-1.4468597570992563,5896.797824063051
1.672,-1.4001717433306315,5895.897539620698
1.676,-1.2505875173759242,5905.549263754758
1.68,-1.045521481816565,5901.14323407671
1.684,-0.8245042396147788,5898.335770392353
1.688,-0.6079406794855073,5904.36053605947
1.692,-0.39571652413392483,5898.860560105602
1.696,-0.17536848170098107,5911.644277312206
1.7,0.06455425447274181,5899.478055592698
1.704,0.32209060906074793,5899.398966328101
1.708,0.5754754473951844,5897.086971436193
1.712,0.7847903237364968,5896.82993810772
1.716,0.9007027394556949,5899.158765116809
1.72,0.8774688034554686,5890.836534467901
1.724,0.6865398520468767,5887.358476966308
1.728,0.3269991531297454,5896.73890556833
1.732,-0.17024904066536026,5903.374854426653
1.736,-0.7458375026975885,5907.029568421383
1.74,-1.3217635383492488,5896.568748851476
1.744,-1.8150452173685745,5904.284128682076
1.748,-2.1524947394393177,5890.914657681599
1.752,-2.2840671294506696,5896.723729559866
1.756,-2.191449680335517,5904.95349692164
1.76,-1.8883791319542773,5894.929888602313
1.764,-1.4120972521512263,5886.938192250986
1.768,-0.8101075843995289,5899.296150801733
1.772,-0.128762051630303,5897.937468607463
1.776,0.5915174393860732,5900.614116990503
1.78,1.3135860499163907,5892.960423501815
1.784,1.9967354923714864,5892.86537679527
1.788,2.5912035811875596,5902.216806149321
1.792,3.0388560263309676,5895.470506479959
1.796,3.281561874903419,5894.309513243831
1.8,3.274831778222183,5894.446042468471
1.804,3.0015790925867307,5897.769619462411
1.808,2.4804494794985783,5899.160725631488
1.812,1.7651263836540074,5899.460314255697
1.816,0.934502989865879,5902.601564354995
1.82,0.07716408458762088,5895.3850230928665
1.824,-0.7243133113251905,5903.323965219122
