时间(s),电压(V),幅值(高频80K)
0.0,2.2522041586185475,5897.767803005779
0.004,1.8236914119399141,5891.868125860371
0.008,1.428618121942997,5902.95732240925
0.012,1.0904380564590754,5903.700203114353
0.016,0.8179202972239976,5900.922084258314
0.02,0.6026231492729852,5895.716808495482
0.024,0.4225987242321597,5895.140080461683
0.028,0.2501223379576012,5900.502486900002
0.032,0.05894774966784014,5907.460174710503
0.036,-0.17138095472576564,5895.663864934326
0.04,-0.45282471544696457,5896.181496566238
0.044,-0.7853847195959777,5901.414885712194
0.048,-1.1530697030695432,5899.631962533372
0.052,-1.5222086124120562,5903.694230125934
0.056,-1.8448272813415985,5903.276224494939
0.06,-2.0672551561418926,5905.790234683626
0.064,-2.1418461990027726,5894.572787742865
0.068,-2.0390641508429543,5908.044525622588
0.072,-1.7573603052536464,5897.770568857132
0.076,-1.3280180670286437,5903.777519421777
0.08,-0.812002299943967,5891.910819788946
0.084,-0.2878476179503509,5893.5443889700655
0.088,0.16599057276333015,5899.800717090422
0.092,0.48744706982782493,5897.554921251194
0.096,0.6401422328485191,5892.13111398583
0.1,0.6151419393336661,5905.433058732666
0.104,0.42888694639775476,5897.48761762058
0.108,0.12062831534486564,5893.733682859927
0.112,-0.2507019700776111,5903.8806597109615
0.116,-0.612472861422284,5896.362541633357
0.12,-0.8888494136912394,5898.520795805117
0.124,-1.0154773707449178,5896.561027161672
0.128,-0.9558176016025831,5896.8730698330455
0.132,-0.7140963213277991,5899.672326237668
0.136,-0.33825504928274014,5902.552910318424
0.14,0.09171542719317134,5901.7041813623
0.144,0.48816921254691825,5892.559283170186
0.148,0.7833981306516783,5896.023218216212
0.152,0.9479111658726171,5896.471685294605
0.156,0.9915328856969572,5898.208351087608
0.16,0.9488332480304245,5899.215772331435
0.164,0.8584041846655062,5902.814492861793
0.168,0.7474668527163673,5891.723235173706
0.172,0.6285143920869535,5902.828882775554
0.176,0.5064751354960711,5894.289804675991
0.18,0.3885144812705108,5902.158905117372
0.184,0.2879638045761335,5900.824125341049
0.188,0.21895737837229604,5903.47210072798
0.192,0.18539840819469425,5898.535886628748
0.196,0.17209751583511165,5895.779507016057
0.2,0.14488026524373754,5902.652390362373
0.204,0.061313415124234744,5895.581140363983
0.208,-0.11210033219983613,5895.771951418356
0.212,-0.38385508936664653,5906.083439361876
0.216,-0.7299577222057482,5899.938100841312
0.22,-1.0987676605397443,5902.823927707692
0.224,-1.4262585151555653,5907.495981663508
0.228,-1.655568858088233,5904.042422425819
0.232,-1.7538712974273885,5903.68394498316
0.236,-1.7210641142523138,5899.086965360038
0.24,-1.5871867993398419,5900.879321289701
0.244,-1.3988355585212884,5899.983439898408
0.248,-1.199059130871582,5895.42117439808
0.252,-1.0087978561409527,5902.486191148088
0.256,-0.8187842208699576,5894.360917158082
0.26,-0.5972459113723203,5899.769661906904
0.264,-0.3111343903201013,5911.77761123728
0.268,0.049198705845038056,5896.136295551971
0.272,0.4545539210820849,5898.027007796292
0.276,0.8386858997908401,5901.725675355224
0.28,1.116894400270838,5894.027765285478
0.284,1.2138470591018207,5902.083118150296
0.288,1.0899848891253787,5896.990056137781
0.292,0.7570149882594143,5896.980475793185
0.296,0.2777498843045681,5898.96916507137
0.3,-0.24844011792052434,5898.719418661658
0.304,-0.7093564732130272,5897.379690045133
0.308,-1.0066114682866723,5904.031864096815
0.312,-1.0788663968212953,5900.645141987608
0.316,-0.9155199314321146,5905.362233760103
0.32,-0.5562914227528681,5903.27883642726
0.324,-0.07622922935739529,5891.415404967147
0.328,0.43860846156394,5906.214245648192
0.332,0.9151451572486897,5907.309320395036
0.336,1.3074819224102574,5898.4377633862405
0.34,1.597201729049198,5901.010819481092
0.344,1.783031825719767,5902.041222566995
0.348,1.8678390070751674,5901.560196287423
0.352,1.8505808855371053,5903.716490204368
0.356,1.7265199092739059,5905.83901316076
0.36,1.4939227334854084,5903.014346418948
0.364,1.162331141038854,5898.834452917097
0.368,0.757315296395826,5897.530400134883
0.372,0.3190156421821964,5898.15930201933
0.376,-0.1047259960996576,5899.705504266802
0.38,-0.46743256007700407,5902.396238838661
0.384,-0.7322120581627934,5900.912994927164
0.388,-0.8781345305272269,5893.82726142322
0.392,-0.9051103836176382,5897.744777770475
0.396,-0.8365904907063846,5894.769022897696
0.4,-0.7175771383539691,5907.453065578106
0.404,-0.6057323631311309,5901.741318386169
0.408,-0.5563922491152039,5903.084450255237
0.412,-0.6059451886580446,5907.696113842208
0.416,-0.7597488758969214,5905.013146188997
0.42,-0.9891454600123961,5907.603992072104
0.424,-1.23815187563982,5888.768610459829
0.428,-1.437023814910878,5894.92576034129
0.432,-1.5189382410727683,5893.198057928738
0.436,-1.4364216986507614,5898.84951835206
0.44,-1.1740875299557205,5903.59375600154
0.444,-0.7538011056761564,5879.09472883866
0.448,-0.22949972586802336,5902.075390591974
0.452,0.3271770393548113,5904.355535617358
0.456,0.8447036334229375,5907.880102247278
0.46,1.2658897673369303,5889.906742614297
0.464,1.5544160267912754,5895.879632526753
0.468,1.694107500341553,5898.245130804696
0.472,1.6845421037424984,5897.365731096654
0.476,1.5371733038463085,5905.133489433752
0.48,1.2743543408282998,5899.131311800554
0.484,0.9308535551253995,5897.795650298173
0.488,0.5554167232346278,5894.774179092488
0.492,0.20955705929449173,5905.236574269579
0.496,-0.038378721240469614,5902.895421304356
0.5,-0.12444785360836114,5898.576778349759
0.504,-0.004504362922275464,5907.009708220322
0.508,0.3295977846301595,5891.487417944473
0.512,0.8387008966900906,5907.946843529512
0.516,1.4368084248909587,5891.398611301737
0.52,2.007671529513787,5892.894954898238
0.524,2.434749145427735,5901.04476663576
0.528,2.6338250600360698,5901.181325210173
0.532,2.574896667673104,5908.302296435992
0.536,2.2851363037671315,5909.6135473604645
0.54,1.834193708235484,5903.026598715774
0.544,1.3105966395103015,5896.159944314062
0.548,0.799524326421267,5899.42362357213
0.552,0.36830103984577844,5900.916989138769
0.556,0.06045766490220882,5904.024092735766
0.56,-0.10411154864511811,5903.681532259902
0.5640000000000001,-0.1257731585529606,5894.793599093565
0.5680000000000001,-0.020521728146509013,5889.643522119937
0.5720000000000001,0.18475275597165994,5892.478594581802
0.5760000000000001,0.4562471910812465,5886.584677998534
0.58,0.7559166765718847,5891.706132725493
0.584,1.0433422536852106,5902.841870496678
0.588,1.2785862394787189,5884.636308090715
0.592,1.4274313491294486,5906.475265391926
0.596,1.4680106433041646,5901.945617386211
0.6,1.395791559429199,5899.285074976149
0.604,1.224508018695729,5899.36491610151
0.608,0.983452157543049,5901.233753388759
0.612,0.7134824448157838,5893.682819637232
0.616,0.46303981472461614,5898.999904692619
0.62,0.2829738796616972,5913.161678996553
0.624,0.21834829893647983,5902.59704486172
0.628,0.2975586368643757,5901.739126389096
0.632,0.5220536584397127,5899.674078915464
0.636,0.8612275848707437,5900.620027371614
0.64,1.255642825356635,5898.256828930004
0.644,1.6283840212411878,5900.900546222379
0.648,1.901103396110861,5899.755990168996
0.652,2.010389883831037,5892.56953165764
0.656,1.9214767248024902,5894.815368870538
0.66,1.6374603254569806,5901.662964083464
0.664,1.2015709639032393,5886.2200562356575
0.668,0.6895102431775763,5897.244534595156
0.672,0.19128327592234975,5898.609974863406
0.676,-0.21301436577127877,5895.524490948178
0.68,-0.47505520913046945,5894.62808064479
0.684,-0.5897528611925833,5900.819439478736
0.6880000000000001,-0.592600649727226,5893.03144948258
0.6920000000000001,-0.5445235829569106,5904.209634495911
0.6960000000000001,-0.5099677340230865,5897.671527407041
0.7000000000000001,-0.5353509309390178,5904.633997639038
0.704,-0.633575135808053,5903.981981432494
0.708,-0.7777413764173658,5899.526590530732
0.712,-0.9055228685369182,5904.177933715079
0.716,-0.934565549729259,5904.689872009375
0.72,-0.7870150029865306,5909.425198107133
0.724,-0.417639531974837,5893.661690325209
0.728,0.16298953672221453,5895.3250604745945
0.732,0.8792396579185153,5902.951674630631
0.736,1.6011825435409441,5897.443688751388
0.74,2.175335131466898,5906.237269531642
0.744,2.4674257985332955,5898.759215736934
0.748,2.403247863002178,5898.476419529311
0.752,1.9930407072723733,5902.461057667317
0.756,1.330168960690884,5898.678603426544
0.76,0.5641583145278833,5910.192527450413
0.764,-0.14224258969165515,5899.822502445907
0.768,-0.6567329739399114,5900.821260384329
0.772,-0.9076758259284199,5898.670021224591
0.776,-0.8932312561708678,5902.195211976162
0.78,-0.6701146576147072,5905.735520292267
0.784,-0.329099135005229,5903.491491411372
0.788,0.03305827628110628,5894.10619649707
0.792,0.3368056030588782,5896.169398972936
0.796,0.5331820792277908,5902.307945187004
0.8,0.6064863797458961,5895.46332255754
0.804,0.5683635105858714,5900.759832623339
0.808,0.44701769032696387,5901.6405568547625
0.812,0.2755869530719739,5902.7298533334615
0.8160000000000001,0.083142588897393,5897.685902712249
0.8200000000000001,-0.10960353960848186,5898.21622822371
0.8240000000000001,-0.28969077891775935,5899.563666307833
0.8280000000000001,-0.4479042260523964,5902.787009776908
0.8320000000000001,-0.573818316107197,5894.254644636933
0.836,-0.6525400403684475,5899.272376090908
0.84,-0.6654196732780702,5906.336317646101
0.844,-0.5957111049315053,5913.193431571514
0.848,-0.43770490597717715,5899.481701225754
0.852,-0.2050417697786056,5902.983413053611
0.856,0.06720597256302784,5902.484538694036
0.86,0.3296926733851508,5896.3852419081895
0.864,0.5331623689643032,5894.998303841597
0.868,0.6439155145825292,5902.740615111098
0.872,0.6538259871076557,5901.584898501184
0.876,0.5810299992679762,5900.380820657172
0.88,0.4614444033528681,5896.280265530943
0.884,0.3350800341099204,5901.601383643272
0.888,0.2330357409694999,5902.417478470655
0.892,0.17009940804783943,5913.263068950058
0.896,0.14482844958777813,5897.475238141216
0.9,0.14569089230984503,5896.049262704485
0.904,0.15972366518968115,5904.207324440888
0.908,0.1796726304525771,5906.402961238295
0.912,0.20675752384317833,5904.70759076549
0.916,0.24875388416978336,5900.677757106884
0.92,0.3155640827134472,5895.834453567898
0.924,0.4148397138022831,5903.392523531865
0.928,0.5484814024299353,5903.067849498636
0.932,0.7095048476972851,5890.501110604742
0.936,0.8796571041569053,5908.575128002668
0.94,1.0297952068158958,5896.915744028763
0.944,1.124612117349478,5897.19985547244
0.948,1.1306963448275564,5909.7083253820265
0.952,1.0247624257600083,5898.121379172609
0.956,0.7990522468589975,5895.458640681964
0.96,0.4627964253709336,5897.178518450865
0.964,0.04056590372230196,5900.385987918837
0.968,-0.4308707599058777,5907.1739485216485
0.972,-0.9062156305850311,5897.737113174239
0.976,-1.3362843052580182,5898.095919097718
0.98,-1.674796804321315,5892.340156951227
0.984,-1.8873085754209822,5899.546525423323
0.988,-1.9598859325922744,5901.247692455558
0.992,-1.9037181082057208,5896.265142720095
0.996,-1.7525595528116957,5903.124925337815
1.0,-1.5522648479290404,5897.702527435275
1.004,-1.3451165629086546,5907.066113151387
1.008,-1.1549238470906347,5895.582446462901
1.012,-0.9795570703312603,5901.067437374359
1.016,-0.794516273598119,5906.460919680511
1.02,-0.566110769595928,5906.984657495704
1.024,-0.2686632679078764,5914.806896270322
1.028,0.10152199454605992,5903.779567841832
1.032,0.5213248006744609,5898.058720405546
1.036,0.9468397115641753,5902.630814255683
1.04,1.326931350814624,5903.535836961463
1.044,1.618102389851477,5897.502548336172
1.048,1.795234071921342,5902.544963419607
1.052,1.8556413612000053,5913.326613384847
1.056,1.816557097865999,5897.5069179439215
1.06,1.7076551223966927,5897.946275986349
1.064,1.560952436614247,5892.075761904315
1.068,1.4011009600543927,5898.45612595816
1.072,1.239374782343872,5901.220309382401
1.076,1.0735250659858324,5899.517500970745
1.08,0.8933362661997452,5890.494396464703
1.084,0.6896491761164445,5912.032792686148
1.088,0.46347074780670633,5901.850185053843
1.092,0.2314681738522666,5903.291756370508
1.096,0.025125614987591846,5902.526292583521
1.1,-0.11661000436363532,5907.629516560847
1.104,-0.1585101929787683,5898.216896833113
1.108,-0.08015683875886541,5892.880965079343
1.112,0.11594710042422922,5898.873660061914
1.116,0.400382043401588,5905.051386423616
1.12,0.7177032300100696,5901.819062895621
1.124,0.9939270688196384,5902.511183833993
1.128,1.1519282857327076,5896.390697983521
1.132,1.1326380208290532,5899.85121169056
1.136,0.9152717414141878,5893.208934441448
1.14,0.5276800994325195,5903.367983231193
1.144,0.04084092815828619,5900.073340948284
1.148,-0.4514685509971525,5900.426483915907
1.152,-0.8600903015884985,5898.114441045061
1.156,-1.1249580133336883,5891.818692138233
1.16,-1.2286563759226885,5910.398655595331
1.164,-1.1953254430249343,5909.160557088164
1.168,-1.0762806064574681,5903.972056380928
1.172,-0.9285448493339906,5899.398282245851
1.176,-0.7950303747236593,5902.859157832921
1.18,-0.694160543060481,5903.761859439219
1.184,-0.622462583658036,5899.77233285286
1.188,-0.5672633261116358,5900.070419068572
1.192,-0.5211221430383236,5891.808022668545
1.196,-0.48907752634839574,5904.305348358092
1.2,-0.4851130147449657,5904.0452151981
1.204,-0.5213907290939477,5901.562329706137
1.208,-0.597530277514001,5898.918968346258
1.212,-0.6959463206585349,5897.775157453534
1.216,-0.7851265928818514,5894.316431153638
1.22,-0.8287578808968197,5902.19988197048
1.224,-0.7969534073101876,5894.9800050694685
1.228,-0.6766265701368496,5905.017525133848
1.232,-0.47910394988356764,5896.154328021104
1.236,-0.24264173126503347,5898.034526038508
1.24,-0.02699468915038751,5903.438274446689
1.244,0.10087876270949452,5903.061359689947
1.248,0.0866433526497764,5905.224251284876
1.252,-0.09290381152411463,5903.709497284906
1.256,-0.4195150572105467,5894.634573412567
1.26,-0.8348875514514987,5895.690942751594
1.264,-1.253042677626508,5897.324144226903
1.268,-1.5800437835678152,5896.0119566998
1.272,-1.7361609397357636,5902.8783195655
1.276,-1.675193867107581,5905.642744768501
1.28,-1.3958515374442524,5904.309313286553
1.284,-0.9416159451285779,5891.696684201273
1.288,-0.38883860181811813,5904.9191019927885
1.292,0.17324738300996154,5902.521551421309
1.296,0.664365935820894,5898.680883467891
1.3,1.0304193961063632,5891.459996327689
1.304,1.2512970972985844,5897.507104985561
1.308,1.3373799431510502,5901.859200052123
1.312,1.3166077097806275,5894.194944633922
1.316,1.2178761796689999,5894.7239901121575
1.32,1.058606284388038,5910.991809895467
1.324,0.84236323311676,5893.532825155548
1.328,0.5667243350437416,5901.21018868037
1.332,0.23572477378331866,5902.883382825515
1.336,-0.1309430240323073,5904.480631372714
1.34,-0.4971326107183056,5897.487358810447
1.344,-0.8179021580943026,5908.962411457242
1.348,-1.0517304761457407,5903.673948636347
1.352,-1.1723888498150004,5895.138344354451
1.356,-1.1769018321009401,5906.722532917959
1.36,-1.0879991931211987,5903.053596604764
1.364,-0.950595661053701,5895.7702462406205
1.368,-0.8221669451827693,5897.665567017229
1.372,-0.7579533229473252,5903.003037464845
1.376,-0.7944136660293851,5891.34937643972
1.38,-0.9366482626687243,5903.216143389662
1.384,-1.155414230092057,5896.630638756557
1.388,-1.3961558710667699,5902.468960266331
1.392,-1.5971693007199517,5905.218103827639
1.396,-1.7092328336343652,5903.840681469456
1.4,-1.7081214137194598,5888.472756913986
1.404,-1.595743287412113,5896.387266589012
1.408,-1.3924948759455402,5901.975339690462
1.412,-1.127751602672245,5912.990031727926
1.416,-0.8342235437458294,5890.564088676598
1.42,-0.5470143940700505,5901.779974183854
1.424,-0.30393480717605165,5899.677844675099
1.428,-0.14273783100372303,5903.437327241136
1.432,-0.09355543761431055,5899.805359128092
1.436,-0.16895731679269085,5901.013348815797
1.44,-0.3566888597618672,5906.313948388885
1.444,-0.6192805454119065,5897.501491887756
1.448,-0.9012144873121516,5896.564403588512
1.452,-1.1409656577612306,5902.182731436184
1.456,-1.2840448494090417,5900.708898319729
1.46,-1.2939431796865186,5898.540646143191
1.464,-1.159018899578195,5897.409905664041
1.468,-0.8939731365085007,5901.928842386983
1.472,-0.5353438727891028,5902.833186399756
1.476,-0.13229177556735428,5902.083787202913
1.48,0.2640082790876445,5909.940600838967
1.484,0.6087957548653724,5906.202826623367
1.488,0.8683559091063975,5903.800074776603
1.492,1.0215411374822492,5893.6208299845
1.496,1.0597373306115465,5903.371551113922
1.5,0.9864052361527337,5904.873000892175
1.504,0.8165301215999325,5898.920398725678
1.508,0.5756717514684577,5901.330802773513
1.512,0.29822426675168257,5891.280054096396
1.516,0.02483835661414381,5908.191150930422
1.52,-0.2011142413747463,5899.0699850712335
1.524,-0.3386498951194034,5908.4540454299
1.528,-0.3562055055190855,5890.870209446656
1.532,-0.2394862207897951,5901.826273525261
1.536,0.0024872753629510765,5898.286279035821
1.54,0.33609769194774575,5910.783443973885
1.544,0.7085597432807305,5901.238096193219
1.548,1.059887573218661,5899.672389088569
1.552,1.3384251581092925,5900.988562738651
1.556,1.5145740472944247,5910.18089604575
1.56,1.587245405987994,5893.330905426551
1.564,1.5806333440668516,5898.08683733502
1.568,1.533462190162861,5894.738788683475
1.572,1.4858206762217567,5902.312319259966
1.576,1.4684754274324583,5894.363134645434
1.58,1.497184254541669,5896.967275411726
1.584,1.5720860630251199,5896.179592018742
1.588,1.680911291722967,5909.346572752683
1.592,1.8043862355788354,5901.7526125681015
1.596,1.9220099361182454,5904.526936037199
1.6,2.0160981202287602,5890.127096929454
1.604,2.072540973267486,5904.333330635775
1.608,2.078791240661283,5910.74398688885
1.612,2.021844725541093,5905.8692995237225
1.616,1.8892874749260946,5892.386629475822
1.62,1.6743223919933312,5904.678851430948
1.624,1.3823065835932993,5894.565794098375
1.628,1.034128433049273,5901.669083411795
1.632,0.6630288996389593,5906.115311647682
1.636,0.30573732968535655,5893.591484385718
1.64,-0.007617489543520856,5908.308554260017
1.644,-0.2602411705219891,5899.148717353081
1.648,-0.44987528743392735,5901.0610272466
1.652,-0.5848154074166678,5899.613453806384
1.656,-0.6768357149479155,5904.357177277699
1.66,-0.7340927328577636,5902.889152126319
1.664,-0.7569906153073556,5902.678969099925
1.668,-0.7386422903233603,5904.038095887879
1.672,-0.6693709075223558,5893.380197330708
1.676,-0.5426749708049199,5894.312825940936
1.68,-0.35963818570488143,5903.683800236327
1.684,-0.13024213126009318,5903.79847366078
1.688,0.12813559374559147,5896.195075613826
1.692,0.3939997809870568,5900.283023439858
1.696,0.6457821172939685,5902.550320062495
1.7,0.8658401437545024,5900.897558169365
1.704,1.0438504298485851,5895.384185425933
1.708,1.1790046160456833,5899.971392479795
1.712,1.2800223509612818,5895.678910832919
1.716,1.3619691505116274,5896.618168744276
1.72,1.4397446163759384,5892.588441446445
1.724,1.5197445722036078,5892.87552465873
1.728,1.5930088698435214,5897.057799022302
1.732,1.633782651238091,5899.889319327132
1.736,1.6056340750108193,5893.513008445192
1.74,1.4738556974612964,5909.223224887237
1.744,1.2198402525932335,5906.227798004135
1.748,0.8516305621015269,5901.8294626313145
1.752,0.405510299295289,5900.017850469222
1.756,-0.06289738148373442,5902.175986043511
1.76,-0.4941193159842431,5903.149164679232
1.764,-0.8396393652346779,5895.98493878658
1.768,-1.070323650867797,5899.725084810259
1.772,-1.1776301600035999,5897.078603168004
1.776,-1.170674283150029,5896.357091306441
1.78,-1.0724870954513188,5904.433921324367
1.784,-0.9163632593538119,5903.161557780593
1.788,-0.7411589809071603,5899.854249925169
1.792,-0.5846137998736881,5911.072030282792
1.796,-0.47549748712957834,5898.774096206008
1.8,-0.4270598736897493,5902.572436301513
1.804,-0.43465349524042945,5894.623916779689
1.808,-0.4787103724542358,5908.6623587076365
1.812,-0.5313487189869256,5900.899694013181
1.816,-0.5634996208365262,5898.9348356489145
1.82,-0.5510412299352667,5911.070413296504
1.824,-0.4806495346050158,5900.655300041075
1.828,-0.35543579242799034,5909.034313787635
