时间(s),电压(V),幅值(高频80K)
0.0,-2.8112468809793776,5897.338551972338
0.004,-1.5498650812671233,5905.942888076855
0.008,-0.39981651215370967,5900.263008334734
0.012,0.545555987876678,5906.375652906873
0.016,1.226744840255167,5892.667815861037
0.02,1.6243575456934503,5903.266353999907
0.024,1.7571243270944863,5891.238431573506
0.028,1.6734549784299606,5893.009129478277
0.032,1.4387030411125203,5893.25537773132
0.036,1.1213326509524122,5895.523694314013
0.04,0.7820838961778493,5908.499458548869
0.044,0.46859666112193354,5898.000556364479
0.048,0.21439097580443744,5900.889789964926
0.052,0.03922888685775069,5910.689596914589
0.056,-0.05076036787941024,5904.747660414226
0.06,-0.06266965239655568,5905.596650998147
0.064,-0.015152864203754486,5900.681975827489
0.068,0.06461190166735217,5910.896389570613
0.072,0.14485225117542896,5905.6592411553365
0.076,0.19357263838731184,5900.967382889205
0.08,0.1830298968295439,5905.802061620845
0.084,0.09361969348854937,5910.930935979623
0.088,-0.08399524320083253,5889.108527333322
0.092,-0.3490821659137805,5904.442321638703
0.096,-0.6920386747978104,5902.038500429191
0.1,-1.0939869186989981,5893.310725045173
0.104,-1.5235233869282387,5907.284219033161
0.108,-1.9329483489461676,5902.455364717101
0.112,-2.2590510211703267,5903.230266027932
0.116,-2.432608666504505,5902.89178485999
0.12,-2.3961205907365306,5892.639308592383
0.124,-2.1240033430319145,5900.99733345182
0.128,-1.6371706957842371,5891.587155681252
0.132,-1.0056716576278582,5888.203953549118
0.136,-0.3370996083154742,5897.393226159496
0.14,0.24707771914950172,5904.738483254739
0.144,0.6410651425528681,5908.338033187408
0.148,0.781283335457524,5905.031224018542
0.152,0.6613389632301473,5899.99505687657
0.156,0.33095235742239687,5894.135509796412
0.16,-0.11918314614542747,5899.641310299424
0.164,-0.5795180744975841,5900.514866518097
0.168,-0.9430893222653746,5893.807452764068
0.172,-1.1221322362882018,5893.950208904235
0.176,-1.0595691001111218,5904.218620236524
0.18,-0.7363710685729618,5905.3613376616
0.184,-0.17474309242719532,5887.7687840812805
0.188,0.5639590389939545,5899.529702822919
0.192,1.3870729258848933,5900.486582718766
0.196,2.1832518439617963,5891.689049300876
0.2,2.8383607586989767,5898.797965747161
0.204,3.2536216268676514,5897.218527762719
0.208,3.364366901358447,5901.758728697899
0.212,3.1552939144679697,5911.112587046352
0.216,2.6665577139405365,5890.045982020849
0.22,1.9872303596139727,5904.925186201978
0.224,1.2374099006192492,5899.657157596489
0.228,0.5439545326172002,5899.770216750802
0.232,0.015711151834211366,5903.254584280023
0.236,-0.27669666469181603,5894.641574537313
0.24,-0.31257203632017916,5893.91680292817
0.244,-0.1219839249947595,5909.56870553503
0.248,0.22392939651365876,5907.073922453028
0.252,0.6299397764054282,5894.930076777466
0.256,0.9964821417971331,5898.026486509772
0.26,1.2386672005774464,5899.856113262184
0.264,1.302437038388332,5909.118070397392
0.268,1.1756063376588608,5903.042776151496
0.272,0.8908604180820091,5910.43548564403
0.276,0.5189245567989811,5893.640704053221
0.28,0.1526819877971993,5897.755571548763
0.284,-0.11506719868067218,5895.000564866858
0.288,-0.21595442487094607,5901.909123138938
0.292,-0.12590874599854682,5904.635849815494
0.296,0.12697693667633264,5901.753481317584
0.3,0.4705137719916671,5896.243200204607
0.304,0.809818608085023,5896.292665312696
0.308,1.05461810994876,5903.337910404004
0.312,1.1438567113071314,5905.681348217676
0.316,1.0606351508757899,5901.050965234989
0.32,0.8341645931349755,5901.047852967768
0.324,0.5298106333059772,5905.912650447247
0.328,0.23104985054698185,5907.036595437587
0.332,0.017652486170225735,5897.336253853383
0.336,-0.055485785202653515,5895.634551189715
0.34,0.02623725908847766,5895.495323449954
0.344,0.23225155945454895,5905.0465113553
0.348,0.4946819290013152,5907.396259797077
0.352,0.7272975130740486,5907.214490022276
0.356,0.850502407264104,5898.564948396857
0.36,0.8153489768705081,5891.43899858114
0.364,0.6192895136830519,5900.203587794199
0.368,0.3082055484634962,5895.742365590174
0.372,-0.03661048693215144,5897.203301897339
0.376,-0.3223046157355045,5890.295016188346
0.38,-0.4706435093655344,5910.507112377871
0.384,-0.4379857569616001,5904.143500963655
0.388,-0.2246550991512579,5896.178787075419
0.392,0.126199389367411,5895.791607502909
0.396,0.5386770775631223,5904.737278446751
0.4,0.9216782359762563,5888.587452013519
0.404,1.191059792787806,5904.684656801392
0.408,1.290805040924625,5895.549560548914
0.412,1.2066283823720814,5907.419887574538
0.416,0.9675543611275573,5900.761753942272
0.42,0.6349712111854148,5908.14832360537
0.424,0.2827565336509627,5898.075738555758
0.428,-0.024915921494307082,5900.264031485632
0.432,-0.25072689377931295,5899.686132258309
0.436,-0.3910355614809364,5900.044206946549
0.44,-0.4710934766100415,5897.329780397627
0.444,-0.5314137660865547,5890.873470548328
0.448,-0.6106464264885317,5902.8723317793765
0.452,-0.7309595410758531,5906.609684090717
0.456,-0.8906922227703117,5901.926784758317
0.46,-1.0659604125065358,5901.377623092637
0.464,-1.2189647071647292,5904.1848017909815
0.468,-1.3086833076249444,5905.03031968504
0.472,-1.3012069138981142,5898.607954950064
0.476,-1.179868440574655,5908.326657779085
0.48,-0.9553050154711387,5894.378322485085
0.484,-0.6721063829575734,5902.378675292352
0.488,-0.4059100699051557,5895.948428020215
0.492,-0.24672635048056699,5901.826840327368
0.496,-0.27092866235179514,5905.805765395381
0.5,-0.5119581534436314,5899.822007497401
0.504,-0.9429148820134328,5901.843672866763
0.508,-1.4795536500872366,5899.932258697994
0.512,-2.0024328751417633,5907.390966510994
0.516,-2.3888093773332204,5893.667367385056
0.52,-2.542834954072119,5899.26906415114
0.524,-2.416027098338368,5894.345436035796
0.528,-2.0151820526266704,5902.344578686591
0.532,-1.3985740167357528,5895.4354019132525
0.536,-0.6627156985063068,5913.139506758096
0.54,0.07736461328284941,5902.641735064933
0.544,0.7104298476602651,5894.990163783487
0.548,1.149554110713548,5898.027456460742
0.552,1.347197836969073,5900.259795529184
0.556,1.3025235835537747,5902.314144879259
0.56,1.059918592593542,5897.453833187681
0.5640000000000001,0.6989716464301106,5905.745121538656
0.5680000000000001,0.317658276042816,5906.900986816533
0.5720000000000001,0.011942214392582338,5900.83079658616
0.5760000000000001,-0.14408653480018088,5899.239265956512
0.58,-0.11316143608371915,5903.074253570205
0.584,0.09896223410346282,5908.955548262716
0.588,0.44788884294459524,5898.695730429607
0.592,0.8638730944275027,5897.944245916198
0.596,1.269222089565388,5894.112411164606
0.6,1.5943375527000134,5899.354928501176
0.604,1.7887258561531967,5894.305331386047
0.608,1.8259636719412975,5902.488698924586
0.612,1.7036910242284748,5893.447122771906
0.616,1.4406447745893323,5890.711976905219
0.62,1.0724776004151373,5892.527462867673
0.624,0.646805467100279,5895.831599797744
0.628,0.21654819326647365,5889.902455954021
0.632,-0.1691428981390113,5902.713741287807
0.636,-0.47479948397177457,5901.345593284069
0.64,-0.6855483858784137,5903.017578504796
0.644,-0.8074672455364003,5897.781700816779
0.648,-0.8610649232902903,5904.6423258019
0.652,-0.8715230023481837,5893.873048432151
0.656,-0.8607512088618655,5905.3266125341925
0.66,-0.8437201626342005,5899.713963083129
0.664,-0.8274799122612182,5898.20016776449
0.668,-0.8101202370002571,5895.766730421314
0.672,-0.7795528819066879,5905.728534392457
0.676,-0.7146449471216725,5909.262191464958
0.68,-0.5905973131106512,5898.024768583456
0.684,-0.3875475027637789,5904.305985451946
0.6880000000000001,-0.09909337737537846,5894.032537312741
0.6920000000000001,0.2630085453737495,5900.697457714989
0.6960000000000001,0.6703661800227927,5898.77197034627
0.7000000000000001,1.085162944287235,5905.0136026882
0.704,1.469484369700653,5900.055333283516
0.708,1.7924064573255893,5907.003797516993
0.712,2.0326046766967862,5899.092668259429
0.716,2.177347489787849,5900.550494354697
0.72,2.2204861894348014,5895.4063165044245
0.724,2.161712882596458,5897.504155565679
0.728,2.007733696168725,5897.07792355707
0.732,1.7741436110602669,5899.802308458401
0.736,1.485568217737484,5907.967283218634
0.74,1.171975646747232,5891.143656293217
0.744,0.8613109093812958,5905.607623925524
0.748,0.5716159350683173,5896.272412994984
0.752,0.3072343578572535,5908.691053633525
0.756,0.0619355449022395,5897.163415214912
0.76,-0.17228372479010612,5907.334104877923
0.764,-0.3955329108859693,5892.286282598811
0.768,-0.5950163990063949,5895.566494006821
0.772,-0.7476440109553947,5895.432930457274
0.776,-0.8289780671785837,5897.976388228477
0.78,-0.8238929306207732,5905.360789181939
0.784,-0.7338778565731677,5901.711442071393
0.788,-0.5782431476516419,5906.064505755904
0.792,-0.38951022363761256,5904.536267328261
0.796,-0.2049274739127257,5885.778097642378
0.8,-0.05643841167235326,5894.494549196059
0.804,0.03815663868413499,5909.083059733084
0.808,0.07990906174310557,5894.316671119766
0.812,0.08767278877480353,5897.024742778312
0.8160000000000001,0.09190711298563102,5894.741714394428
0.8200000000000001,0.12526244301817419,5903.144355723588
0.8240000000000001,0.2120970449985671,5903.62473340001
0.8280000000000001,0.35932231788330327,5906.543674963333
0.8320000000000001,0.5513041598843115,5906.046418395236
0.836,0.7510811327715067,5886.062713241364
0.84,0.9086522773729889,5894.498164088827
0.844,0.9748289598819291,5898.094298353938
0.848,0.9167554272606432,5900.219696007176
0.852,0.7301390751702967,5904.134178779427
0.856,0.44441687765828214,5902.529737133492
0.86,0.11922531795384982,5909.264484018589
0.864,-0.16789342497838095,5893.59042661039
0.868,-0.3409045021882704,5900.369039132437
0.872,-0.3472266325822885,5907.05527342482
0.876,-0.17492019515636248,5896.434720685238
0.88,0.14188173254901043,5897.878110763728
0.884,0.5322040114951987,5908.280850802943
0.888,0.9090297258006751,5898.996376696861
0.892,1.1937312652479026,5895.565618410203
0.896,1.3349351779411793,5904.407575779292
0.9,1.3155395654806268,5896.8737716487085
0.904,1.147302235492078,5902.720826916848
0.908,0.8582313654217988,5906.051553332153
0.912,0.48076812794053353,5898.53766643538
0.916,0.046571654956000345,5908.154471510945
0.92,-0.41177447688335106,5898.538448889821
0.924,-0.8564192403612688,5886.874892831484
0.928,-1.2425600438241198,5908.647188646372
0.932,-1.52275575212939,5894.041386882576
0.936,-1.6573269986971222,5907.148450198383
0.94,-1.627399121638566,5907.351280108138
0.944,-1.444651719203219,5905.159304382008
0.948,-1.1521653330963813,5895.686669238044
0.952,-0.8142387731774358,5894.614375879087
0.956,-0.49789814945309246,5903.737677981882
0.96,-0.2525277246204335,5897.373444211324
0.964,-0.09500821673173994,5906.527768302479
0.968,-0.005790438656185637,5894.096454198699
0.972,0.06267519695254603,5906.009088650507
0.976,0.16830004599253012,5906.464023260864
0.98,0.3586836982095813,5895.359383409278
0.984,0.6536289665752925,5904.368958997976
0.988,1.0351269377427947,5904.559001400069
0.992,1.4473525032968362,5894.896794763997
0.996,1.8080116780204045,5902.101992365194
1.0,2.030066983607147,5895.512178160029
1.004,2.0487304948730465,5903.571807071112
1.008,1.8447389735962907,5902.651793487952
1.012,1.4545004624619788,5891.348017743744
1.016,0.9620163317144632,5902.01494603035
1.02,0.4748583909462993,5901.596989985034
1.024,0.093172778867971,5899.473681050236
1.028,-0.11703697380759075,5900.09625121388
1.032,-0.13804073737145475,5895.373159598275
1.036,0.0008560597595393698,5903.744948563495
1.04,0.23752094748419336,5903.644206518104
1.044,0.4979963678126202,5905.279846788517
1.048,0.7164287193425543,5896.278083358678
1.052,0.8476394522370952,5899.989251112945
1.056,0.87042062561706,5896.876967054124
1.06,0.7839296293769379,5894.303371862681
1.064,0.601527861408623,5900.712973263148
1.068,0.3460346880408075,5896.674836637884
1.072,0.04807986534353913,5898.938950125169
1.076,-0.2543541078772468,5905.163552867906
1.08,-0.5194262838695495,5895.608390279377
1.084,-0.7102284628938489,5902.934629501405
1.088,-0.8058878865071991,5897.420450034233
1.092,-0.8085412861802106,5903.669000485701
1.096,-0.7414630933786759,5890.670695041275
1.1,-0.6386344155251512,5907.502112467333
1.104,-0.5302260519491359,5900.253057665383
1.108,-0.4300267900329753,5901.627762588178
1.112,-0.3302914394801189,5890.652324007545
1.116,-0.20702297356539415,5910.277835630037
1.12,-0.03413467745258119,5898.047656713956
1.124,0.20007564274665596,5902.352715673207
1.128,0.48262603070534443,5902.874275562033
1.132,0.7770191146132516,5896.5152090504735
1.136,1.0349226478904037,5904.801513890635
1.14,1.2124799996167384,5888.959601700768
1.144,1.2845039320452136,5903.929242067554
1.148,1.252178690571537,5895.495461735118
1.152,1.1427058828250807,5899.127332222351
1.156,1.0011387162701073,5890.872592487847
1.16,0.8764948426665177,5901.894394284923
1.164,0.806630441019011,5894.55597997008
1.168,0.8072943709295072,5892.303645916488
1.172,0.8687602784110187,5901.652424498834
1.176,0.9599674533811413,5895.943984310489
1.18,1.037573024304118,5895.060688724238
1.184,1.0566652860307184,5896.717894878822
1.188,0.9808001921821996,5901.803085187757
1.192,0.7903868164879079,5888.038279411368
1.196,0.48887939623831933,5904.651515540489
1.2,0.1054636129295849,5901.157096058338
1.204,-0.30781386162156676,5902.128748981836
1.208,-0.6857977411954796,5904.667056880939
1.212,-0.9656050612452243,5899.388462112831
1.216,-1.1030442289237503,5901.807722489353
1.22,-1.0837067899231112,5903.136309478652
1.224,-0.9241314547798669,5903.972534777782
1.228,-0.6632709478540426,5901.886029650236
1.232,-0.34933797352167073,5904.325669314148
1.236,-0.028624587533510822,5893.326677927629
1.24,0.25994199204973967,5898.823293574476
1.244,0.48558280189769737,5891.736869097014
1.248,0.62576646479109,5897.058130175312
1.252,0.6686241144665449,5900.887789530754
1.256,0.6173497030933449,5907.848520020355
1.26,0.4934014178899826,5900.811940307071
1.264,0.33484564596894173,5894.856251752812
1.268,0.18855437876000977,5898.743959827092
1.272,0.09865554108089788,5898.472966782598
1.276,0.09561460351220599,5891.838390572906
1.28,0.1891900938972045,5898.891258336465
1.284,0.36619889076468526,5895.991468263495
1.288,0.5930939234683381,5895.311562437584
1.292,0.8237155522783206,5895.267529468567
1.296,1.011890393359142,5896.386850730378
1.3,1.1255897025957007,5908.339370797668
1.304,1.1565618184708355,5890.93213161849
1.308,1.1204450742598717,5898.997586543565
1.312,1.0474314238515836,5892.936000337311
1.316,0.9686996090392047,5894.575084622348
1.32,0.9054659384393398,5892.934893982982
1.324,0.8650483913073244,5908.06768624996
1.328,0.843845902442218,5901.211574049163
1.332,0.8335813696776007,5903.905373572447
1.336,0.8265986930265963,5894.612515086672
1.34,0.8182000279424274,5903.185444587364
1.344,0.8066258009045975,5904.617436716787
1.348,0.7921537568402651,5905.610924501801
1.352,0.7762362665504466,5896.875913691719
1.356,0.7612534558461443,5905.433441549279
1.36,0.7512750582346162,5904.879009599246
1.364,0.7530047759791004,5903.738989259235
1.368,0.7746608669845673,5907.312928738745
1.372,0.8212363633555756,5905.092414462318
1.376,0.8875255813497567,5894.367824940535
1.38,0.9529580344687689,5904.575756676901
1.384,0.9823528791466947,5904.654909097635
1.388,0.9339972391722129,5896.928197079018
1.392,0.7725331217044902,5901.03970003939
1.396,0.481353811000014,5888.189722141939
1.4,0.06936352401821475,5900.90214594976
1.404,-0.43002410430621857,5894.280002769941
1.408,-0.9661213677278518,5899.666114161953
1.412,-1.4812709310996401,5908.850314833714
1.416,-1.9217160352940519,5903.984587282892
1.42,-2.2473936457816253,5906.703356055055
1.424,-2.438820124985208,5905.274196008175
1.428,-2.499120738244409,5895.625418079485
1.432,-2.450480103441447,5896.999193250045
1.436,-2.326410587153141,5904.27615064828
1.44,-2.1627491839490394,5908.924674372424
1.444,-1.9901002872568692,5897.731792880495
1.448,-1.828839784916528,5900.490681127153
1.452,-1.6864064344884544,5901.687716527188
1.456,-1.5566255818986061,5895.778854573868
1.46,-1.4215447294471546,5901.927049923607
1.464,-1.2562911602791387,5895.622760744129
1.468,-1.036597360360083,5904.8630992526605
1.472,-0.7476369953668068,5893.997201524384
1.476,-0.3920110061870139,5896.1079451163805
1.48,0.005804873522597023,5902.420305179961
1.484,0.40095681284525553,5899.147214549587
1.488,0.7365185765400167,5888.648122700441
1.492,0.9570733780565284,5897.945189604749
1.496,1.0237836740318433,5904.394909586966
1.5,0.9260743644362687,5891.026332123375
1.504,0.6858391367363378,5898.580130695833
1.508,0.3526526565148867,5900.467843891318
1.512,-0.008384778466382324,5906.644887505495
1.516,-0.33232306264148676,5901.625357372153
1.52,-0.5688812984652949,5900.189370991017
1.524,-0.6917120036464671,5906.764036837035
1.528,-0.7006350015046481,5901.39690094511
1.532,-0.6181555130738585,5895.097947553107
1.536,-0.4828524462626442,5895.143727980241
1.54,-0.3408630389189578,5902.841799119561
1.544,-0.23525034343151652,5899.012936532592
1.548,-0.1941482007738059,5897.921338656001
1.552,-0.22139609423432377,5901.872361368617
1.556,-0.2943172406612459,5902.749121157777
1.56,-0.3703799147730776,5905.238326741585
1.564,-0.40013917383637565,5899.1250771249
1.568,-0.34183605128433225,5898.3415735342205
1.572,-0.1737307651267264,5898.944933546094
1.576,0.09850815191206562,5905.982627322702
1.58,0.44110570252666076,5894.438568614615
1.584,0.7985871085742424,5894.436820485115
1.588,1.105986311353175,5903.846647517373
1.592,1.3041900863901223,5902.105769524217
1.596,1.354784699974234,5900.094470496859
1.6,1.2500893619758195,5903.302384316489
1.604,1.0145453497570407,5895.078820496132
1.608,0.6962915931845043,5892.207272484515
1.612,0.3519675871563964,5900.78518925276
1.616,0.031030703563809617,5902.910118690187
1.62,-0.23434244289582595,5890.777671017252
1.624,-0.43131049302892477,5906.211231833463
1.628,-0.562021209022434,5899.6506116916
1.632,-0.6364307264953167,5899.402060880276
1.636,-0.6656469062907887,5895.783231092712
1.64,-0.6581561272740203,5904.75948005457
1.644,-0.6198361576644057,5888.973207185061
1.648,-0.5567131148323395,5902.49241266057
1.652,-0.4778994292339751,5902.624467835495
1.656,-0.3961630867044516,5900.733682450763
1.66,-0.3251874391602413,5892.852615672229
1.664,-0.2747452500300616,5904.340690164396
1.668,-0.24647162800601669,5912.031568615477
1.672,-0.23298017356477704,5897.922456607891
1.676,-0.22155825006783098,5898.963899440726
1.68,-0.2010655642810886,5893.060305863922
1.684,-0.16847575275616367,5895.954358688351
1.688,-0.13135084798292046,5905.087436005192
1.692,-0.10459898786651083,5903.35209591818
1.696,-0.10313346676446997,5890.211057150821
1.7,-0.13491632320941094,5900.445478075207
1.704,-0.19913112110049147,5903.844560448075
1.708,-0.2908077210848718,5892.353179534352
1.712,-0.40829711071296826,5899.092559587367
1.716,-0.5575482428751761,5895.390596672264
1.72,-0.7491565556964879,5898.412688314414
1.724,-0.9891676215644712,5905.481925695878
1.728,-1.269271814605537,5902.107757971685
1.732,-1.5632069607501002,5901.267556379811
1.736,-1.832722804871716,5892.730806476004
1.74,-2.0403017561751318,5899.823861773881
1.744,-2.16134494913809,5901.391376034055
1.748,-2.1890569746999056,5902.190057460883
1.752,-2.1300324416172978,5904.115967238545
1.756,-1.99395640637426,5896.975962381803
1.76,-1.783951851457812,5908.315521489328
1.764,-1.4938342752347435,5901.671530698375
1.768,-1.115002135254919,5897.643001634714
1.772,-0.6503904828829283,5900.010878277111
1.776,-0.12833295323321983,5906.414634413296
1.78,0.3922750481140528,5900.976720821814
1.784,0.8308380269632445,5896.3239818480415
1.788,1.1060722155219789,5897.413727052163
1.792,1.1605534732616856,5898.696195702283
1.796,0.9786037930653937,5897.494521698248
1.8,0.5911977269428035,5904.389320128
1.804,0.06738461978299945,5897.307840357783
1.808,-0.5035565646384488,5898.484454540091
1.812,-1.0324680083855158,5899.738998306008
1.816,-1.446684776641813,5904.358925070298
1.82,-1.6989947456344794,5904.595692116227
1.824,-1.7695264421743906,5890.95843046667
