时间(s),电压(V),幅值(高频80K)
0.0,1.0797377030904625,5901.740848854704
0.004,-0.0038888339255482196,5901.913060313178
0.008,-0.9578289233188022,5903.625994964571
0.012,-1.6786280347190694,5900.084259480625
0.016,-2.106592980859689,5896.771463859201
0.02,-2.231605286827028,5909.298505295595
0.024,-2.0858282520394535,5902.257849571217
0.028,-1.7286054172682077,5896.098453382474
0.032,-1.2317288686774852,5897.995598053917
0.036,-0.6706395316354666,5894.329236653722
0.04,-0.12073457962562192,5909.437772943051
0.044,0.34663883307143545,5906.5451955986855
0.048,0.6726138869589797,5899.0474223224455
0.052,0.8221210169122664,5900.647924353623
0.056,0.7920744452053974,5899.951256365115
0.06,0.6109515176702173,5903.107649768691
0.064,0.3289236756983342,5889.8259252959415
0.068,0.002607157515467198,5899.038506593892
0.072,-0.3192640600408556,5896.139103483311
0.076,-0.603767673088006,5905.188406273033
0.08,-0.8328140259376421,5907.259281661538
0.084,-0.9951050208750571,5906.289801222909
0.088,-1.0772604765977296,5899.500280124091
0.092,-1.0616653044931599,5907.980273002583
0.096,-0.9343833841057871,5901.953882576908
0.1,-0.6988741078357973,5893.261654792014
0.104,-0.3862908581101493,5901.2147200552
0.108,-0.05482872276019315,5902.60486442985
0.112,0.2229920369371405,5899.586675854824
0.116,0.38022325220515674,5894.468608319139
0.12,0.37544252589170346,5894.925312874256
0.124,0.20657710637120366,5895.260971893395
0.128,-0.0857278619496236,5895.988676521372
0.132,-0.42728399282779095,5898.409115341143
0.136,-0.730509648645206,5900.446487491799
0.14,-0.9194321096887182,5890.847055889051
0.144,-0.9508554178872106,5905.8798751088825
0.148,-0.8245192682206813,5901.754313824533
0.152,-0.5795221274564867,5898.318880790303
0.156,-0.2792212037307782,5903.609750268467
0.16,0.009211334284784205,5898.11034640654
0.164,0.23276845538052135,5899.173560101504
0.168,0.36236545986562463,5901.019592241161
0.172,0.3932869030912869,5898.87510527592
0.176,0.33937630090419396,5905.6703501043285
0.18,0.22545367097248312,5898.784027495661
0.184,0.08096352445532565,5905.211339040848
0.188,-0.06515781319010247,5899.31475864286
0.192,-0.19000378194014864,5904.31798719847
0.196,-0.28248566908204553,5902.952490399285
0.2,-0.3464104789204897,5899.412565605702
0.204,-0.3977502224398771,5899.6816914137735
0.208,-0.456293805068287,5898.143899300285
0.212,-0.5357247042177636,5898.706296580205
0.216,-0.6373295533813133,5893.846249771509
0.22,-0.7500747981072617,5906.550501193763
0.224,-0.8558164033871829,5901.576891163037
0.228,-0.9361608336523878,5894.188888993234
0.232,-0.9782261819252687,5899.662910494414
0.236,-0.9786288985309778,5896.770867454397
0.24,-0.9459591459444288,5906.8648407663095
0.244,-0.9012112488624554,5897.669791664434
0.248,-0.8748599077907567,5896.564791304887
0.252,-0.9000940257001896,5901.846114299374
0.256,-1.0034154123893742,5900.5882598284425
0.26,-1.194720257966594,5899.774007203647
0.264,-1.4590418322320358,5902.16341108114
0.268,-1.752467473470569,5904.126046699911
0.272,-2.0052243092367634,5905.10554782833
0.276,-2.13399874620704,5897.457113603713
0.28,-2.0625878638381234,5896.364088160131
0.284,-1.7461580695895693,5901.104417329976
0.288,-1.1912838210099244,5907.298179137899
0.292,-0.4631005261911514,5905.7709131909205
0.296,0.325820405565862,5896.598844563731
0.3,1.0428322458218422,5892.168642341753
0.304,1.5691835175325353,5903.877053922071
0.308,1.8285346160886238,5899.829248790402
0.312,1.8018482595460912,5901.1805072357065
0.316,1.526939435257663,5895.15296653262
0.32,1.0855958523021176,5903.928241719164
0.324,0.5827793684641422,5893.132788852354
0.328,0.1227409654794993,5896.973159182097
0.332,-0.212631226206845,5898.0769654144015
0.336,-0.3781669950324438,5896.143889533443
0.34,-0.36983484145319134,5898.937988246042
0.344,-0.2203149713838337,5901.965227368378
0.348,0.01087442485978504,5899.94100865558
0.352,0.24976140136862446,5900.446038700316
0.356,0.4215524169150528,5897.427139547884
0.36,0.4647665319471616,5898.538408861269
0.364,0.344182347405138,5894.610294624157
0.368,0.05983355492319607,5900.660630794306
0.372,-0.35102137123560406,5897.182796161968
0.376,-0.8210353211222722,5890.995541293712
0.38,-1.268172812473773,5905.365737498564
0.384,-1.6147404161236607,5896.899498212014
0.388,-1.8038280929323012,5903.513712742983
0.392,-1.8090799938490556,5901.991710140317
0.396,-1.637183571841238,5892.4499371170805
0.4,-1.3241646512286422,5903.879081349415
0.404,-0.926752638151675,5906.171315638028
0.408,-0.5108240655397421,5901.43459742746
0.412,-0.1400054443315156,5898.561296980228
0.416,0.13309494847703077,5900.060243837306
0.42,0.27284011723479235,5901.9147235688015
0.424,0.26507458782174165,5902.184787836303
0.428,0.12060222801785943,5903.091330714442
0.432,-0.12442873964608421,5888.512813650163
0.436,-0.414031432120373,5903.209866112662
0.44,-0.6838115448086921,5893.721202909458
0.444,-0.8747154634886717,5900.953989821455
0.448,-0.9447882556304478,5897.476201856149
0.452,-0.8767086716562642,5887.83894397223
0.456,-0.6806507352514405,5891.155898413911
0.46,-0.3923559422978792,5899.260045982941
0.464,-0.06632543386121591,5902.251518970417
0.468,0.23542510582318257,5898.508665629995
0.472,0.45736787764025005,5895.61510443398
0.476,0.5637128137651807,5900.722256757377
0.48,0.5463420735734175,5907.669481964351
0.484,0.4243402308849631,5906.03503886254
0.488,0.23568735033888666,5893.938752052117
0.492,0.025103519853525436,5894.924728177609
0.496,-0.16693348726793417,5896.821706558702
0.5,-0.31074679469498356,5904.834081674287
0.504,-0.389542061378074,5899.8543851175245
0.508,-0.3991451695144444,5889.896892640394
0.512,-0.3471412400290827,5903.944053711589
0.516,-0.2513496435722124,5892.614380156348
0.52,-0.1368335092086949,5894.585358162903
0.524,-0.03145000955881233,5901.7383971810095
0.528,0.0393686950538375,5901.7190955430215
0.532,0.05808084759730637,5902.021822828333
0.536,0.02017335700111347,5905.363145347323
0.54,-0.062477677487676006,5899.131197307181
0.544,-0.16216225332514808,5901.886276613875
0.548,-0.2413494492066723,5899.9814006308825
0.552,-0.26391573341565405,5899.708830905118
0.556,-0.2088281241280621,5896.310607348879
0.56,-0.08097681183982304,5905.506743145399
0.5640000000000001,0.08658727016405407,5898.784734083074
0.5680000000000001,0.24129247781463015,5896.226889259593
0.5720000000000001,0.3274104702157474,5899.228958426103
0.5760000000000001,0.3037207583408574,5902.04679579765
0.58,0.1565111836744823,5895.004295193179
0.584,-0.09555336914696953,5893.023883240502
0.588,-0.40548160713274645,5900.870007814843
0.592,-0.7095032718365407,5895.002429115834
0.596,-0.9430895404073093,5900.397783972177
0.6,-1.0573861013909336,5907.337856440412
0.604,-1.0315207278186034,5897.220863300438
0.608,-0.8768852524735283,5907.530585768819
0.612,-0.631965052940587,5898.399330317017
0.616,-0.3500174954200644,5897.260597551311
0.62,-0.08469063116222827,5898.201301206143
0.624,0.1212615277180301,5904.115268233016
0.628,0.24132863941250862,5896.931421743848
0.632,0.26489297014890584,5901.038687898192
0.636,0.19375467118127587,5901.970044371313
0.64,0.0387513907414853,5897.063109545833
0.644,-0.18151651225913049,5899.82212376477
0.648,-0.44002433678802694,5902.099140364022
0.652,-0.7006711395149493,5898.209002770988
0.656,-0.9199041644912533,5903.251230949715
0.66,-1.0518015975410975,5898.671902523819
0.664,-1.056294577483342,5902.0508474581775
0.668,-0.9089879244031448,5902.552206229752
0.672,-0.6100462646623571,5902.03589326759
0.676,-0.18890357792405746,5901.248314940713
0.68,0.29804644735056246,5904.760879357893
0.684,0.7772740279147686,5888.854623911237
0.6880000000000001,1.1725141013791331,5895.569779272885
0.6920000000000001,1.418927404293291,5911.491858883529
0.6960000000000001,1.4735253980755618,5903.390709059065
0.7000000000000001,1.3214079419923874,5900.582835391267
0.704,0.9790010694284004,5897.442755957529
0.708,0.4942497289891055,5899.659830695773
0.712,-0.058527763703573765,5905.705450885472
0.716,-0.591361352855914,5906.74594176581
0.72,-1.021692499079634,5903.386142561061
0.724,-1.292095746580533,5900.2163425477565
0.728,-1.3831892085882727,5897.593646687198
0.732,-1.3147137235619664,5892.068480762779
0.736,-1.1348764253226866,5901.796887543664
0.74,-0.9028561583323398,5891.2715069820015
0.744,-0.6717027111746973,5900.331598811892
0.748,-0.4779137566681764,5896.726077967658
0.752,-0.34003920639293345,5893.333524844841
0.756,-0.26370023542381166,5901.203808640482
0.76,-0.24770385636509087,5895.376655046818
0.764,-0.28726148316905376,5897.894423453799
0.768,-0.3738098122759689,5901.717416221456
0.772,-0.4933671971681151,5889.164001973597
0.776,-0.6257115339957129,5893.786912098592
0.78,-0.7457844365839993,5898.176740835641
0.784,-0.8273320383812534,5894.37714403479
0.788,-0.8474995692072764,5897.542742277229
0.792,-0.7907605415399394,5902.8687287790335
0.796,-0.6514187225277167,5894.571430150976
0.8,-0.4350131230038208,5896.632199431078
0.804,-0.15893982936082168,5899.122073955487
0.808,0.14844883519397958,5894.0145566791325
0.812,0.45136564816818053,5893.661187139888
0.8160000000000001,0.7126415470687092,5896.943771680626
0.8200000000000001,0.9007571321306586,5897.313609265132
0.8240000000000001,0.9957878486060603,5891.483312951161
0.8280000000000001,0.9925497066751117,5900.810599305195
0.8320000000000001,0.9001313827028741,5896.36209545872
0.836,0.7383270128256357,5899.331772651643
0.84,0.5327398419000863,5896.446329246147
0.844,0.31060925557595687,5903.893004585167
0.848,0.09810826705440369,5889.643264297191
0.852,-0.08226554189328329,5899.900174677079
0.856,-0.21624984794165925,5893.002351101736
0.86,-0.30412201668359656,5900.353832562008
0.864,-0.365101632125532,5895.70200140134
0.868,-0.4350898048406728,5893.88577996979
0.872,-0.5556465587156683,5895.844226092404
0.876,-0.7567995496659934,5903.200816530507
0.88,-1.0403374057539063,5899.403260123205
0.884,-1.371668659487037,5901.272670585381
0.888,-1.6858450288478035,5901.261950421502
0.892,-1.9072734929936421,5904.561047953339
0.896,-1.9757705000343662,5893.0184812033285
0.9,-1.867996441252804,5898.579282374021
0.904,-1.6053257920406019,5894.804440004481
0.908,-1.2454647143230355,5894.657699430782
0.912,-0.8618358739541766,5899.354218713309
0.916,-0.5191310461958416,5896.245006165318
0.92,-0.2546883664992387,5903.392265662784
0.924,-0.07303033271522173,5898.500814899455
0.928,0.04511949868002403,5893.691795747798
0.932,0.125314034903025,5896.137690497444
0.936,0.18333029388602315,5896.132167334467
0.94,0.2187132657706543,5904.215701462512
0.944,0.22001724074695986,5905.111094900946
0.948,0.17756078482151005,5900.946437729305
0.952,0.09613443775624171,5900.182343435511
0.956,0.0006018073314513502,5901.416966558263
0.96,-0.06898112007588467,5899.096363194462
0.964,-0.07075206995893048,5903.329981411994
0.968,0.023427658574990233,5905.194305268996
0.972,0.21734020785701064,5897.268530470236
0.976,0.4886410706106152,5900.184738346276
0.98,0.7957792583443204,5901.551254070616
0.984,1.0905230558698997,5896.820502374336
0.988,1.3317260843446974,5893.743231878211
0.992,1.495991001995687,5913.747577095478
0.996,1.582011501964439,5899.544501956063
1.0,1.6073684969471038,5894.076967212409
1.004,1.5989753973616254,5900.650110576428
1.008,1.5805361880129174,5898.987258648772
1.012,1.561671538386928,5897.285788357674
1.016,1.5333106305919275,5897.93555426322
1.02,1.4719444449996333,5897.685608365183
1.024,1.3513965364767482,5894.496750290483
1.028,1.1567645737369177,5892.853268174294
1.032,0.8938199569448364,5892.190696906504
1.036,0.5893595928728186,5902.790429713051
1.04,0.28241524051928707,5899.247546841701
1.044,0.010572009841283375,5905.32861763857
1.048,-0.20215861267734916,5895.955912401899
1.052,-0.3505613522522044,5898.86290600449
1.056,-0.44502985823357444,5902.834022686473
1.06,-0.50289407430335,5905.491536907036
1.064,-0.53952850737537,5894.262309780989
1.068,-0.5635033684129984,5896.274381116228
1.072,-0.5769092785984369,5901.188736918702
1.076,-0.5790569241552922,5900.197492524466
1.08,-0.570548797992868,5892.873994608139
1.084,-0.5554694001273762,5901.018218669728
1.088,-0.5413099580645896,5903.466777392919
1.092,-0.5377878454602457,5903.9249752641
1.096,-0.5557359369249238,5915.728669793884
1.1,-0.605821455591589,5897.6666971761
1.104,-0.6956741927334791,5897.91954807784
1.108,-0.8246606367590121,5901.810531743839
1.112,-0.9777552552723867,5908.729912762264
1.116,-1.1221001505783323,5895.7605694649965
1.12,-1.2103761553473862,5891.15279404192
1.124,-1.193042006604583,5897.434959616012
1.128,-1.0370030284458656,5898.835713622558
1.132,-0.7435667628028767,5901.301013259168
1.136,-0.3568113041873749,5895.189641094775
1.14,0.04363676546667518,5905.1741130203245
1.144,0.36490729180357884,5900.020494147676
1.148,0.5306031937321747,5898.630395565287
1.152,0.5061994800753359,5902.940972374234
1.156,0.3098249633849969,5899.931146611785
1.16,0.004456131190903181,5903.302999434633
1.164,-0.3243001662833972,5899.943805173201
1.168,-0.5947753148652137,5896.184702407755
1.172,-0.7496396236085461,5893.988868665084
1.176,-0.7645768276450177,5896.331342023598
1.18,-0.6464123428439897,5892.812683853976
1.184,-0.42574748130187445,5897.207740271258
1.188,-0.1483743697248593,5900.143978901319
1.192,0.13330679163711392,5896.682029086122
1.196,0.3694229811580808,5905.281333862122
1.2,0.5221571161202143,5908.42467525988
1.204,0.5735607894690277,5899.009174154146
1.208,0.5285157475406759,5900.546295218187
1.212,0.41124287928171255,5893.730595201307
1.216,0.2571070718245988,5892.127680384106
1.22,0.10360892651757374,5907.897565132716
1.224,-0.016380992712963678,5908.5300952379175
1.228,-0.07840722282418838,5909.600463762541
1.232,-0.06811736697901348,5898.771008985265
1.236,0.017809569967807592,5891.526293947952
1.24,0.17070389153251933,5903.333593284214
1.244,0.3696310403794215,5899.428562664855
1.248,0.5837737968472919,5881.505877492594
1.252,0.7785686687266926,5903.919022479333
1.256,0.9239792791311213,5899.136101976803
1.26,1.0013979296658322,5897.258739891363
1.264,1.006285476520408,5896.161546007256
1.268,0.9458816645848065,5910.365378553095
1.272,0.833650779852752,5897.218950209523
1.276,0.6837683762425527,5901.241347655996
1.28,0.5089215215876406,5899.723188558932
1.284,0.3222884335710899,5896.905311418435
1.288,0.1412226693075044,5901.64782269321
1.292,-0.011174928905599525,5911.344565297685
1.296,-0.10866872061044178,5904.381400929394
1.3,-0.12791172312646618,5896.068294029548
1.304,-0.0553674118739937,5894.925480021047
1.308,0.10772184197752,5904.78484764524
1.312,0.3443779228672128,5893.847893061961
1.316,0.6250891256263306,5902.982355585741
1.32,0.9132014173069841,5904.467246055006
1.324,1.1697299758316089,5905.106805546193
1.328,1.3559792367347867,5893.682453340223
1.332,1.4348728063702405,5890.347465185597
1.336,1.3740362116638045,5894.172688269819
1.34,1.15313668201237,5897.935379689597
1.344,0.7741604127179926,5892.339518626318
1.348,0.2690555210572613,5896.778362321944
1.352,-0.301304705679818,5890.295901949095
1.356,-0.8584363011507469,5892.953227382427
1.36,-1.3235735864851244,5893.66305466591
1.364,-1.6340722556696343,5902.937426370198
1.368,-1.7535569870983543,5894.907927867957
1.372,-1.6740658080167747,5899.519739012602
1.376,-1.4118526121017139,5898.066923758401
1.38,-1.0009004948018823,5906.60546954591
1.384,-0.48839359561122975,5898.072833860877
1.388,0.06648658134776067,5896.209346523625
1.392,0.5932294453163967,5896.1273847636985
1.396,1.014782627393505,5898.556730212265
1.4,1.2590427777673263,5890.9646771480375
1.404,1.2753312744393095,5889.134476465721
1.408,1.0504915661471654,5899.574185780719
1.412,0.6179191950144421,5887.470063686412
1.416,0.0543503342568127,5900.40599118796
1.42,-0.5363503145152221,5907.111241915844
1.424,-1.0474146658684111,5897.539145907503
1.428,-1.39280251593949,5899.585798996854
1.432,-1.5226384594234088,5897.101640905924
1.436,-1.4275961984580563,5900.503856392931
1.44,-1.1344499729776316,5900.461288640235
1.444,-0.6972775964005092,5893.924358005733
1.448,-0.18770569765690961,5902.01139850105
1.452,0.3147466165121854,5902.807218614729
1.456,0.7324953791294017,5911.613737503198
1.46,1.0001327256536752,5892.083016273386
1.464,1.0746246884009112,5910.4971406146
1.468,0.9439100281546139,5889.55150591165
1.472,0.6311327023159956,5899.066713793442
1.476,0.19148864522093648,5890.635023760428
1.48,-0.29947911452660814,5898.848790637547
1.484,-0.7636781008594602,5897.380856475342
1.488,-1.1387814195920436,5897.087739274503
1.492,-1.3912168527901003,5891.729152804403
1.496,-1.5204932755216785,5902.583644239207
1.5,-1.5546365669175966,5898.692768605405
1.504,-1.5387578381265825,5899.683626144126
1.508,-1.520432202014528,5901.254220273515
1.512,-1.5365454770489764,5897.065558402192
1.516,-1.6053376493727973,5899.471438244265
1.52,-1.7244744870669182,5906.296632954432
1.524,-1.8733011701830427,5893.649898978877
1.528,-2.017050118583849,5900.200626181572
1.532,-2.1124129458221668,5894.241331608146
1.536,-2.115325242888303,5895.887388047139
1.54,-1.991005260806642,5900.149937160362
1.544,-1.7237262424315734,5892.581092030707
1.548,-1.3225313593653314,5906.184865395975
1.552,-0.8208681059545581,5905.245336350727
1.556,-0.2709100284774743,5893.947313146041
1.56,0.2653746625643935,5893.782315524142
1.564,0.726471205477275,5893.813626072998
1.568,1.0615041988369804,5899.84478527194
1.572,1.2395701583491168,5904.718445251745
1.576,1.2572037195304815,5903.341033086653
1.58,1.1415602115519035,5896.500707038757
1.584,0.9462376830144396,5903.302185231181
1.588,0.7388394117268989,5903.795063319314
1.592,0.5832887091503489,5901.5444626076105
1.596,0.5224581049233562,5890.435649743808
1.6,0.5663735720107411,5891.387958645573
1.604,0.689014381053637,5894.429749435
1.608,0.8343046412123745,5888.452090135775
1.612,0.9302623491499845,5895.318930363404
1.616,0.9088773917851972,5902.973690672615
1.62,0.7272218534565998,5898.937173289152
1.624,0.38327730512523983,5899.6816324986685
1.628,-0.07993412620395798,5902.149938929228
1.632,-0.5849030802455811,5890.962183703993
1.636,-1.0421479469463673,5905.090777284611
1.64,-1.3768117353402094,5906.495542019683
1.644,-1.549785311902114,5894.939426804889
1.648,-1.5665421542797544,5903.264651735889
1.652,-1.4721427655431671,5893.238594230533
1.656,-1.3355691624128807,5903.617996610461
1.66,-1.2288966647688446,5891.096908636313
1.664,-1.2070102484834198,5897.582402061244
1.668,-1.2927002548496431,5902.354969901306
1.672,-1.4708285886725916,5901.042909454521
1.676,-1.6936029973831848,5905.53444494316
1.68,-1.8960049487973887,5896.259632773634
1.684,-2.016604584741192,5894.495664605866
1.688,-2.016599609591279,5901.924791130251
1.692,-1.8906051362330294,5903.539197149668
1.696,-1.6660569544372643,5903.0207993325175
1.7,-1.3923164816048992,5890.175584994003
1.704,-1.1240569660624309,5893.598565919397
1.708,-0.9053073919717386,5906.182560473874
1.712,-0.7599580540472247,5896.539965478725
1.716,-0.6913976595944005,5900.411436041741
1.72,-0.6895931706031794,5901.228466480741
1.724,-0.7407449493858727,5908.663788269012
1.728,-0.834079453478344,5900.633472683156
1.732,-0.962323389858306,5898.074389672538
1.736,-1.1162112217135256,5893.435057936177
1.74,-1.2772192565000051,5904.529753752586
1.744,-1.4138768567032016,5896.683161740298
1.748,-1.4846110911339179,5905.057632996281
1.752,-1.4465634594982435,5895.7517365109925
1.756,-1.2677038539533931,5894.505055612831
1.76,-0.9385652260808852,5907.009278713633
1.764,-0.4791227369863696,5899.515291228491
1.768,0.06311889756690209,5897.5773633288245
1.772,0.6247039915750393,5904.931457200718
1.776,1.1441266587647188,5895.377844959772
1.78,1.5798087648805363,5903.8303757628255
1.784,1.9213922485706487,5893.169076926902
1.788,2.189378852528,5904.319587893846
1.792,2.422177839740079,5887.320867887384
1.796,2.654925109012369,5894.402869549182
1.8,2.898517171849127,5899.526291931107
1.804,3.1279134129460058,5896.618353329346
1.808,3.2855056249862944,5886.88618884295
1.812,3.299392466576317,5892.467400277485
1.816,3.1100352786968,5901.321634275681
1.82,2.694986359640764,5888.573094672022
