时间(s),电压(V),幅值(高频80K)
0.0,1.1392018093797598,5895.158080280421
0.004,0.5995402614169284,5898.932871590683
0.008,0.1925571931510064,5898.623970988663
0.012,0.019548628529980187,5903.786073819073
0.016,0.12295918201169499,5888.661868621418
0.02,0.4773927655177995,5894.678024395085
0.024,0.9989155826478255,5902.486105545753
0.028,1.5685481924905873,5903.470284741692
0.032,2.061432932394532,5899.29567266524
0.036,2.3731795287448336,5900.861310987866
0.04,2.438007890374908,5892.80418348533
0.044,2.236866945557083,5894.942103192134
0.048,1.796101319261602,5900.661521635712
0.052,1.1786212300021,5897.199820813669
0.056,0.4705552832735759,5905.0043851356295
0.06,-0.23331184223770707,5896.4340460445965
0.064,-0.8429093767772806,5904.61610750954
0.068,-1.2841821324153633,5902.868984621358
0.072,-1.5085131551074602,5903.236789258809
0.076,-1.5000915359416864,5900.481348648262
0.08,-1.2791233122545826,5896.267121454061
0.084,-0.897522336582473,5911.575437318499
0.088,-0.42613230236762245,5906.635717405633
0.092,0.06232442498951509,5900.774352834586
0.096,0.5074654018979318,5901.685661912602
0.1,0.8678113961577196,5894.267226719303
0.104,1.1199388388076954,5904.839026462341
0.108,1.2540326020660928,5901.664235157909
0.112,1.2699389248607944,5888.961599977524
0.116,1.1756940310498818,5901.184684425121
0.12,0.9877153465741304,5905.165563643041
0.124,0.7301810486888908,5890.749478180443
0.128,0.4315853345654277,5904.011452119791
0.132,0.11863094633084861,5908.150256299826
0.136,-0.18967030945697635,5900.081751507909
0.14,-0.4832754780520201,5900.697566618797
0.144,-0.7552653062877518,5898.333704773489
0.148,-0.9920363490416776,5892.360747401065
0.152,-1.16763276728361,5900.354551481471
0.156,-1.2488342328273818,5898.50361929288
0.16,-1.2099183373247184,5896.416553873837
0.164,-1.0487092747517084,5912.692987885624
0.168,-0.7943713903512941,5901.699564266197
0.172,-0.5022280821260867,5906.344268888829
0.176,-0.2374640664568126,5900.942463469705
0.18,-0.0541312738881826,5903.038684884538
0.184,0.022673171793326462,5905.471872815309
0.188,0.004689313619307468,5905.803183632347
0.192,-0.0649288886741073,5903.419117899707
0.196,-0.12822444292851315,5901.966495014286
0.2,-0.13284706248254624,5892.991734643785
0.204,-0.04768144453819653,5906.724487026359
0.208,0.13082893736063206,5901.35421953554
0.212,0.380656974643213,5889.367256282223
0.216,0.6610925662528911,5895.505284248395
0.22,0.9222524327948469,5904.927713328011
0.224,1.1160973525558442,5907.897635165898
0.228,1.2072203570155515,5898.236953152968
0.232,1.180394043566718,5896.763925842965
0.236,1.0422314547583502,5898.102800100039
0.24,0.816875371893855,5907.219755889956
0.244,0.5385802831958157,5910.190935287992
0.248,0.245092345162608,5894.527956856587
0.252,-0.02586562543844694,5905.016732380862
0.256,-0.23780244682854443,5899.465523113563
0.26,-0.3575083215967456,5902.243741622808
0.264,-0.36060350692410564,5889.861976938137
0.268,-0.239969895804875,5899.853851070607
0.272,-0.012858121962898995,5900.535962255346
0.276,0.2787941829634146,5908.16436393877
0.28,0.5779439138139644,5905.316859194515
0.284,0.8296707365722622,5905.50024699704
0.288,0.9986587565160309,5896.27319117579
0.292,1.0786783249024767,5896.974069884784
0.296,1.089865286213137,5895.88648539786
0.3,1.0654389263159285,5897.27306147032
0.304,1.0340867838112353,5899.346033207306
0.308,1.0061107166837024,5901.913627784725
0.312,0.9697843999878407,5912.7044005048365
0.316,0.8994846286918616,5900.0098518575405
0.32,0.771031979564094,5904.366258132402
0.324,0.5755893013572427,5900.571709360862
0.328,0.3244736669498463,5900.8622130713065
0.332,0.04318242263889492,5900.721287014696
0.336,-0.24051723749019713,5911.284124319802
0.34,-0.5067708926579803,5906.348149691691
0.344,-0.7462919921675039,5899.896899190738
0.348,-0.955056484381599,5902.325668663288
0.352,-1.1266838451929455,5896.72299932171
0.356,-1.2501409589866548,5896.3340865990895
0.36,-1.315682384880759,5901.348261189094
0.364,-1.3244323070114365,5912.034877417782
0.368,-1.2936438478726355,5904.439485154933
0.372,-1.2529692487423154,5897.910284557232
0.376,-1.2334299416278933,5902.207626441218
0.38,-1.2549816151697226,5903.692380893275
0.384,-1.318412139609049,5906.873385827781
0.388,-1.4043241143512237,5898.932022314749
0.392,-1.4789821412745483,5901.294744775917
0.396,-1.5051091332725763,5898.675954838767
0.4,-1.4546019234484702,5898.087856214109
0.404,-1.3192213016219612,5904.8508323387405
0.408,-1.1155303500635165,5902.631379371518
0.412,-0.8821691117135345,5897.016284131977
0.416,-0.6700334924205433,5898.332186153359
0.42,-0.5279964348511397,5907.797239398848
0.424,-0.48801137305363446,5900.477157751847
0.428,-0.5536489168019407,5898.996449923808
0.432,-0.6953769835724438,5891.864230402285
0.436,-0.8544615203083644,5911.340629430401
0.44,-0.9555783835373048,5901.797160267331
0.444,-0.9261170473943682,5900.902542189903
0.448,-0.7177048200651972,5904.731366335123
0.452,-0.3235380845597961,5910.153536454632
0.456,0.21480573977279166,5897.250226881628
0.46,0.8145375754961178,5893.103521581833
0.464,1.3714293211517572,5906.413945510126
0.468,1.786064988766807,5899.230730728666
0.472,1.9882502090760064,5895.43837602662
0.476,1.952792724627243,5894.223905506434
0.48,1.7037945984505252,5904.586850413076
0.484,1.3081513009574643,5905.737156041662
0.488,0.8605037985391047,5901.2979529590375
0.492,0.4623055553508339,5900.129729552542
0.496,0.19877243328143776,5898.645718874907
0.5,0.119190634344474,5901.8516737184445
0.504,0.2262091363135909,5904.408044838642
0.508,0.47722119991153356,5908.467660332229
0.512,0.7971883280650118,5905.882241035768
0.516,1.099185844029671,5896.993863226782
0.52,1.3071726669223445,5901.845784796663
0.524,1.3750115913775784,5903.121998024667
0.528,1.29675804670604,5898.437004834739
0.532,1.1056465015874994,5895.733248816119
0.536,0.8622230449294024,5903.089784560934
0.54,0.6347159605809725,5903.651561993799
0.544,0.4769155977552216,5895.945555038756
0.548,0.4105023418277627,5902.28712880918
0.552,0.41851321567549093,5903.957480737845
0.556,0.4531655041889793,5897.531601781166
0.56,0.4554590606704483,5902.125160492651
0.5640000000000001,0.3786193197233425,5902.373162272365
0.5680000000000001,0.2055800828116337,5905.242917972318
0.5720000000000001,-0.0462437431467569,5897.291353294275
0.5760000000000001,-0.3334162246092313,5899.570359094469
0.58,-0.6030144038384557,5894.620270473355
0.584,-0.8098714246747619,5898.118867580533
0.588,-0.928858813109449,5906.032818498229
0.592,-0.9599591874152545,5898.7764241003815
0.596,-0.9262899256974327,5899.074332830586
0.6,-0.8659266573913247,5902.3552502802695
0.604,-0.8186457553004344,5899.280839965032
0.608,-0.8100999721254245,5910.118416251682
0.612,-0.838568126135051,5904.522175608384
0.616,-0.8709479326103667,5907.092505054956
0.62,-0.8522272802192593,5895.647857722151
0.624,-0.726486454905845,5902.01428226789
0.628,-0.461081719441754,5897.218822247767
0.632,-0.06302820237515108,5910.47424353813
0.636,0.42024085063500616,5900.897118862935
0.64,0.9160583333871438,5899.271151745162
0.644,1.3505425261697614,5898.509362865662
0.648,1.6710147742974328,5902.05929071431
0.652,1.8582028036987697,5895.069745657775
0.656,1.925061450888058,5904.261308779295
0.66,1.9051282273938004,5893.513971644767
0.664,1.836991286923591,5900.588224978225
0.668,1.751439133633348,5898.076434207952
0.672,1.6651627610432318,5913.221057692288
0.676,1.5812824529265106,5901.516618565444
0.68,1.4939757687087616,5902.2748425176
0.684,1.3931861966069783,5898.9778287581685
0.6880000000000001,1.2665128083850947,5897.020840653831
0.6920000000000001,1.0985876099613296,5895.358795911002
0.6960000000000001,0.8714229282480958,5896.7788242002325
0.7000000000000001,0.5695709258434132,5895.56621776853
0.704,0.19052707108123598,5897.789298951102
0.708,-0.2442583810840928,5911.2076380966255
0.712,-0.685171926668753,5908.016779768336
0.716,-1.0622284179003372,5907.750624424061
0.72,-1.3040131638262544,5899.941811863325
0.724,-1.3610746499750264,5898.749917169051
0.728,-1.2246124740234985,5901.54085653607
0.732,-0.932771864112233,5897.451912588825
0.736,-0.5614438464918732,5904.334971987121
0.74,-0.2028211666455733,5897.1729309837565
0.744,0.05994320958913379,5895.784909885472
0.748,0.17316223498494174,5902.970152076574
0.752,0.12313249192629395,5897.324633184244
0.756,-0.0641966685576448,5901.336003933658
0.76,-0.33348747017321284,5895.25952670753
0.764,-0.6179849937286701,5893.77970106295
0.768,-0.8602671246590329,5897.102597585198
0.772,-1.0282009997624744,5900.334536355613
0.776,-1.1192845209601512,5903.925682128788
0.78,-1.1518516563168837,5903.498384475025
0.784,-1.148635927072564,5900.710276826776
0.788,-1.1221654259725167,5901.350744665385
0.792,-1.0696377072828553,5898.32012679952
0.796,-0.9787031103961957,5901.628044375692
0.8,-0.839197881712557,5907.037140807386
0.804,-0.6531048772453997,5906.354073183384
0.808,-0.4370072089833184,5905.191518057125
0.812,-0.21634104141781774,5908.04213969212
0.8160000000000001,-0.015509659638628933,5905.267751621769
0.8200000000000001,0.15046100724082953,5898.748850337303
0.8240000000000001,0.27876612647184706,5905.405704312646
0.8280000000000001,0.3752376716541297,5900.368281868854
0.8320000000000001,0.4462130720049094,5906.822787257808
0.836,0.4899935670226596,5900.75177605025
0.84,0.4929210337129636,5909.307182811669
0.844,0.4332408591723121,5900.959079466165
0.848,0.291510158524626,5900.562811847519
0.852,0.062232111188913995,5896.4437160277685
0.856,-0.2391268090949868,5894.367970320593
0.86,-0.5764666496466908,5905.261220160738
0.864,-0.8998707330904019,5897.941052694128
0.868,-1.1566021728960698,5896.179774950272
0.872,-1.303989909828588,5905.9257767689
0.876,-1.3214368298907366,5890.052074993994
0.88,-1.2180047174122524,5898.209194653681
0.884,-1.0326093647455403,5895.323406332367
0.888,-0.8260029275950532,5894.960135136023
0.892,-0.6662786821550493,5907.722432802451
0.896,-0.6116972830151106,5904.952330366474
0.9,-0.6953770069513313,5895.238413044593
0.904,-0.9153709801122658,5898.07408439517
0.908,-1.2321448064407163,5904.169003149893
0.912,-1.57495309224464,5902.3565240277885
0.916,-1.8579651756484779,5899.188129679916
0.92,-2.0039288738915024,5897.123490310676
0.924,-1.9683925051210507,5889.96117691024
0.928,-1.754958577884438,5910.147325391788
0.932,-1.414689182102097,5901.2390927867245
0.936,-1.0295683971104443,5903.771999945672
0.94,-0.6866667487332587,5902.578297193334
0.944,-0.4523589274321967,5892.679843744393
0.948,-0.35412896301793456,5904.449754583464
0.952,-0.37408871824588896,5905.688167937305
0.956,-0.4555916708543843,5898.541013438355
0.96,-0.5215327970034076,5902.759800731755
0.964,-0.499254489900708,5910.999913803332
0.968,-0.3440898943698455,5898.094531347054
0.972,-0.05378992842243486,5904.143555774359
0.976,0.3305169305991045,5901.068660699131
0.98,0.7365990727086793,5897.134550754053
0.984,1.0824522739912767,5906.087188373199
0.988,1.2997034791648032,5905.14662853857
0.992,1.3508170627836873,5896.294907560238
0.996,1.2336206252434774,5905.248549742939
1.0,0.9726409764418201,5907.030833279538
1.004,0.6042045532692125,5905.635042459673
1.008,0.16528048771660564,5902.509814105535
1.012,-0.30852569859372075,5894.441381758098
1.016,-0.7786022393465334,5899.515374736542
1.02,-1.1998615435561346,5898.714403291855
1.024,-1.523425501089594,5897.062905742032
1.028,-1.7055423880211567,5891.4213052620125
1.032,-1.7188053047012843,5907.023456368544
1.036,-1.5604256999750175,5899.1157916568445
1.04,-1.253630157092779,5907.035772540525
1.044,-0.8417475751081444,5894.829607831669
1.048,-0.3782854049514346,5910.999476169052
1.052,0.08267292278451803,5899.20873190213
1.056,0.4935635305994428,5901.676247723804
1.06,0.8180332078160633,5906.050669986889
1.064,1.0333895134603313,5906.417539767195
1.068,1.130332993809596,5899.93844055029
1.072,1.1104324449964111,5898.30057111263
1.076,0.9834467557968639,5897.040654854263
1.08,0.7665693456161146,5899.972314893245
1.084,0.48560075375321504,5906.752369168619
1.088,0.17583678349555182,5899.033418147524
1.092,-0.11989358379461586,5910.578012477419
1.096,-0.356982450461722,5899.678147931439
1.1,-0.4975278326508701,5899.437272947275
1.104,-0.5192280189255045,5909.879808297477
1.108,-0.4218950567670571,5888.451554590676
1.112,-0.22928487982612233,5905.427173440605
1.116,0.014654695418193864,5897.531517221652
1.12,0.2545827544800147,5897.1778859417245
1.124,0.43608307608032476,5901.40867457986
1.128,0.5190162417061176,5900.62422329816
1.132,0.4885438836384505,5907.888161803226
1.136,0.3604260184458825,5898.633515158411
1.14,0.17838794240971276,5901.571013559936
1.144,0.0034505963278342942,5894.947581961607
1.148,-0.10241697827381605,5904.158677027602
1.152,-0.09377229804011775,5899.341297547518
1.156,0.04511432577036035,5910.235127496591
1.16,0.2953711243773256,5911.196731143401
1.164,0.6077665993892228,5904.719415609222
1.168,0.9140446727056438,5905.492863484082
1.172,1.1422869038754246,5901.193306718448
1.176,1.2332380638879024,5889.911233698549
1.18,1.1540483247072533,5903.135336277961
1.184,0.9055646196413102,5909.209000987386
1.188,0.52101281852127,5901.630030530785
1.192,0.05722299476788591,5892.82050634066
1.196,-0.4181164747646927,5900.373775842209
1.2,-0.8395136825893658,5906.908309316842
1.204,-1.1542832127682139,5901.160652902189
1.208,-1.3289275308096804,5909.085726127358
1.212,-1.350634054532358,5907.25008969084
1.216,-1.2248292952980444,5910.780759766322
1.22,-0.9712753933811941,5893.140802369334
1.224,-0.6212847186725244,5903.385070782114
1.228,-0.2165521221666065,5901.927403380351
1.232,0.19256119500223082,5903.155802364759
1.236,0.5520131720694541,5913.783219204164
1.24,0.8127359268378509,5908.34580838958
1.244,0.9403169440963711,5908.043375616803
1.248,0.9219406252781263,5906.423105714835
1.252,0.7680296495600452,5896.234602859976
1.256,0.5080698309192293,5911.821355231283
1.26,0.1818780175733772,5900.501159482229
1.264,-0.17110629916861664,5899.485711978589
1.268,-0.5213608786174441,5906.083022949629
1.272,-0.8549491352621219,5900.976245577889
1.276,-1.173568329257992,5889.684824132686
1.28,-1.4883661243147868,5895.4791077864775
1.284,-1.8088369356838108,5908.6251561425615
1.288,-2.130797253968073,5904.986800722917
1.292,-2.429025575380081,5894.819146864845
1.296,-2.658894749496873,5910.437622060098
1.3,-2.7677147290704416,5903.510358143657
1.304,-2.7122007925733485,5900.567959399557
1.308,-2.4749660817150967,5896.170927954736
1.312,-2.0722338058396397,5893.413643510702
1.316,-1.5488692553762269,5901.728816511247
1.32,-0.9637545339386386,5898.467884784534
1.324,-0.37352048949116656,5902.374968571009
1.328,0.1778099170216093,5905.72604690659
1.332,0.6604455858351758,5901.157416482677
1.336,1.0541027905789373,5900.516329755631
1.34,1.3421210272300466,5904.04608327183
1.344,1.5091454239984596,5906.5736474756295
1.348,1.5441454098365266,5912.643718813592
1.352,1.4470868804590193,5909.52481354016
1.356,1.235568594637799,5892.9188018723935
1.36,0.9475595695911979,5904.770105558391
1.364,0.6374664375096519,5901.834033359656
1.368,0.36517112101247023,5905.647117464324
1.372,0.18122181140380028,5905.967276135079
1.376,0.1139294804292452,5901.501476173758
1.38,0.1633946095652611,5907.613613858778
1.384,0.3038936451734857,5905.313995288562
1.388,0.4922552528438425,5905.236346661563
1.392,0.67804323873842,5904.116228814945
1.396,0.8120932828921534,5896.47171219777
1.4,0.8524078951781031,5904.327512941303
1.404,0.7687578959868714,5906.697946132441
1.408,0.5476525187807811,5903.8922965596
1.412,0.1973422816056227,5902.75988565285
1.416,-0.2497468390119331,5903.446873879853
1.42,-0.7397800423036864,5904.666534133035
1.424,-1.2058059391627596,5904.363931851707
1.428,-1.5796504432175558,5907.765367232453
1.432,-1.804914590954671,5905.312323743136
1.436,-1.8486609249624963,5906.733829705839
1.44,-1.7089485275046263,5902.141505682514
1.444,-1.4154376607572594,5899.1410313655215
1.448,-1.0222029778306603,5906.388804856252
1.452,-0.594984391523041,5902.442392561392
1.456,-0.19716079036635104,5906.484344474352
1.46,0.12162378780743775,5897.765011243256
1.464,0.3320801914221693,5896.03064225978
1.468,0.42653733322114695,5899.90171969099
1.472,0.4154268415536042,5900.47284867399
1.476,0.3212295923581709,5906.737611373054
1.48,0.17299139161631777,5899.855858888651
1.484,0.0029826796855295765,5905.038810667179
1.488,-0.15549907313563757,5903.101646065941
1.492,-0.27116536997833895,5904.329449203156
1.496,-0.3193876160844264,5902.754894004092
1.5,-0.28729469866339225,5911.9247035285125
1.504,-0.1771563493267477,5896.056285696732
1.508,-0.006400692408037254,5904.188706940313
1.512,0.19625322016843172,5908.732992910766
1.516,0.3980889617709395,5903.18936590897
1.52,0.5714309853329226,5901.560972342033
1.524,0.7013261619201959,5904.060794141543
1.528,0.7886416861436965,5902.581445242565
1.532,0.8472279923683903,5902.679876116632
1.536,0.8962306738012191,5907.977626853545
1.54,0.9501886085283493,5897.6025191930985
1.544,1.010396097729192,5907.729550383159
1.548,1.0613589860769537,5908.243229623349
1.552,1.0749383637387473,5900.585783509933
1.556,1.021265008982987,5895.206690340553
1.56,0.8815721259771802,5905.359068522166
1.564,0.6568325887725627,5898.673412735722
1.568,0.36870781103131184,5902.45742192632
1.572,0.0538993399656092,5900.129834755492
1.576,-0.2439448001354399,5896.046930141451
1.58,-0.48107592602276006,5901.779615542691
1.584,-0.6183337290396294,5908.254000589729
1.588,-0.6251499165949926,5901.198365326392
1.592,-0.48459119675117707,5904.231882595689
1.596,-0.19936864181135525,5898.870333785031
1.6,0.20343529938315966,5906.287882333486
1.604,0.6717547464249953,5914.184073604378
1.608,1.1337251198481058,5907.263906135525
1.612,1.5088621837149572,5905.735984117008
1.616,1.724189472431629,5898.976684147408
1.62,1.7326724235743853,5902.638809348056
1.624,1.5292268604900698,5901.975733928719
1.628,1.1580737496832092,5902.955294476476
1.632,0.7061504255177561,5903.757372450492
1.636,0.2818230368794247,5898.410763046504
1.64,-0.015148955562818145,5900.066864284985
1.644,-0.12174988841802441,5906.126629761384
1.648,-0.028201677624950364,5909.528632226613
1.652,0.22139129135677837,5908.6403427636205
1.656,0.542741159861932,5904.212846831891
1.66,0.8348676527559866,5902.776515113399
1.664,1.0076244650089456,5902.190197246557
1.668,1.0065567547199425,5897.488070018907
1.672,0.8279916750496714,5902.363779236572
1.676,0.5189610766960056,5897.465781737218
1.68,0.16101029950543957,5908.750248659425
1.684,-0.1569773826356456,5905.953567917859
1.688,-0.36680074267153784,5902.830804838332
1.692,-0.43909687940517567,5892.66618950962
1.696,-0.38604938559155644,5896.509527828978
1.7,-0.2505468774407015,5903.753123715508
1.704,-0.08855113460371457,5905.09760440522
1.708,0.04804884199407973,5906.267780331763
1.712,0.12326045691102619,5906.197072488635
1.716,0.12227741377116605,5896.595339071449
1.72,0.05186799778860497,5899.600740437338
1.724,-0.06230354939195689,5908.854410350126
1.728,-0.18126205331100392,5899.090876374145
1.732,-0.261551260703045,5895.977963160174
1.736,-0.2660433331778836,5900.139548126249
1.74,-0.17394628950683297,5909.414206550176
1.744,0.012934444356404664,5903.889901145879
1.748,0.27011506571457966,5900.868360958106
1.752,0.5575456504614759,5913.173962262318
1.756,0.8319471369035573,5903.017066056633
1.76,1.0595869479120557,5900.731666825474
1.764,1.224520294766078,5912.358183878543
1.768,1.3296453633799188,5900.073465272436
1.772,1.390960875770549,5902.9984156482815
1.776,1.428124143139816,5905.837781738732
1.78,1.4560886366101322,5908.017825572284
1.784,1.4821090628653582,5900.400807609648
1.788,1.5093094922219576,5907.257625222269
1.792,1.5437377865156932,5901.142376253408
1.796,1.599045393873335,5906.811541483263
1.8,1.6938204759788538,5895.644454291378
1.804,1.841201212602537,5896.3215759146215
1.808,2.0359583655485176,5910.390402445803
1.812,2.2467458902363626,5899.380604254511
1.816,2.418849135128693,5896.893324478899
1.82,2.4876018150908363,5903.120401798507
1.824,2.398083022339398,5896.301682006257
