时间(s),电压(V),幅值(高频80K)
0.0,6.366515846617719,5897.405022451358
0.004,5.0564756503406,5907.454395293376
0.008,3.817180358551606,5898.181118606375
0.012,2.7111842899816634,5899.41676255771
0.016,1.7732106944407804,5900.917447471774
0.02,1.0089659658119317,5895.102665209322
0.024,0.4023981950711629,5903.329677234275
0.028,-0.0728026931095867,5904.868990717258
0.032,-0.4417774834674347,5904.840394760479
0.036,-0.7204753880505935,5903.0991499814045
0.04,-0.9131538825307141,5912.38108758621
0.044,-1.0157971122550757,5897.299278524944
0.048,-1.0238341577958694,5901.556745539349
0.052,-0.9410696920109728,5901.12532672357
0.056,-0.7858605985777233,5905.875693454264
0.06,-0.5904810859470433,5893.809851724338
0.064,-0.3921471678992118,5906.356683044462
0.068,-0.21956859497322834,5908.66866180675
0.072,-0.0828261615583612,5899.990437198434
0.076,0.027401175643621458,5895.371177154565
0.08,0.13111135767253304,5902.521031904035
0.084,0.24556186138554514,5898.536860143412
0.088,0.3733283103718949,5896.818275326852
0.092,0.49668820168132316,5905.918645545138
0.096,0.5809630392244037,5893.335107007354
0.1,0.5866426135451246,5899.227769749171
0.104,0.4862177759112966,5896.662792137988
0.108,0.2779996372943872,5899.539419275324
0.112,-0.010825038453244123,5904.469983862666
0.116,-0.33413315888823164,5892.148304981023
0.12,-0.6438156246050074,5899.326509338688
0.124,-0.9033380498182049,5904.554639825501
0.128,-1.0909770967720032,5896.026992402864
0.132,-1.1939484271423124,5905.488147590401
0.136,-1.2002168927238686,5904.124654396156
0.14,-1.0943787427934872,5895.122898917182
0.144,-0.8603761127626234,5888.3811939561565
0.148,-0.49059687821794284,5903.870310753367
0.152,0.0015497080190484851,5910.064700072548
0.156,0.5710897186798285,5891.040391428554
0.16,1.139781331007103,5889.57693860417
0.164,1.6076563123806733,5897.512522756106
0.168,1.876469007928569,5903.358665815376
0.172,1.87788614945506,5899.018265847205
0.176,1.5964546993239372,5910.11169748633
0.18,1.0787501830086483,5893.580319600716
0.184,0.42484025811251974,5903.2511484242605
0.188,-0.23572492792660332,5904.544598250197
0.192,-0.7760289931166877,5910.691312712878
0.196,-1.102145190534771,5896.913736290329
0.2,-1.1728267029732864,5896.563384382724
0.204,-1.0035567978110258,5899.783859569824
0.208,-0.6553661398103249,5900.647242997834
0.212,-0.2139049712567803,5899.8829156547845
0.216,0.2328271755270631,5903.803739635549
0.22,0.610592857184844,5897.642444621272
0.224,0.8658320735876777,5885.6804287939685
0.228,0.9653310502687873,5894.428656706352
0.232,0.8928490585813027,5895.312527714247
0.236,0.6462777005666576,5899.024083780636
0.24,0.2373114591458892,5893.733039480822
0.244,-0.3062247144235311,5890.460959384012
0.248,-0.9374487211033338,5894.123965557465
0.252,-1.5903890922221064,5900.533707236749
0.256,-2.185589806041163,5911.468079057758
0.26,-2.6416140691146586,5897.67366196304
0.264,-2.8901963053521387,5901.569482572434
0.268,-2.8912868436260797,5900.974533398453
0.272,-2.6438433848939824,5904.999065515462
0.276,-2.1887912000408662,5899.430378706955
0.28,-1.602002981737505,5904.312065185187
0.284,-0.9775116097577461,5899.912065918171
0.288,-0.40444103763562095,5905.414648683604
0.292,0.05558051485513766,5894.431027932181
0.296,0.3825929520699063,5900.743543910497
0.3,0.5988160280373428,5887.841018636327
0.304,0.7555839716754418,5892.582762413405
0.308,0.9113842998651815,5900.881439054762
0.312,1.1080219264025015,5904.290129117919
0.316,1.3527848891557226,5888.965845241592
0.32,1.6134316175460652,5892.260924437259
0.324,1.8283946570444807,5905.554480528538
0.328,1.9281789614838514,5888.2184795409685
0.332,1.8595695745927607,5904.464499889323
0.336,1.6042369742280047,5894.458089122009
0.34,1.1864090293705274,5896.945261383386
0.344,0.6681699523390694,5906.008621553364
0.348,0.1344385001801866,5900.429484786227
0.352,-0.327650386776342,5896.0790158092095
0.356,-0.6488710324300913,5890.993438717405
0.36,-0.791895180527106,5894.980239067123
0.364,-0.7559508853334473,5897.481176745548
0.368,-0.5727402571987618,5902.583621135057
0.372,-0.29712611421646745,5905.104472787234
0.376,0.0038904614915103008,5901.586225243374
0.38,0.26233778893672005,5898.056363895032
0.384,0.4200798631574067,5902.217483765296
0.388,0.43803767418098405,5901.017340185242
0.392,0.30175982597316514,5900.489647871576
0.396,0.021792891350489126,5902.040382932116
0.4,-0.37081117080842524,5902.622246138825
0.404,-0.8313877579502483,5900.390646972818
0.408,-1.3078112112145925,5899.895968535175
0.412,-1.7442447000840031,5903.0788123796265
0.416,-2.0831417667031515,5899.322189033724
0.42,-2.2676588637999204,5902.049463301262
0.424,-2.2470569729340544,5905.465814250275
0.428,-1.986791070948105,5892.685030592169
0.432,-1.482011962296537,5906.823836587518
0.436,-0.7690306147442485,5905.429012225455
0.44,0.07262262590713561,5900.430918767689
0.444,0.931863987605915,5903.12979636609
0.448,1.689271609483214,5892.538885768772
0.452,2.244173741280359,5902.209756666746
0.456,2.5364680541675013,5897.544490266857
0.46,2.556545495838462,5898.068578308106
0.464,2.3414631866808424,5897.117395325487
0.468,1.9603462794668867,5885.839436090279
0.472,1.4948699881295875,5907.366355922161
0.476,1.0207396666775772,5902.865764186059
0.48,0.5942759097900866,5900.388778772509
0.484,0.24619270788453293,5898.255387948738
0.488,-0.01705493020352843,5896.425711435905
0.492,-0.20592238868371537,5893.9739417346445
0.496,-0.3377092321689486,5895.681970933106
0.5,-0.4273449485571747,5898.064368239529
0.504,-0.4816723857843577,5913.442970510066
0.508,-0.498674026322011,5901.958901926595
0.512,-0.4715026452793901,5897.648960272339
0.516,-0.39523493484478583,5898.071330538111
0.52,-0.2731151261974867,5898.350555858488
0.524,-0.11937653469312877,5900.344065425639
0.528,0.04288091596772939,5899.260639966468
0.532,0.18816526212206958,5910.484250076951
0.536,0.2964970676292272,5898.720259784915
0.54,0.3587906322528411,5890.229922286414
0.544,0.37721555531183104,5897.268189103657
0.548,0.36093371564827464,5898.040689229042
0.552,0.31967420013832554,5900.59534873552
0.556,0.258083050007235,5896.427400484485
0.56,0.17332478510393584,5894.603484111676
0.5640000000000001,0.05713800260886859,5904.290973540425
0.5680000000000001,-0.09853998010459723,5892.684280655319
0.5720000000000001,-0.29489290995908307,5905.984230506563
0.5760000000000001,-0.5210083194287309,5891.103957101706
0.58,-0.7518057533855225,5899.118778910516
0.584,-0.9504992743665086,5904.800840850628
0.588,-1.0767397278554145,5897.048171803937
0.592,-1.0996097255190052,5899.9408223816645
0.596,-1.011026457985455,5902.616711102497
0.6,-0.8327768177897928,5905.519030953903
0.604,-0.612229656175994,5894.941786528489
0.608,-0.40742034845867503,5899.4133942321005
0.612,-0.2680283020631719,5909.13915495892
0.616,-0.2205275479619744,5899.4116176729285
0.62,-0.262549883519384,5893.147214852055
0.624,-0.36663141255912984,5892.835459873965
0.628,-0.4906698477353824,5893.575390746238
0.632,-0.591779717078263,5903.261166025079
0.636,-0.640076359506505,5896.460732336397
0.64,-0.62880188424517,5908.998174053441
0.644,-0.577745596164186,5893.6128052138565
0.648,-0.5282036655330341,5899.8564620550615
0.652,-0.5296164036419932,5894.742749878025
0.656,-0.6207728410762899,5901.119001467017
0.66,-0.8117153262950613,5901.016859827846
0.664,-1.0741453726305712,5897.856808127539
0.668,-1.3458397402228548,5898.420394633522
0.672,-1.5484884979478943,5909.6075954728285
0.676,-1.6119781006082647,5908.361574775526
0.68,-1.4956133801866793,5906.14794896553
0.684,-1.1992129912384535,5898.259769374441
0.6880000000000001,-0.761940823424444,5905.662826441873
0.6920000000000001,-0.2511722994879523,5897.83569854158
0.6960000000000001,0.2535544180957067,5891.360375712463
0.7000000000000001,0.6758890550908553,5905.255809037144
0.704,0.9539124328935142,5893.465752220921
0.708,1.0476144838668002,5900.736877055515
0.712,0.9448583554711932,5903.337080087714
0.716,0.66621309204607,5893.473937939644
0.72,0.26569602863485686,5908.271957489025
0.724,-0.1763662322858127,5909.386957388115
0.728,-0.5693777619578558,5903.272716754992
0.732,-0.8343881502824874,5900.914150457595
0.736,-0.9260115483206557,5889.534585974213
0.74,-0.8473945270545925,5905.90305365705
0.744,-0.6518805986115122,5905.243148584384
0.748,-0.4281622140875592,5902.756720108418
0.752,-0.27180733098719456,5892.963931520439
0.756,-0.2526919497647387,5901.965212891092
0.76,-0.390726576406508,5892.10107664934
0.764,-0.6490045160394845,5899.51807940022
0.768,-0.9461708801788966,5902.51657161801
0.772,-1.1828205008125696,5901.9760750499945
0.776,-1.2728435330832333,5902.787816100148
0.78,-1.169817645197274,5888.446425028458
0.784,-0.8802967757951738,5891.943885523577
0.788,-0.4603063977804972,5908.178861029582
0.792,0.0025681646243825135,5900.304295183807
0.796,0.4143500891626717,5896.984938463047
0.8,0.6987529416500932,5905.192090426101
0.804,0.8139060508134728,5896.809403110126
0.808,0.7588939240716014,5905.350437698222
0.812,0.5703581212894089,5902.092078434215
0.8160000000000001,0.3113016332363242,5902.286449809562
0.8200000000000001,0.05501463843912532,5894.973497459096
0.8240000000000001,-0.1326311267788851,5902.954835562922
0.8280000000000001,-0.20884687703355356,5904.790413133604
0.8320000000000001,-0.16369789058266226,5908.370965324758
0.836,-0.02112096468866813,5897.512485218611
0.84,0.16932274872953448,5901.779469512001
0.844,0.3476945405229426,5896.346562147495
0.848,0.4614940747506762,5897.99981199227
0.852,0.48068488673187265,5899.240720623218
0.856,0.40536994997599674,5898.783907896613
0.86,0.2640443596959379,5907.237297275049
0.864,0.10340002388740284,5899.674794898612
0.868,-0.027028477735427058,5907.038009415278
0.872,-0.09076120390546633,5906.832663786678
0.876,-0.07563656323040745,5895.141642564572
0.88,0.003997262092509096,5901.188829707815
0.884,0.11568567798266197,5900.841603665976
0.888,0.224655564963177,5900.0409568761415
0.892,0.3096377146474599,5900.395506073397
0.896,0.37105191624123524,5901.15424747893
0.9,0.4281980563148662,5903.703523222813
0.904,0.5079128857116963,5901.631637144321
0.908,0.6306425082142041,5894.060567222593
0.912,0.8000392464192703,5894.649680008544
0.916,0.999938812754601,5901.096964615806
0.92,1.1990341407649268,5900.484068102981
0.924,1.3603815974187672,5903.335249492379
0.928,1.4518418985993473,5899.972736116001
0.932,1.4548330031723482,5894.515292306391
0.936,1.3704565136783133,5897.645903916603
0.94,1.2222243350798407,5899.552644438766
0.944,1.0536345855945857,5909.478883548066
0.948,0.9189795989281497,5898.002044395624
0.952,0.8683028330892225,5899.414160007273
0.956,0.9310229127639221,5900.1009367529705
0.96,1.1046871398574145,5903.109200412913
0.964,1.3538638878364868,5891.1848162178485
0.968,1.6199273329505388,5899.169498579255
0.972,1.8378539151780429,5891.60535184168
0.976,1.95365125286421,5892.524327131192
0.98,1.9366567839040538,5901.532200114098
0.984,1.7836838554562422,5894.461726671204
0.988,1.5150999623043195,5903.815098255743
0.992,1.1654698588343395,5901.091985721926
0.996,0.7730180871968613,5900.563803928123
1.0,0.37204224585373835,5908.169021430796
1.004,-0.009791256206860405,5896.436585535145
1.008,-0.35031496778069854,5898.992491798474
1.012,-0.6307667878095548,5905.255101813931
1.016,-0.8352435720834883,5902.417655477386
1.02,-0.9521392619130233,5903.641610965994
1.024,-0.9761665698568659,5899.886445263156
1.028,-0.9097084571670699,5900.502450235466
1.032,-0.7637165649066171,5901.371493360583
1.036,-0.5587110596764121,5898.678836488913
1.04,-0.3248289929027447,5900.070297329475
1.044,-0.0984650403754354,5908.577200361433
1.048,0.08584131424685464,5896.345907939594
1.052,0.20634023246479435,5888.126096623058
1.056,0.2629898245045217,5901.39481832083
1.06,0.2792600120502525,5891.965672003747
1.064,0.2944912876536937,5900.016911193853
1.068,0.34896167187654675,5895.277784796965
1.072,0.46771350153595787,5903.749552180173
1.076,0.6500746792480956,5903.341208505497
1.08,0.8689626215562558,5898.371022980472
1.084,1.0794249945842294,5894.482882444288
1.088,1.2322465175505715,5896.523763271273
1.092,1.287328084059528,5898.328440684665
1.096,1.2227903955033441,5894.90680864617
1.1,1.038289258035053,5906.482757598567
1.104,0.7535225663411678,5895.887962738412
1.108,0.40419742161027405,5895.164062627101
1.112,0.03708214284742075,5889.824852544683
1.116,-0.2963534129924577,5897.636677826974
1.12,-0.5495704999451434,5903.617569466475
1.124,-0.6939298798170556,5903.906109300646
1.128,-0.7307069519031658,5890.974317203134
1.132,-0.6949761233958476,5898.91929553185
1.136,-0.646351399007669,5899.571459465439
1.14,-0.6482503550210229,5897.4198277263295
1.144,-0.744013757866206,5896.373842952102
1.148,-0.9400906840200784,5905.57437800669
1.152,-1.2028489684017618,5904.635074353398
1.156,-1.4696593346074012,5896.7620584784845
1.16,-1.6697990781171645,5902.754996864829
1.164,-1.7474730188184227,5908.391020355645
1.168,-1.6787167115352972,5905.087196932811
1.172,-1.4767895718577475,5902.899054295009
1.176,-1.1855083769852202,5898.286694836826
1.18,-0.8642270703395519,5900.344109835113
1.184,-0.5702291588017689,5897.94078849291
1.188,-0.34392734749258275,5899.920073699633
1.192,-0.20022118689193164,5896.695730866692
1.196,-0.1270509976490279,5900.603111267345
1.2,-0.0906325152412504,5899.969449927875
1.204,-0.046014095893597014,5902.236539587029
1.208,0.049184624786977,5901.085566925261
1.212,0.2210565704996914,5902.312549451272
1.216,0.4697133755098461,5894.9788189697165
1.22,0.7670760275604963,5906.887333524561
1.224,1.0633356565446492,5902.056768395137
1.228,1.3002513652043204,5898.608833673829
1.232,1.4273469776681678,5903.049706316749
1.236,1.4164981467357372,5900.397322961312
1.24,1.270702476555002,5900.080686254458
1.244,1.0239282873673834,5904.131848787338
1.248,0.7316405686215773,5899.675430043652
1.252,0.45519126450429404,5904.430391860186
1.256,0.2454686385939204,5887.442724688187
1.26,0.13106882819990645,5901.929857972722
1.264,0.11446616726539899,5888.105116469857
1.268,0.17670224897610315,5902.551682530663
1.272,0.28765956606406523,5907.280121918229
1.276,0.4168979940875984,5899.637533576374
1.28,0.5407825604327031,5897.217347884371
1.284,0.6443834859540847,5900.337193460285
1.288,0.7192049514694135,5899.02195061502
1.292,0.7591760815044591,5906.738162001871
1.296,0.7578239907057102,5897.927102892264
1.3,0.708784874627396,5896.638419983225
1.304,0.6092189766090118,5905.68696683022
1.308,0.4630674064488459,5904.805956163322
1.312,0.2813761882944822,5904.2764981597
1.316,0.07993759269069481,5901.254247592982
1.32,-0.12320737579225174,5902.931713770462
1.324,-0.30853025065844625,5907.031958156752
1.328,-0.4544589723851795,5896.082380239672
1.332,-0.5374625263668438,5904.801601656961
1.336,-0.5347662434366937,5897.28100736943
1.34,-0.43053084816693,5897.919872918704
1.344,-0.22429970227420168,5894.318497139559
1.348,0.06157367369245853,5899.048225077773
1.352,0.37971026722752876,5894.924047582124
1.356,0.6639364492015252,5897.59817317786
1.36,0.844402390707647,5906.706134067132
1.364,0.8680819904920056,5897.001596060381
1.368,0.7178531595136667,5901.476113071698
1.372,0.422712917884054,5896.960523868231
1.376,0.05412605552294424,5905.089365408802
1.38,-0.2918428147436233,5900.635620093511
1.384,-0.5213982055155365,5900.56675959814
1.388,-0.5695003116887216,5902.469362468101
1.392,-0.4166833324596443,5900.131408675498
1.396,-0.09168695739854134,5906.825762919318
1.4,0.3384891595297376,5889.797361104982
1.404,0.7859123528498091,5900.03601139543
1.408,1.1612004029003093,5911.222619400224
1.412,1.3916829345349666,5904.234277843951
1.416,1.4361036793939872,5905.210168944068
1.42,1.2938119987657501,5891.91601584683
1.424,1.0059923666863326,5904.336143454369
1.428,0.64717914047416,5894.192164797474
1.432,0.3078378981860286,5906.318703324011
1.436,0.07212788416780691,5903.846631154243
1.44,-0.002686176938399917,5901.878007818072
1.444,0.10127703474090811,5900.88072370304
1.448,0.3615372779429084,5899.490333675055
1.452,0.7243390647637219,5899.74399049281
1.456,1.1188799683744717,5899.736562993895
1.46,1.4718800659655975,5891.937588723064
1.464,1.7201738432603728,5888.043039436223
1.468,1.8208791213223217,5901.972132895728
1.472,1.7585537950775947,5899.8850237783045
1.476,1.5477047670209148,5902.167980037293
1.48,1.2291140161350487,5907.376312608719
1.484,0.8603153283706166,5893.884972999588
1.488,0.5025913030221544,5904.723516271182
1.492,0.2074505403646843,5903.443928785941
1.496,0.005235553271019283,5903.0078165676905
1.5,-0.10156838404270688,5898.617365398393
1.504,-0.13812475462604745,5895.34822980994
1.508,-0.1494935982463095,5892.94755868406
1.512,-0.18695267499097645,5906.140436495931
1.516,-0.2919990910299677,5894.862832204964
1.52,-0.48276303038596935,5900.57536748627
1.524,-0.7473098939386159,5897.29256159898
1.528,-1.0464416453304668,5889.720106085963
1.532,-1.3255924639028902,5904.302135367472
1.536,-1.5321678515576231,5905.644685157431
1.54,-1.6323378461284557,5902.22052741633
1.544,-1.6210133449151185,5900.391308972785
1.548,-1.521054333928101,5901.199090086413
1.552,-1.3720651740237302,5903.30971479989
1.556,-1.2137478458330113,5907.101330345819
1.56,-1.0715240619599582,5898.770354741881
1.564,-0.9511451473612085,5908.594682177269
1.568,-0.8441354339230671,5902.318679637244
1.572,-0.7398039155497695,5897.852220655026
1.576,-0.6363100720072283,5897.080632749306
1.58,-0.5448749293347056,5900.6927791479175
1.584,-0.4857584041445726,5898.539920387262
1.588,-0.4786192261455683,5897.912705588942
1.592,-0.5317239060140206,5900.556697519722
1.596,-0.634600068642375,5900.303286291402
1.6,-0.7575996439915416,5892.480514590216
1.604,-0.8593938428269117,5908.046560524051
1.608,-0.9001420970254869,5891.899556181814
1.612,-0.8553100500299851,5892.326701976564
1.616,-0.7243215218606305,5897.202379930865
1.62,-0.5302675616708887,5909.233537553177
1.624,-0.31125669247026183,5904.024183298796
1.628,-0.10822972624474063,5901.065880667687
1.632,0.04484842108386483,5893.083519737715
1.636,0.12538539025088935,5895.944221402565
1.64,0.1225606431777244,5895.11372886197
1.644,0.03732036916515446,5900.816945601741
1.648,-0.11644816079494422,5910.831699461832
1.652,-0.3116393391878527,5895.077881028937
1.656,-0.5114017832604482,5896.992960510768
1.66,-0.6763058431903872,5905.057990202713
1.664,-0.7721233845644512,5908.278791709801
1.668,-0.7749248378498408,5901.065811908457
1.672,-0.6725614402494292,5905.710594539419
1.676,-0.4645287520893692,5899.264373860547
1.68,-0.16320575807561863,5912.201290654943
1.684,0.2029228057995377,5894.947009173481
1.688,0.587433002854691,5903.095512735391
1.692,0.9303102826165165,5890.698305299705
1.696,1.1700709986376205,5903.39332680948
1.7,1.2599694394441958,5895.520447237126
1.704,1.1816678162495016,5898.1212931820255
1.708,0.9510649643589898,5900.189851099508
1.712,0.6148820029863298,5906.907641920441
1.716,0.2401205663606177,5889.967825260161
1.72,-0.10005697548358931,5894.998529876863
1.724,-0.340813434612188,5892.933566477507
1.728,-0.438102004749655,5906.121828900944
1.732,-0.3771337660011481,5909.948392545555
1.736,-0.17513229134693867,5903.4209981645845
1.74,0.12220073116843333,5903.194438800805
1.744,0.4492380568855889,5902.688925416632
1.748,0.7320413359129463,5896.307567889365
1.752,0.9020438963751273,5897.681951082156
1.756,0.9109810230328185,5898.973680105415
1.76,0.7440832914453743,5900.015765028854
1.764,0.42636576146126876,5895.283226045902
1.768,0.01779916951310512,5902.552259221759
1.772,-0.40258194268352654,5904.381463949893
1.776,-0.75837000267578,5895.609580014608
1.78,-0.9947788465889107,5908.241731253159
1.784,-1.0875077938494726,5894.72713535438
1.788,-1.0395322861321934,5900.877188117207
1.792,-0.8705271768821016,5898.732777025518
1.796,-0.6066944979151141,5903.936771431615
1.8,-0.2762019682713238,5893.555173277769
1.804,0.09018595308232656,5897.713445070749
1.808,0.45766850138938964,5906.464549280698
1.812,0.7892366531629854,5896.8382951793
1.816,1.0514706561613567,5900.081279902719
1.82,1.2216173592464699,5907.8221900471
1.824,1.291904985657915,5904.536845881755
