时间(s),电压(V),幅值(高频80K)
0.0,4.384673105961925,5897.048020716182
0.004,2.9923781809661745,5885.424572808768
0.008,1.7712805375588678,5898.458932745481
0.012,0.851624024506737,5892.630742252784
0.016,0.2894510458912948,5902.338665473418
0.02,0.05951514017234374,5893.902913012184
0.024,0.07133473279990916,5894.632247096542
0.028,0.20038166409156,5897.68155960374
0.032,0.32261025335359633,5905.815915460493
0.036,0.3422974900405699,5902.189590671273
0.04,0.20816659776839366,5900.161853519199
0.044,-0.08261501601740179,5893.674816871497
0.048,-0.4908038010500328,5901.265212467571
0.052,-0.9495630823195836,5894.647663073463
0.056,-1.3838101541550543,5892.648950500655
0.06,-1.7292468286956126,5904.019004688568
0.064,-1.9454735847893152,5897.481253244664
0.068,-2.0205150700297394,5901.244322636793
0.072,-1.9680669304150868,5893.458288042905
0.076,-1.8201226240362594,5903.574235220587
0.08,-1.616710927228163,5893.477827157935
0.084,-1.394672639569811,5900.739801743407
0.088,-1.1791983730260114,5900.614269593624
0.092,-0.9817922445372735,5901.355711470998
0.096,-0.8044819242915651,5904.555855889812
0.1,-0.6455726405264176,5905.005274470545
0.104,-0.5019692592008973,5903.691388892222
0.108,-0.3677189493644702,5891.880373205599
0.112,-0.23296714879501207,5899.137230962468
0.116,-0.08706355898864349,5899.566503777691
0.12,0.07502377827786742,5906.942332815146
0.124,0.24750597543543754,5902.754075314539
0.128,0.41380062499283965,5894.938652162542
0.132,0.5521533659685172,5903.079101432501
0.136,0.6436385619993857,5906.9938688128905
0.14,0.6782114330054742,5907.583379288955
0.144,0.6560516817315284,5895.1975654454845
0.148,0.5842016884734628,5903.77682786553
0.152,0.4706830481130264,5901.386944259817
0.156,0.31910135833966774,5898.498431821362
0.16,0.1264776970888518,5896.157312276479
0.164,-0.1141524135474664,5907.559491931405
0.168,-0.40695433622783234,5895.730492098925
0.172,-0.7449908722247007,5898.577731411956
0.176,-1.1036570753831116,5892.582154173733
0.18,-1.438323932396381,5899.382646147175
0.184,-1.6880424166984682,5894.256668147471
0.188,-1.78678894898274,5898.786563028606
0.192,-1.6816337109224477,5904.095215562697
0.196,-1.3529037880842378,5893.776212852441
0.2,-0.8279942632247334,5895.638313925466
0.204,-0.18154741071034305,5900.592919141946
0.208,0.4796347692762739,5897.984276076627
0.212,1.0418405338712664,5906.085349733588
0.216,1.4110031187494372,5895.999614625598
0.22,1.532715338640612,5906.033964668211
0.224,1.4019278688059484,5900.989305887556
0.228,1.0621279673261383,5896.930242128318
0.232,0.5952522305339395,5896.483540307923
0.236,0.10435732206149922,5904.512874583495
0.24,-0.3076132616064901,5899.189229362139
0.244,-0.55855719973495,5893.597896462564
0.248,-0.6029390048283696,5895.421574998598
0.252,-0.43885046030709446,5897.628387220724
0.256,-0.10485924727518879,5891.67378251989
0.26,0.3317474467329702,5910.00047868628
0.264,0.7913376702909501,5890.811944031484
0.268,1.1984241957423876,5906.401944742458
0.272,1.4944725824984846,5900.1973277279385
0.276,1.644721602290513,5895.231267223145
0.28,1.638843269817822,5887.01929565227
0.284,1.4870198669281895,5898.507060237115
0.288,1.2135802005077891,5898.944368646316
0.292,0.8502354235798348,5904.804990406377
0.296,0.4307204579883785,5902.553653770025
0.3,-0.012096087907742909,5903.365333354956
0.304,-0.4470201416668242,5900.381571855272
0.308,-0.8449489681843034,5896.041045945428
0.312,-1.1805912513242458,5902.478019824717
0.316,-1.4356813243799385,5893.130065996806
0.32,-1.602092727952743,5902.637908246607
0.324,-1.6829045699548029,5902.804515213632
0.328,-1.6908194413162418,5892.191254695812
0.332,-1.6447535419822485,5895.486899883263
0.336,-1.5655783062052473,5895.776582277855
0.34,-1.4714871281634023,5899.099122359622
0.344,-1.3736064256944398,5893.2911435645465
0.348,-1.273374242583431,5899.85487730454
0.352,-1.1637166424847243,5900.726457870405
0.356,-1.0349710619594277,5905.327607987084
0.36,-0.8838605112675304,5900.725831022698
0.364,-0.7214099906253008,5897.211337058695
0.368,-0.5755873270218536,5908.659817793623
0.372,-0.48661569903154406,5902.527721100236
0.376,-0.49567618136775804,5898.807817812364
0.38,-0.6300467109614554,5902.025955529058
0.384,-0.8893093791899874,5904.301033802303
0.388,-1.237629565622447,5898.124840173762
0.392,-1.6059215489922305,5893.97542985253
0.396,-1.9050772424913751,5894.537854314251
0.4,-2.047840953120384,5899.713042246445
0.404,-1.9734767961859379,5905.988925890011
0.408,-1.6676443033064368,5904.844413751383
0.412,-1.1708647099420761,5898.92795359641
0.416,-0.5723197915442441,5904.111000262272
0.42,0.009863867342248003,5900.111653419916
0.424,0.45674677968531924,5900.965784937999
0.428,0.6776813341489435,5904.79537256392
0.432,0.6327847872895184,5904.01677251798
0.436,0.34301569238866025,5905.336586780496
0.44,-0.11485066736349986,5899.6725651663255
0.444,-0.6274078002664603,5899.176356686789
0.448,-1.0731637492345774,5910.089250495276
0.452,-1.3524949701384854,5903.862843989877
0.456,-1.4102495201162257,5902.262481968877
0.46,-1.2447300577590006,5903.380469538595
0.464,-0.9016194156972229,5904.7363996095055
0.468,-0.4564979783592889,5901.443624674975
0.472,0.006877860598877833,5904.515250961489
0.476,0.4148435001770139,5903.496400820291
0.48,0.7141286917821027,5908.848942314602
0.484,0.8748790068317001,5897.886956008193
0.488,0.8903253088355384,5907.166509089083
0.492,0.7758979763360443,5897.758409766979
0.496,0.5671430316844278,5902.419283715218
0.5,0.3141402567867243,5904.809344499923
0.504,0.07171167907227581,5893.0733466403335
0.508,-0.1124533681460939,5902.71713893725
0.512,-0.20813097388263407,5896.08132865553
0.516,-0.20827432655038236,5898.704030710328
0.52,-0.12855543868154684,5901.798706072604
0.524,-0.0008075247668713531,5904.811982734444
0.528,0.1376970199447786,5895.020929833872
0.532,0.25543339195749326,5888.192996405678
0.536,0.33439897815686787,5901.533233632612
0.54,0.37249048441806354,5898.032206740103
0.544,0.3809530780744386,5893.125782002003
0.548,0.37886104289277994,5898.721252414233
0.552,0.38675998599143174,5907.42049194206
0.556,0.4206724014526129,5898.654752122523
0.56,0.48657061807567353,5903.83964279338
0.5640000000000001,0.5757494102775862,5898.0745288016
0.5680000000000001,0.663317444641348,5894.844691047296
0.5720000000000001,0.7126267644804797,5901.405947298475
0.5760000000000001,0.6857720453698405,5894.211468169957
0.58,0.5560620508286894,5897.890648239662
0.584,0.31648129451409684,5903.012291909919
0.588,-0.019546940906471102,5907.4153464150695
0.592,-0.42403334212655536,5902.962788485263
0.596,-0.8621578468670986,5903.59761377607
0.6,-1.2970517631208007,5901.420604833929
0.604,-1.6903435692347721,5892.526541475683
0.608,-2.00147064560486,5905.225526216147
0.612,-2.190309329871708,5893.4273919529205
0.616,-2.2250557510900846,5896.546887006441
0.62,-2.092519844624632,5903.49283477486
0.624,-1.8052416180785338,5890.9212476954535
0.628,-1.4014917416579389,5890.146556409043
0.632,-0.9381546948002359,5895.462440864279
0.636,-0.4788864001099753,5905.632063607643
0.64,-0.0803215755118808,5902.666490065533
0.644,0.22019764146731338,5898.977092729372
0.648,0.410960866671422,5904.31646315055
0.652,0.5035725546737676,5898.737010217456
0.656,0.5237292715989579,5902.787633941892
0.66,0.5000918314352636,5907.330563192447
0.664,0.45565010613737494,5901.72545097983
0.668,0.40342962768923185,5899.028031919082
0.672,0.34659932965271006,5905.551729537005
0.676,0.28210607858357906,5905.396098279578
0.68,0.20610633587499155,5894.579643749701
0.684,0.11913436504419092,5900.184308602522
0.6880000000000001,0.029439705681512506,5899.751032294565
0.6920000000000001,-0.04665374514893182,5898.549987004901
0.6960000000000001,-0.0882489940214603,5903.363174124014
0.7000000000000001,-0.07660616720604109,5901.125923591326
0.704,-0.0018961864792303373,5902.453488400098
0.708,0.13399661505252353,5898.940480289897
0.712,0.3199317424280674,5897.149575407462
0.716,0.5407420901048303,5902.768580416289
0.72,0.7812388841497726,5902.20282641247
0.724,1.0266047336604354,5900.473491270507
0.728,1.2597587793408462,5898.461060142899
0.732,1.4584037281932924,5897.562378837193
0.736,1.5946140860203273,5899.413568917141
0.74,1.6382721836694591,5902.385952558977
0.744,1.5635972655891184,5903.780838365921
0.748,1.3566962467923631,5898.599335637672
0.752,1.0219029556063706,5901.927964069931
0.756,0.5850447176080504,5900.447275509177
0.76,0.09208248250349639,5905.9543484536025
0.764,-0.39780581220779465,5908.195494908813
0.768,-0.8240068338205147,5904.139159539308
0.772,-1.1381540527018508,5893.691193868849
0.776,-1.3151861244156005,5904.490259353567
0.78,-1.3576389494641241,5901.4490866340975
0.784,-1.2916641939727744,5898.747131964786
0.788,-1.157041763797222,5898.978352890262
0.792,-0.995831543418128,5896.214219962022
0.796,-0.843527337565767,5898.179384185277
0.8,-0.7240224069647724,5906.8948747763225
0.804,-0.6480501956523539,5897.467758676398
0.808,-0.6143597751325847,5893.2138374306805
0.812,-0.6124594641565756,5892.545995668352
0.8160000000000001,-0.625436351223987,5902.514482988829
0.8200000000000001,-0.6320018094119336,5900.122913156255
0.8240000000000001,-0.6080511723451231,5896.989986425121
0.8280000000000001,-0.5287350440676355,5906.802184485645
0.8320000000000001,-0.3722235165814687,5907.685975870904
0.836,-0.1257735336964191,5904.591722528419
0.84,0.20707035467146268,5899.592463507005
0.844,0.6013550163976847,5896.359608552297
0.848,1.0112165234211665,5900.657615357309
0.852,1.3774122731511902,5900.932724318851
0.856,1.6399822016097962,5897.717151618676
0.86,1.7517737019280324,5902.084666896294
0.864,1.6887041511308123,5907.04241513642
0.868,1.454792210594252,5904.442139574715
0.872,1.082036688714198,5893.440373747082
0.876,0.6257072579587256,5891.650285968731
0.88,0.15507325885094606,5902.70745955113
0.884,-0.260236418266946,5896.0082734168745
0.888,-0.5660094238552075,5904.7084854795
0.892,-0.7363808950705311,5901.2038932721925
0.896,-0.7784560866737799,5903.251772465951
0.9,-0.7263150441709285,5904.212495026142
0.904,-0.6269030826399639,5900.867850371775
0.908,-0.5237943267487193,5902.223163978013
0.912,-0.4454618407360132,5904.332836443208
0.916,-0.4023792862611647,5911.20355495453
0.92,-0.3927441465870966,5912.169680966286
0.924,-0.41190515565971747,5898.710321029645
0.928,-0.45865136930694034,5900.632342501646
0.932,-0.5340629638088675,5897.31061954725
0.936,-0.6342806423105181,5906.958963917436
0.94,-0.74333306615681,5905.9542923616855
0.944,-0.8322883209440131,5894.793926672118
0.948,-0.8665140368654414,5905.279563851506
0.952,-0.817717994018696,5902.0339433868685
0.956,-0.6752053758038827,5909.167019869677
0.96,-0.4515409289278401,5904.7619211908905
0.964,-0.18017198774194584,5898.970235709679
0.968,0.09416704023758361,5908.3700163281865
0.972,0.328243075367582,5902.471958849401
0.976,0.4909165028004817,5898.1414668774405
0.98,0.5675077674506389,5899.3813936024335
0.984,0.557144951076749,5893.997468858839
0.988,0.4659162653959605,5905.229803984806
0.992,0.3008577650913963,5899.97140895228
0.996,0.06892423648671013,5902.406693321336
1.0,-0.218562667574902,5905.885450708087
1.004,-0.5393595819015568,5904.879375522708
1.008,-0.8565961128582211,5914.345837016726
1.012,-1.1214801596771755,5902.51438895394
1.016,-1.2826486909485884,5907.580945219076
1.02,-1.2990179321601554,5910.207130047732
1.024,-1.1512247444257497,5899.672198192314
1.028,-0.8474297981891202,5904.852027199919
1.032,-0.42192056019207547,5893.077091041033
1.036,0.07208395222729459,5902.565358830526
1.04,0.5725792263463865,5892.746160790412
1.044,1.0194128900434132,5908.61667869082
1.048,1.3638757890010325,5898.12949988948
1.052,1.5761947060591983,5902.932938120699
1.056,1.650169496437441,5904.877436263892
1.06,1.6042893374236453,5901.803282340402
1.064,1.4782537500456927,5891.733890563817
1.068,1.3240239981260968,5909.263295233136
1.072,1.1926511883743172,5902.549766764737
1.076,1.1207882793839667,5899.718875675096
1.08,1.1212574704115839,5898.71137424901
1.084,1.1801445666869537,5905.415255742789
1.088,1.2608199515389888,5892.167327595027
1.092,1.3140856687389053,5909.055508979622
1.096,1.292503213482336,5895.45901286811
1.1,1.1653809901188301,5901.736396687256
1.104,0.9296605656150959,5887.742770484697
1.108,0.6122926968129514,5900.768756438274
1.112,0.2625119797058811,5910.795551398604
1.116,-0.06300926403816469,5899.331496494743
1.12,-0.31565603789104135,5901.877775800846
1.124,-0.46490062984050784,5900.279137452285
1.128,-0.5006944251905389,5899.38198122199
1.132,-0.43041468386007387,5903.812939158371
1.136,-0.2742946819114374,5902.973338554622
1.14,-0.06184225785400266,5902.779244498097
1.144,0.17088488722248665,5902.632598678893
1.148,0.3846704350593425,5901.587514597353
1.152,0.5420687029762623,5901.670169335363
1.156,0.6133234070624063,5889.294898310862
1.16,0.5820941424073732,5897.256073508013
1.164,0.4501382198794498,5903.378464876441
1.168,0.24041462176079534,5899.442116077045
1.172,-0.002551640864943367,5904.842002076523
1.176,-0.21738810042788928,5903.977624162332
1.18,-0.3376873499679168,5899.674480253711
1.184,-0.30965696806996496,5902.255108946252
1.188,-0.11003465571030548,5903.000711515402
1.192,0.24297320005402584,5902.071201193265
1.196,0.6905492703625836,5908.682016065089
1.2,1.1460582108557216,5901.676095623979
1.204,1.515667320975198,5901.520275270099
1.208,1.720429293099566,5897.5156302571895
1.212,1.7135398656981347,5899.628732995133
1.216,1.4886696238253974,5903.307619446942
1.22,1.0787357759500122,5897.158230226828
1.224,0.5473932104726319,5897.481631299198
1.228,-0.023716549507196386,5893.144960483717
1.232,-0.5495473493525744,5916.6999365072825
1.236,-0.955665653691628,5912.135833040336
1.24,-1.1888585515587373,5908.510298378386
1.244,-1.2225161024018194,5903.283604759903
1.248,-1.0575547018480844,5898.468848395834
1.252,-0.7212509556685253,5898.973945321394
1.256,-0.2651469035955872,5896.808595162302
1.26,0.23945649539038596,5901.266992675761
1.264,0.7109036769564101,5901.074441341058
1.268,1.0718668680442798,5897.011296231439
1.272,1.2659078920730846,5896.808292241211
1.276,1.2700063553394954,5902.489163536015
1.28,1.0980473713157575,5897.986178142837
1.284,0.7943308106485284,5903.388897441246
1.288,0.420656773971056,5905.87221292032
1.292,0.042265616128461775,5893.154656603117
1.296,-0.28379569232160407,5899.309942375089
1.3,-0.516936073932296,5899.328434705587
1.304,-0.6379954031733882,5899.187823791087
1.308,-0.6506907183746908,5905.897923662938
1.312,-0.5791197520350772,5897.516149572023
1.316,-0.46126881119552016,5900.056600908101
1.32,-0.33922465511845173,5899.809523559059
1.324,-0.24801971002336903,5910.015096907385
1.328,-0.20606918909655617,5893.16964444717
1.332,-0.21008524955020122,5912.9959252103445
1.336,-0.23656764845253597,5901.971597207526
1.34,-0.25087787009466334,5899.864342664446
1.344,-0.22252065940787966,5901.562059124833
1.348,-0.14147508111025187,5904.151223463337
1.352,-0.027911071734489562,5892.160480247007
1.356,0.07063362942518683,5906.991118542011
1.36,0.09479482590582085,5903.20263531506
1.364,-0.004386586120846489,5899.758897583744
1.368,-0.2453912737217807,5896.817937205496
1.372,-0.6054707343606093,5903.601590121451
1.376,-1.0221729693816146,5903.248203547054
1.38,-1.406153423251212,5912.512452334351
1.384,-1.6619433627159743,5900.152203130718
1.388,-1.7122399621863102,5906.478516973686
1.392,-1.5204457625172498,5902.45947433659
1.396,-1.1053897695055859,5910.689489528535
1.4,-0.542565444997903,5898.801508625477
1.404,0.05059990208891599,5902.16207754724
1.408,0.5422935337834026,5907.388585863071
1.412,0.8184226609260875,5904.820972061183
1.416,0.8095981725228694,5899.750718570065
1.42,0.5061062318930962,5899.236417276538
1.424,-0.041178549098713796,5905.3660730169
1.428,-0.7319033739390306,5898.77300513832
1.432,-1.4355764895933432,5895.803205964622
1.436,-2.0153984538174288,5899.621977022459
1.44,-2.353217751974333,5902.641320318993
1.444,-2.3721607284843724,5900.853504218631
1.448,-2.053087485920329,5899.555789382395
1.452,-1.4407308477522305,5905.107252387681
1.456,-0.6361992159363226,5906.56510109165
1.46,0.22420281736764525,5898.33770904596
1.464,0.998647784763215,5901.608563969069
1.468,1.5690380168743474,5899.960427760123
1.472,1.8620712617322777,5891.606655107891
1.476,1.8591393042855544,5898.031237254536
1.48,1.595745923950749,5902.6758871094535
1.484,1.1515330073956203,5891.633423626103
1.488,0.6317826971803033,5900.156074572912
1.492,0.14323049555727224,5906.361797673653
1.496,-0.22995568809238473,5908.995007464108
1.5,-0.44340954618414086,5895.762702006594
1.504,-0.4987291682972324,5906.911977918959
1.508,-0.4374257852486316,5902.669454401903
1.512,-0.324124384291706,5905.46844240735
1.516,-0.22356052988788158,5891.837955494228
1.52,-0.17897189831063573,5901.940325964663
1.524,-0.19961004630233595,5899.2496917884
1.528,-0.26131208699220365,5899.003003539821
1.532,-0.318805478680426,5897.44417673784
1.536,-0.32432304106858556,5893.742632443769
1.54,-0.24525751262190648,5903.783113287415
1.544,-0.07447377226378818,5906.4030788701775
1.548,0.1693992603676253,5902.177119564064
1.552,0.44957823631758037,5899.651579920011
1.556,0.7218747323999484,5904.414370660282
1.56,0.9448139947193592,5902.200370961167
1.564,1.0878147198581196,5896.681238601252
1.568,1.1371012476851443,5899.8063572013725
1.572,1.0982651909523702,5905.171500146789
1.576,0.9938601444727969,5902.2277339273605
1.58,0.85558697736526,5901.71042069693
1.584,0.7132550238795481,5896.51021945415
1.588,0.5850891264529635,5901.160555552637
1.592,0.47397395588575675,5907.162954736035
1.596,0.3711306311596326,5893.150106611352
1.6,0.26441704304352787,5898.547515434429
1.604,0.14619688052744273,5906.949875484761
1.608,0.016949414190055516,5898.376284155463
1.612,-0.11608673817793416,5902.803105262929
1.616,-0.24327580720415373,5902.0757066746255
1.62,-0.35698424506465537,5893.687823323703
1.624,-0.45385563589802025,5898.554482305529
1.628,-0.53466871271509,5904.739581962717
1.632,-0.6029897014209561,5905.695101388549
1.636,-0.6639910608413556,5907.281762879622
1.64,-0.7238909602015761,5896.215204951327
1.644,-0.7896083145602055,5894.278907165513
1.648,-0.8681710398561004,5907.646221149375
1.652,-0.9657227370288491,5902.177682199143
1.656,-1.0859899068476668,5903.971813375867
1.66,-1.2279367334223759,5898.040965636814
1.664,-1.3824398122551083,5910.998933730699
1.668,-1.5283910375603713,5894.941182984427
1.672,-1.629952412337438,5911.36385227184
1.676,-1.6382838351205626,5901.913456449232
1.68,-1.5010718534162266,5903.301140133785
1.684,-1.1799623080478643,5900.109318940678
1.688,-0.670728004337971,5901.991947960625
1.692,-0.017438036482633087,5901.923780224246
1.696,0.6871098641586448,5900.209671191103
1.7,1.317314392126898,5909.584185967701
1.704,1.743209729958801,5907.038334306956
1.708,1.8628535883605721,5904.101260256739
1.712,1.6289060244644966,5892.28033186378
1.716,1.0616717625044552,5902.684560608948
1.72,0.24483863921351368,5905.620576052092
1.724,-0.6947733454922347,5893.257764834173
1.728,-1.6169460073936286,5899.9736260634645
1.732,-2.39769811580338,5905.5993851083085
1.736,-2.950250157451821,5908.036726971434
1.74,-3.233326617102448,5903.471440955916
1.744,-3.248028513550486,5898.290455525753
1.748,-3.0276396798302905,5899.474220346581
1.752,-2.6253706746991745,5894.889199360333
1.756,-2.104049486095264,5907.560537350005
1.76,-1.5294269184024887,5907.413715281711
1.764,-0.9658703993118123,5912.248832242217
1.768,-0.47193696825169473,5898.501510225368
1.772,-0.09474010950412119,5897.899521794622
1.776,0.13562124311947746,5907.767237420607
1.78,0.20955524067140247,5896.2340524524
1.784,0.138465766660687,5910.84686136973
1.788,-0.04767881042727125,5894.069732530561
1.792,-0.3056601933966567,5906.436081213046
1.796,-0.5869261029854985,5902.537816742738
1.8,-0.8463353046674662,5890.265643222156
1.804,-1.048832066816617,5904.607000752643
1.808,-1.172188709540676,5892.805030619237
1.812,-1.2063220445392648,5907.710227844455
1.816,-1.1511158266558144,5897.560408099543
1.82,-1.0143009078454002,5905.397655276018
