时间(s),电压(V),幅值(高频80K)
0.0,2.581230634987452,5898.399187828684
0.004,1.8584653320012297,5897.384224343624
0.008,1.1545252976741573,5901.395010544045
0.012,0.49321004432294946,5902.085089668135
0.016,-0.10053630231116982,5891.983978490174
0.02,-0.6016872631536073,5910.225276184985
0.024,-0.9864793211362003,5902.470769082048
0.028,-1.2337372691284154,5902.498094308983
0.032,-1.3276777393053587,5902.661489000859
0.036,-1.263644355594702,5896.636295247799
0.04,-1.055250941449219,5897.7860309898215
0.044,-0.7383957822365992,5904.664879740309
0.048,-0.3682493891602415,5898.010639713594
0.052,-0.009234439437069088,5895.689920667341
0.056,0.2784576704528032,5906.786458601515
0.06,0.4513754095073036,5906.007354556974
0.064,0.491027067490393,5894.635069341871
0.068,0.40616667947772916,5899.626684989557
0.072,0.2288882004115818,5900.3869604368765
0.076,0.005568542072329004,5904.246977669651
0.08,-0.21468648767243478,5893.665671939427
0.084,-0.39038610510361765,5898.678608152823
0.088,-0.4941378952261078,5905.724684635276
0.092,-0.515263740057786,5896.429125508045
0.096,-0.4599275957929692,5907.430306309521
0.1,-0.3489378465237602,5901.992597222805
0.104,-0.2119608724199619,5895.490612266836
0.108,-0.07805759703411738,5902.961876751987
0.112,0.03449457790301294,5893.00150958993
0.116,0.12434681374540404,5901.8754274601815
0.12,0.20567443021766954,5895.806816864445
0.124,0.2991152012459895,5900.55546212037
0.128,0.41861263284972267,5903.953587075508
0.132,0.5598896101311159,5901.341606192382
0.136,0.6958157326433443,5901.134277806873
0.14,0.7811017302147332,5898.7854317872325
0.144,0.7651403918282846,5904.033210649446
0.148,0.6089124500885237,5905.331965969872
0.152,0.30028170199564747,5909.243493844946
0.156,-0.1377571663711246,5903.402925725791
0.16,-0.6486503982159061,5906.929144293475
0.164,-1.152489188719898,5898.732362769659
0.168,-1.561244366882109,5899.141949193599
0.172,-1.7956922380003173,5897.0261091095945
0.176,-1.801656228856446,5888.518582630265
0.18,-1.5630207912199,5898.120839341631
0.184,-1.108301801088162,5896.29564158123
0.188,-0.5078214581276548,5900.787436658211
0.192,0.13972175519215985,5896.603683690087
0.196,0.7294325480561561,5893.148239206468
0.2,1.1756797654152225,5906.340541663594
0.204,1.4327799891500437,5897.143912941877
0.208,1.5031540823494123,5903.754699904555
0.212,1.4296214474025863,5910.0935646689895
0.216,1.2757503948191349,5902.912736133483
0.22,1.1037143042748678,5902.050295272227
0.224,0.95859971729771,5896.505430494999
0.228,0.862390053460846,5896.731711537857
0.232,0.8151072496378996,5904.768294346143
0.236,0.79893974469259,5908.341661499536
0.24,0.783354448540508,5905.493067312287
0.244,0.7318082993550615,5903.92541205526
0.248,0.6107058295345634,5906.151679682323
0.252,0.3989371837561133,5898.232341784061
0.256,0.0946347374304858,5903.174795429487
0.26,-0.2834603915523118,5896.29199737092
0.264,-0.7003592366084225,5904.543981978843
0.268,-1.1129248384143022,5897.88704265363
0.272,-1.4782334336719958,5892.56602839193
0.276,-1.7592901655418653,5899.256508744783
0.28,-1.9280820245958903,5907.2146631132055
0.284,-1.9684262182942316,5892.216537422026
0.288,-1.880027991824425,5898.735351716831
0.292,-1.681656743025739,5900.79727607962
0.296,-1.4095104042137816,5897.475147366217
0.3,-1.1087882452997129,5894.673021614108
0.304,-0.8207426999793868,5898.3706050421815
0.308,-0.5709686782317077,5895.701601457275
0.312,-0.3647563110088736,5901.489763697654
0.316,-0.19150235262760887,5912.548067518607
0.32,-0.03500815664193225,5893.856119149993
0.324,0.11639752490991932,5903.276935251464
0.328,0.2649320597139419,5901.497854517455
0.332,0.40495036709593585,5905.840514880547
0.336,0.5287796571164552,5891.9584462448165
0.34,0.6329092067707048,5899.541306011642
0.344,0.7210613270301623,5897.97000684548
0.348,0.802610678012978,5906.672401470191
0.352,0.8878248983641334,5902.453980560603
0.356,0.9836984221660637,5902.9124878579305
0.36,1.0933011981251886,5900.040751093889
0.364,1.2178873861822084,5901.833567234669
0.368,1.3581032311551233,5897.4725140526825
0.372,1.5113328937989945,5902.125310059221
0.376,1.6658180691275863,5900.132497312587
0.38,1.7956983624095901,5897.730507813967
0.384,1.8617119146013819,5908.242580993734
0.388,1.8193024702222595,5890.959371168306
0.392,1.6317314087579182,5902.597626899255
0.396,1.2836990032017168,5894.838085542987
0.4,0.7913675939348784,5907.276215922427
0.404,0.20573950350877435,5897.71276630566
0.408,-0.39272766855259333,5907.273767178276
0.412,-0.9088547246139078,5895.611493014996
0.416,-1.2546345503272835,5895.592912369919
0.42,-1.372554565384496,5897.001405328027
0.424,-1.2524429044612377,5901.001498218698
0.428,-0.9355037643549375,5911.229681329211
0.432,-0.5039767882315871,5899.969057521808
0.436,-0.059763817708848616,5905.451889585022
0.44,0.3014270076805666,5899.656254325391
0.444,0.5125198695267688,5900.818586008452
0.448,0.5472481600773442,5895.996307202476
0.452,0.41904051361276906,5899.7977534900965
0.456,0.16882940328976637,5901.05414927244
0.46,-0.15164711476649959,5900.839353519722
0.464,-0.4931912688572082,5901.514288665832
0.468,-0.8142590682047054,5903.247559608928
0.472,-1.078723690801208,5905.903285272257
0.476,-1.2515505233388269,5901.140705539677
0.48,-1.2977029738581747,5904.747098599901
0.484,-1.1866382883892939,5897.535352740304
0.488,-0.9016952684060332,5910.391878022897
0.492,-0.4513475447020821,5889.168298506121
0.496,0.12260393357480805,5902.655221404099
0.5,0.7453164268090694,5910.835112822691
0.504,1.3207386854720682,5891.4820855975495
0.508,1.7531603628983667,5905.495093329767
0.512,1.971562272619149,5901.203334001876
0.516,1.9476682913484826,5897.445354652547
0.52,1.7010385157829995,5904.6514110217895
0.524,1.290476800518174,5906.022790500381
0.528,0.796848979207275,5899.9961016187
0.532,0.30453317593299467,5897.034525132227
0.536,-0.11336954289215373,5890.866802637507
0.54,-0.4044067009839787,5903.596645267767
0.544,-0.5411109156822964,5901.915602875888
0.548,-0.5211786515007379,5910.940785920065
0.552,-0.364490088572967,5898.883223363463
0.556,-0.10799445735978754,5898.699988260443
0.56,0.20076952823733643,5902.7408072745775
0.5640000000000001,0.5109470331436728,5892.8025836659535
0.5680000000000001,0.7756466412249637,5901.058910483909
0.5720000000000001,0.9580314410339422,5898.75120997897
0.5760000000000001,1.0350507871739536,5903.878364336295
0.58,0.998471101534106,5898.422801103491
0.584,0.8539726079161294,5908.5540172986
0.588,0.6194585605527677,5902.097157388167
0.592,0.32315252309120696,5897.996541762081
0.596,0.0012490657159606958,5909.887185146035
0.6,-0.30553026664783345,5899.752437834145
0.604,-0.5569713543663609,5896.16451216847
0.608,-0.7197784215122569,5900.228813694294
0.612,-0.7741648231784278,5906.375220713219
0.616,-0.7188347355364817,5897.755343802698
0.62,-0.5727836836302677,5902.075470893918
0.624,-0.37310429795363004,5897.374931385161
0.628,-0.16887955225352977,5896.588920264551
0.632,-0.012163159378749901,5902.421916854364
0.636,0.05218001611621868,5900.324868967629
0.64,-0.00434181534099841,5903.996478357011
0.644,-0.18754752531058214,5892.644338899087
0.648,-0.47830572166261437,5898.840422566513
0.652,-0.8342990656011745,5897.192828512786
0.656,-1.1951610736247427,5899.074004463281
0.66,-1.490670744959944,5896.30587993833
0.664,-1.6523669544481994,5912.095994698176
0.668,-1.6283095462300499,5909.7211641134045
0.672,-1.3982475449617766,5904.359118670711
0.676,-0.9839788316988191,5898.391448619693
0.68,-0.4497210735152765,5902.499097868468
0.684,0.10961673282235014,5900.871029299206
0.6880000000000001,0.5899365904879265,5899.9833953528805
0.6920000000000001,0.9032190156646451,5900.290171178984
0.6960000000000001,0.9990933835699847,5895.389901847491
0.7000000000000001,0.8764842517055248,5899.090930892877
0.704,0.582398751549371,5893.279884697601
0.708,0.19882663631516315,5898.67872467958
0.712,-0.17833206395114237,5902.654954789818
0.716,-0.4629385515657371,5897.747535711158
0.72,-0.5989427257211615,5899.732308811654
0.724,-0.5718162524525865,5894.472968499836
0.728,-0.4079831310857248,5899.089844282176
0.732,-0.16352335885354105,5907.036146336152
0.736,0.09262543347170801,5891.413830984109
0.74,0.2949306098736699,5904.473564886731
0.744,0.3935082429874808,5891.136927521414
0.748,0.3620677881905791,5895.197724526492
0.752,0.20225134982854034,5901.72618624443
0.756,-0.05623564445423806,5908.10487635792
0.76,-0.3613889637792615,5900.328894905669
0.764,-0.6510243532943576,5905.76313011508
0.768,-0.8686251759845982,5898.962668297286
0.772,-0.9777434077719923,5908.377599852549
0.776,-0.9696431485495721,5903.161122615886
0.78,-0.8613016201355373,5892.055285056592
0.784,-0.6850095670775961,5902.869412316392
0.788,-0.4749221314443139,5901.967879765657
0.792,-0.2573491979992765,5899.50562335651
0.796,-0.048845062082850076,5902.946383935306
0.8,0.13898472555315422,5901.601528882765
0.804,0.29288842537864,5894.194937478847
0.808,0.394712429070048,5903.235903916023
0.812,0.42382448118108024,5896.236094759333
0.8160000000000001,0.3641960069970884,5903.178801761465
0.8200000000000001,0.2130209980170938,5896.948505096332
0.8240000000000001,-0.012807672030817754,5897.756905220935
0.8280000000000001,-0.27546015385611916,5901.4403743357225
0.8320000000000001,-0.5216696721231763,5886.707631262869
0.836,-0.6940670951380148,5895.029152309416
0.84,-0.7452377459844216,5908.86113665579
0.844,-0.6504268648838117,5895.446714596423
0.848,-0.41508159725751176,5896.045176254109
0.852,-0.07454286096643994,5907.376497637222
0.856,0.3145280962953136,5891.404442866716
0.86,0.6882781786966791,5903.384657874431
0.864,0.9904349296497101,5896.774416115731
0.868,1.1829823519923042,5907.5216881360975
0.872,1.2500877980029395,5899.209635735037
0.876,1.1953309660621396,5901.120334636097
0.88,1.0347147625713984,5902.853696983068
0.884,0.7893374568406712,5910.024632393808
0.888,0.48113332303266776,5907.779779809288
0.892,0.13267877250149754,5897.694586504487
0.896,-0.23090384883142845,5893.842281422493
0.9,-0.5813655061991324,5900.113582819043
0.904,-0.8903690499437522,5907.291941989937
0.908,-1.1355723276591139,5904.58300333623
0.912,-1.3065555628052108,5895.396011706901
0.916,-1.4067191601861604,5903.007528368284
0.92,-1.4490328557428207,5894.520965599105
0.924,-1.4468335033550928,5892.074835628072
0.928,-1.4039863709578735,5907.102855861319
0.932,-1.3098545926678542,5890.178964724403
0.936,-1.142845458697472,5896.645926600145
0.94,-0.8824343925694579,5901.809965463181
0.944,-0.5252683102107506,5892.871656804773
0.948,-0.09825183256254245,5905.451831389631
0.952,0.3382772686492697,5894.23893710483
0.956,0.7008380584581638,5892.815535838352
0.96,0.9045708607248693,5904.236823783882
0.964,0.8891278496133938,5899.53084454325
0.968,0.6391169701665694,5906.675683034335
0.972,0.19166559625336074,5899.55861206965
0.976,-0.3713498725092276,5903.228147244977
0.98,-0.9436804680255029,5901.319456805582
0.984,-1.4211196377964763,5901.412112396957
0.988,-1.7254894418425546,5890.4770776261375
0.992,-1.8187629937865946,5897.950538222725
0.996,-1.7043182272486561,5894.085008639016
1.0,-1.4180169823820352,5901.212219282562
1.004,-1.0150223334214326,5910.634874310304
1.008,-0.5572982388605314,5895.252383539589
1.012,-0.10351243311542646,5891.930848209512
1.016,0.2991717275550913,5909.711227423952
1.02,0.6216318063542383,5889.476498466571
1.024,0.8560621243821707,5908.139941267597
1.028,1.0136282710403526,5901.032254872886
1.032,1.1161000776938002,5901.538334738855
1.036,1.184571951230615,5904.641668889872
1.04,1.2304142618245815,5899.073046854887
1.044,1.2524428166532706,5902.66070397946
1.048,1.2409038468005023,5905.440876124278
1.052,1.1854442701568244,5900.722753553358
1.056,1.0823306177714167,5905.2557165813405
1.06,0.9365986241707613,5891.496939142169
1.064,0.7579984006457987,5904.724154163307
1.068,0.5541943146750495,5899.655866555146
1.072,0.32705069111206586,5907.793767975982
1.076,0.0756681989354302,5904.708574274819
1.08,-0.1950253630922993,5895.502344719666
1.084,-0.4653283441242414,5910.139426470631
1.088,-0.697791530695797,5901.850111247932
1.092,-0.844243027446838,5907.468939726744
1.096,-0.8615619868924677,5897.671028683885
1.1,-0.7293255010441945,5900.085817983244
1.104,-0.46054465295717006,5896.498493781947
1.108,-0.10030199932984965,5900.457615205628
1.112,0.28641961056232446,5900.092902862113
1.116,0.63151897161881,5898.713641945836
1.12,0.8780988716480911,5901.933582499036
1.124,0.9880145395139682,5905.459681502615
1.128,0.942631536334088,5898.229449526587
1.132,0.7400501526510214,5891.463256887284
1.136,0.3925679226633188,5910.687524529343
1.14,-0.07388006340596048,5895.879281922798
1.144,-0.6193248645691266,5900.546396339386
1.148,-1.1909253202583105,5903.628528942628
1.152,-1.7274121875148862,5901.886996533811
1.156,-2.1662660490324384,5897.58235014379
1.16,-2.4516962077746607,5897.566918375569
1.164,-2.5423521545138597,5903.843509120185
1.168,-2.418992332039028,5900.723401029762
1.172,-2.0914318396510705,5900.009621863537
1.176,-1.6016378852302529,5899.515629866365
1.18,-1.0192281431134225,5901.993128359688
1.184,-0.42856588646898147,5897.227866217017
1.188,0.08888148113895349,5909.330996336755
1.192,0.47070012851126614,5896.70642689046
1.196,0.6831011898573945,5910.04313906993
1.2,0.7225229244249849,5891.704253691095
1.204,0.6113122629652781,5903.696042036902
1.208,0.39035887468446534,5901.977965026669
1.212,0.11022154144316598,5907.823034810402
1.216,-0.17862875101003098,5901.128679265088
1.22,-0.4350122696119207,5900.731686895506
1.224,-0.6332412186784826,5898.526917180514
1.228,-0.7645755635400102,5902.65747543614
1.232,-0.8343649706468294,5896.899931654088
1.236,-0.8569436779683184,5908.3509732381535
1.24,-0.8501012194671723,5897.892211032748
1.244,-0.8299697990333169,5907.473872284591
1.248,-0.8073511607308568,5895.440118470138
1.252,-0.7870537122439023,5897.691553296617
1.256,-0.7705309734452747,5910.419286385399
1.26,-0.7597576956528344,5899.538859432209
1.264,-0.7595878108523108,5896.979738073861
1.268,-0.7772100217591744,5909.592519120568
1.272,-0.8189908693757781,5899.400685343228
1.276,-0.8860677403289045,5903.929417214973
1.28,-0.9707449292967116,5902.109032165002
1.284,-1.0558359972343059,5901.072375512466
1.288,-1.1179616964360282,5897.484067146232
1.292,-1.1338564054216844,5895.371862041642
1.296,-1.0873769228817678,5911.050393387071
1.3,-0.9747504199415981,5893.59621778903
1.304,-0.8061221178772213,5899.948553311509
1.308,-0.6025779087350385,5907.493755769136
1.312,-0.38971331592124064,5896.094972763704
1.316,-0.1906386416929863,5895.750102947444
1.32,-0.021641296003603705,5898.897619123845
1.324,0.10804786657913684,5893.003561900386
1.328,0.19390830367360143,5896.1115512797605
1.332,0.2344565132419084,5903.493563372796
1.336,0.23211105483595956,5901.345129177916
1.34,0.1952762688834863,5908.932064901047
1.344,0.1386515239335472,5896.811195120247
1.348,0.08009840171776801,5903.392733968307
1.352,0.03523474762457632,5888.309010636992
1.356,0.012893424465577126,5905.080090921136
1.36,0.01432973611788944,5904.76107118993
1.364,0.03660287621597538,5901.036153305353
1.368,0.07732175508093063,5899.496358979855
1.372,0.13653331859574508,5898.102935324046
1.376,0.21362928680761653,5904.845528352285
1.38,0.3012732847137692,5898.842952173549
1.384,0.3811465759322202,5899.325120518487
1.388,0.4257746451099276,5902.677175996055
1.392,0.40714579953862573,5896.114983225483
1.396,0.3083452312393164,5898.517770482396
1.4,0.1322536863016564,5901.821497557344
1.404,-0.09653141087789187,5899.767103949996
1.408,-0.33610411683240693,5905.27461778555
1.412,-0.5352350049712729,5895.917994235554
1.416,-0.6428701262007985,5907.960909638614
1.42,-0.6180614136399822,5891.321368981408
1.424,-0.43883338449764103,5904.395841107986
1.428,-0.10801130690656764,5908.131292935074
1.432,0.34516768405543385,5908.987197814265
1.436,0.8675923224754494,5901.146328406635
1.44,1.3887006047158617,5907.417024718858
1.444,1.8310537293717999,5898.76439251112
1.448,2.124696808063154,5893.414593316678
1.452,2.222885250525097,5900.970106549917
1.456,2.115302770081743,5906.771267004527
1.46,1.83499790317937,5906.7351896261625
1.464,1.4558423087908472,5894.581263713198
1.468,1.0784895686678653,5899.404637595363
1.472,0.8062142753735173,5903.092275642072
1.476,0.7168840679689397,5905.497658840609
1.48,0.8399766366138564,5897.657100636264
1.484,1.1457923586544674,5901.182720297283
1.488,1.5495524791657054,5897.0757206272365
1.492,1.9291148169960184,5896.203978582483
1.496,2.1528359419929,5896.592981590661
1.5,2.1123200405997955,5900.907944169016
1.504,1.752339591462899,5895.537995535784
1.508,1.088955225445317,5901.721796722345
1.512,0.2094537770096682,5913.297305258328
1.516,-0.746421719577769,5893.9063345943205
1.52,-1.6186107558769867,5896.103746810988
1.524,-2.2632523533398174,5900.455914816587
1.528,-2.5834338583942045,5898.965276384765
1.532,-2.5457216388321235,5900.943867143926
1.536,-2.17921164900727,5903.409441003539
1.54,-1.5607726931098054,5897.124878707575
1.544,-0.794381975213814,5888.881222722533
1.548,0.008713672057654802,5902.456925676762
1.552,0.746384000437661,5910.779110650384
1.556,1.3384295973582434,5898.273805084723
1.56,1.73537433695131,5901.571622450286
1.564,1.922060998702879,5900.244444824116
1.568,1.915614224675979,5897.2032775276775
1.572,1.7586693656468195,5908.687744429087
1.576,1.5094049343154863,5904.034287675931
1.58,1.2301817474924952,5895.491575066531
1.584,0.9770809840695148,5895.534751554389
1.588,0.7925541760498919,5917.13941672168
1.592,0.7018636827756001,5901.537857019133
1.596,0.7121488601186016,5907.721913168948
1.6,0.8127710922100466,5896.172283963573
1.604,0.9767799971933051,5895.656404988173
1.608,1.1638930185676406,5897.265974932236
1.612,1.324932663519395,5900.023178380576
1.616,1.4076218651588137,5899.130113103179
1.62,1.3642630504260784,5899.16431777859
1.624,1.1616493872336167,5903.999136431055
1.628,0.791564427686983,5899.082770245731
1.632,0.27765239403631625,5896.872774850605
1.636,-0.3258484954135145,5907.704728116552
1.64,-0.9446863517872153,5909.712407713279
1.644,-1.5010585802972018,5896.2549130189645
1.648,-1.9300568625546328,5900.064246194708
1.652,-2.190778421301454,5899.228872469556
1.656,-2.2694460086785173,5891.4522395486265
1.66,-2.1754724786515776,5897.189180973909
1.664,-1.934192426851632,5910.330236942382
1.668,-1.5800209527460651,5901.201872251213
1.672,-1.1514022248500417,5905.123807689371
1.676,-0.6869398027698018,5903.075363647675
1.68,-0.22236851512915004,5902.127619922827
1.684,0.2110785085145302,5899.780216295177
1.688,0.5869350150944692,5892.330170241808
1.692,0.8836448942573875,5899.564049520694
1.696,1.0856765237849793,5894.271749834349
1.7,1.1852776833949434,5897.799597814908
1.704,1.1835143117290654,5907.901673693242
1.708,1.0894593139409656,5900.952557541888
1.712,0.9173145103632336,5901.023091099051
1.716,0.682118137278199,5915.272248376404
1.72,0.39558968793636223,5898.400525923311
1.724,0.06458543511544088,5903.282570462089
1.728,-0.30561972283333977,5910.987942106556
1.732,-0.703493293018494,5907.051931410982
1.736,-1.1028216471986363,5903.824114519715
1.74,-1.459908951435028,5896.456118788665
1.744,-1.7209502241485997,5894.463226060499
1.748,-1.8385646812837515,5900.323068810486
1.752,-1.7904320076917513,5910.613822829676
1.756,-1.5910976161414185,5897.665609300047
1.76,-1.2915685102133858,5908.547003069732
1.764,-0.966884185985529,5904.989798417962
1.768,-0.6956436426612932,5895.9825051976695
1.772,-0.5372755063328007,5901.752374839928
1.776,-0.5139660560219578,5901.540604389565
1.78,-0.6038631440073028,5902.689463129951
1.784,-0.74877366058563,5902.144840415129
1.788,-0.8738177178284371,5904.178166092162
1.792,-0.911483311862216,5909.586162622841
1.796,-0.8209063214813292,5900.728837910727
1.8,-0.595719485431369,5895.463992593927
1.804,-0.25931800453635934,5901.778997501818
1.808,0.14796638097525883,5899.936771754682
1.812,0.582796576493458,5901.697223749606
1.816,1.0086572518152206,5890.85015792896
1.82,1.4002755779019553,5900.423957827008
1.824,1.7440190828502733,5903.635409749221
