时间(s),电压(V),幅值(高频80K)
0.0,-0.7132469678460022,5910.289053836495
0.004,-0.7485995519230433,5902.499232500963
0.008,-0.7785281132431254,5901.451695976026
0.012,-0.7783753935135957,5893.021035069838
0.016,-0.7184733242064107,5908.6671663887255
0.02,-0.570153783403832,5898.692143862747
0.024,-0.31299880318225015,5900.912109713894
0.028,0.059330349474240235,5897.191472405973
0.032,0.5350759565386609,5892.646873938504
0.036,1.0820233963589219,5897.342942063223
0.04,1.6480146849017507,5904.657908889607
0.044,2.166118699560873,5896.092061979449
0.048,2.564459940198902,5909.258581452454
0.052,2.778410837436557,5899.223863550676
0.056,2.7625130625328342,5892.40439135583
0.06,2.5006480953418406,5899.348365171559
0.064,2.013173963470172,5906.772902189857
0.068,1.3583722631360364,5899.7131396522445
0.072,0.6249241720644338,5899.359889938712
0.076,-0.08544037911121115,5903.525543514455
0.08,-0.6811425703960167,5896.090861745083
0.084,-1.1017548626107043,5909.681604809781
0.088,-1.3286061824146647,5899.835264266716
0.092,-1.3813643128346407,5899.680678919314
0.096,-1.3035637534960616,5906.369407473253
0.1,-1.1444070916682616,5893.180901469661
0.104,-0.9443107732084424,5903.563319978545
0.108,-0.7287681868624163,5902.514272936042
0.112,-0.5110066245032737,5894.996667153625
0.116,-0.2999986810100059,5901.310483605863
0.12,-0.10826637826987076,5908.279770320389
0.124,0.045129910868326295,5895.85935877133
0.128,0.13757105679411671,5903.836349086677
0.132,0.14948663711488233,5897.057248540626
0.136,0.07110632745761618,5901.852473543871
0.14,-0.09280079171705755,5900.3760067486055
0.144,-0.32068885342386266,5902.163293679644
0.148,-0.5748246884153783,5899.400634844665
0.152,-0.8058402329875591,5896.346514179364
0.156,-0.962091880571316,5889.69320186715
0.16,-1.0022436505167267,5903.660338717753
0.164,-0.9066226282473533,5904.0734781279325
0.168,-0.682652371951466,5904.161412025052
0.172,-0.362876862956555,5895.58849488129
0.176,0.002164711720311928,5902.433573130244
0.18,0.353008386720549,5900.160086378949
0.184,0.6306997832826332,5895.4401947150845
0.188,0.7862904425411578,5904.192809179245
0.192,0.7896571974154514,5901.819957914081
0.196,0.6360515220388321,5898.484927416594
0.2,0.3487157598815217,5897.127315880696
0.204,-0.023800876951299187,5905.007928141238
0.208,-0.4164754158154005,5901.405406244058
0.212,-0.7616834588605897,5899.457415372929
0.216,-1.0037528989271212,5904.064173430845
0.22,-1.1084335374155814,5900.591837398446
0.224,-1.0641904533832947,5904.6450726342255
0.228,-0.8769006274494479,5895.835147884701
0.232,-0.56254113077781,5904.987714096404
0.236,-0.14250969081052364,5894.658705254457
0.24,0.35601371936632364,5897.3624513199
0.244,0.8958500064644573,5902.754550918542
0.248,1.4261751126105613,5901.780538631301
0.252,1.8843123386027343,5904.693777189645
0.256,2.2049212211021874,5906.006571687209
0.26,2.334567716183911,5899.488307954967
0.264,2.2471132439960155,5902.721591319259
0.268,1.9549797229167205,5901.371231509056
0.272,1.5125491542186258,5901.394482153608
0.276,1.0097019488471808,5896.152698265843
0.28,0.555299406723217,5894.933905123745
0.284,0.25269369077137305,5895.348566278393
0.288,0.17221180582911877,5894.264240584566
0.292,0.3282107523071716,5901.252326476128
0.296,0.669531870140369,5906.914415006486
0.3,1.0901030113696641,5901.434871252431
0.304,1.4595066228267604,5905.144572248984
0.308,1.6636551278583869,5907.23777527148
0.312,1.639456230306588,5896.893719859418
0.316,1.3897986241493039,5915.78840715741
0.32,0.9752704075268588,5906.199507722375
0.324,0.4895911158722434,5899.71893324873
0.328,0.03036939439841012,5893.425846317135
0.332,-0.3248170239688357,5905.3232497357085
0.336,-0.5315033244458078,5909.292819799714
0.34,-0.5800961907854432,5895.526172790072
0.344,-0.49010270068070183,5893.598940461617
0.348,-0.3020744813216261,5905.405676352177
0.352,-0.07014418747187617,5903.886878474444
0.356,0.14553074512179653,5902.633515649
0.36,0.28810511693851953,5891.813793301729
0.364,0.3149288097178846,5899.518490564232
0.368,0.20747560438440746,5897.707873999024
0.372,-0.022992501286623095,5900.41536606501
0.376,-0.33664204097001404,5895.907977716071
0.38,-0.6739311105704143,5890.223959067111
0.384,-0.970288030147792,5898.550650228173
0.388,-1.1723141803224322,5902.844447478802
0.392,-1.2501745663776291,5903.653209188298
0.396,-1.2021762629403436,5903.245294203964
0.4,-1.0507981732367258,5899.181096094218
0.404,-0.8327282533227364,5898.021220201325
0.408,-0.5871443024896531,5901.427656425207
0.412,-0.3462844632291095,5908.935714761819
0.416,-0.1307071652326017,5909.339878216
0.42,0.050809354104404014,5903.341602637442
0.424,0.19867678385704737,5905.223353598672
0.428,0.31927232531381505,5898.1674571300455
0.432,0.4218288147678114,5906.829399216234
0.436,0.515081896181318,5905.285994878144
0.44,0.6036012467921323,5901.242274014501
0.444,0.6850364525891417,5896.160577782037
0.448,0.7500297143369222,5901.385893989612
0.452,0.7850996406779892,5905.438376230127
0.456,0.776750894146568,5903.171631754947
0.46,0.7147000297777079,5903.793461638614
0.464,0.5935668593654875,5911.29057399065
0.468,0.413800829715594,5899.039499326387
0.472,0.18258033765436668,5902.640273018983
0.476,-0.08570048935378463,5905.518180666911
0.48,-0.37057425757334095,5903.260680849108
0.484,-0.6492389508574586,5903.073105632564
0.488,-0.9025948124404543,5899.87498529609
0.492,-1.121181648149539,5902.7430191375815
0.496,-1.3067964943821941,5901.288008891615
0.5,-1.4665867855261234,5894.541860553947
0.504,-1.6012720812090657,5897.670774041293
0.508,-1.6944951287526255,5894.194467423128
0.512,-1.7111184997623932,5894.012417062519
0.516,-1.607325885727436,5896.727890753561
0.52,-1.348496145165299,5896.117186588543
0.524,-0.9267994214257629,5908.857801811085
0.528,-0.3708947675202175,5905.228192080847
0.532,0.2564258162344025,5910.742476919311
0.536,0.8720605128350629,5895.456258276408
0.54,1.3928684486267764,5889.061792904197
0.544,1.755229339689499,5892.040153698382
0.548,1.9278642841962754,5898.388767688391
0.552,1.9151439856955919,5895.02455547913
0.556,1.7515992021967204,5902.791835800796
0.56,1.4907877633574864,5901.394101201181
0.5640000000000001,1.1924625864805465,5905.6340835702
0.5680000000000001,0.9111820270070895,5908.698382534452
0.5720000000000001,0.687770641080724,5891.9395427083045
0.5760000000000001,0.5435915593730797,5894.237823049572
0.58,0.4777265955309636,5903.580093019878
0.584,0.46850646267933527,5902.745078684623
0.588,0.48084632459084065,5896.918918201996
0.592,0.47807360641461094,5910.278783534271
0.596,0.4337904766449302,5909.675251394989
0.6,0.33920849559506533,5908.023116702508
0.604,0.2041947930318048,5905.907733542028
0.608,0.052903266060294565,5889.971965200113
0.612,-0.08429965570049543,5895.382384187538
0.616,-0.18061749701167032,5891.085409951263
0.62,-0.22142700720990283,5899.732439383512
0.624,-0.20845864534871716,5912.213930830252
0.628,-0.1578813964366151,5889.585044734393
0.632,-0.09319359202445997,5897.161782466009
0.636,-0.035565100148017115,5905.160518848291
0.64,0.004951009576362126,5903.786977641928
0.644,0.033579920672286,5906.914635055155
0.648,0.06762442116142525,5898.657732044182
0.652,0.1265272118923498,5898.843274456521
0.656,0.21988064575940638,5905.770224607768
0.66,0.3395104826426218,5907.056292904776
0.664,0.4592617203764955,5890.697569267164
0.668,0.5419389387524379,5893.70239629315
0.672,0.5503106823678791,5899.036452305791
0.676,0.4589660596141541,5900.099683224693
0.68,0.2643107500364771,5905.629840838649
0.684,-0.010095343877671019,5900.044393095996
0.6880000000000001,-0.3154712498815136,5902.131215895839
0.6920000000000001,-0.5881150360980788,5899.140795684446
0.6960000000000001,-0.7664184687883965,5902.822731634015
0.7000000000000001,-0.8098246762984155,5901.060434698281
0.704,-0.7129578633741689,5897.01089875103
0.708,-0.5089457625932108,5896.045315362162
0.712,-0.2597602691491081,5900.8317596619145
0.716,-0.03645601168897397,5902.332170781901
0.72,0.10376231870807814,5900.03442120803
0.724,0.13515759608544362,5891.560220051837
0.728,0.0689343471077847,5902.182601155567
0.732,-0.0555198216665752,5906.378706523302
0.736,-0.1894285676453232,5893.314035989977
0.74,-0.29446331305966567,5906.394381561102
0.744,-0.3543374334782443,5905.464116267851
0.748,-0.3733996600973263,5899.938490093302
0.752,-0.3640230887918865,5899.958897182159
0.756,-0.3299752466596306,5904.333156160026
0.76,-0.25506149065503053,5900.47437384405
0.764,-0.10399490977615984,5902.924608443368
0.768,0.163403508257872,5901.455921326903
0.772,0.569824063708473,5900.671709003279
0.776,1.0990851147855876,5896.082871626088
0.78,1.6857893418286536,5903.714395513449
0.784,2.223144219893418,5902.354342031194
0.788,2.5891639970674376,5901.932066292464
0.792,2.6829599166497395,5903.537964855793
0.796,2.4575086463403926,5893.628450001372
0.8,1.936441355777584,5900.946128730029
0.804,1.2091155502837543,5907.570250011058
0.808,0.40682535644018136,5899.1686435458805
0.812,-0.33064234672694504,5897.8191731013385
0.8160000000000001,-0.8873863927616827,5898.948823897265
0.8200000000000001,-1.1945593258033813,5900.930980348286
0.8240000000000001,-1.2398335840730732,5899.8785809177
0.8280000000000001,-1.0619648693396342,5902.104713026314
0.8320000000000001,-0.7328940348113767,5900.557179001991
0.836,-0.33356909559192066,5902.951545051136
0.84,0.06838362546223338,5898.012065381889
0.844,0.43201234444145237,5902.152187365699
0.848,0.7438364234073731,5903.167310523216
0.852,1.0074151379843381,5896.131646360582
0.856,1.2274773842633497,5907.237496481263
0.86,1.396398824729056,5899.331034007019
0.864,1.4894739343133416,5906.221614067175
0.868,1.4715438608814613,5901.943957483456
0.872,1.3126483472864825,5895.8245207838345
0.876,1.0059653363199816,5894.523031956169
0.88,0.5791455567286734,5896.596210556509
0.884,0.09224237961110207,5900.16789984677
0.888,-0.37806612786690136,5907.999285316733
0.892,-0.7609526438276633,5901.991018896245
0.896,-1.0104924574332916,5910.533162477335
0.9,-1.1139467048968175,5902.615042032985
0.904,-1.0878550194940484,5897.474447042632
0.908,-0.9658395207824932,5901.065967838796
0.912,-0.7846523098173189,5901.201117866351
0.916,-0.5742398967824258,5903.340077125486
0.92,-0.3540609963719232,5910.212740873414
0.924,-0.13412204974247052,5899.497278027077
0.928,0.0820892224705469,5904.663373323898
0.932,0.29442476149639213,5899.515205715324
0.936,0.5029267267099576,5909.71791329418
0.94,0.7047105810158152,5898.183370321424
0.944,0.8912541239443521,5900.142405510185
0.948,1.0468458540336,5895.752407760078
0.952,1.149244823175617,5903.117465693205
0.956,1.1734902718989988,5903.478951868029
0.96,1.098595295063415,5906.01699949266
0.964,0.9148589973122934,5901.730700198908
0.968,0.6285447613963867,5901.838553325134
0.972,0.2620389000342843,5905.075173244417
0.976,-0.14992619284036604,5906.417312583186
0.98,-0.5662414905947402,5899.25063051155
0.984,-0.9462484081611948,5891.087892485813
0.988,-1.2563089521513533,5906.89106038142
0.992,-1.4744985229160443,5900.888057676104
0.996,-1.5919164793473632,5895.178442211092
1.0,-1.610556871564013,5904.694241417196
1.004,-1.5392450262842046,5906.668776015125
1.008,-1.3893713763497435,5902.903511419611
1.012,-1.1714065328899954,5905.64304091032
1.016,-0.8928643447851463,5909.453234374432
1.02,-0.5584905400048896,5899.856796971194
1.024,-0.17283762020246904,5912.900787624989
1.028,0.25581249009877605,5900.12449901529
1.032,0.711629168402123,5909.138592427033
1.036,1.1685033268193081,5902.955483463961
1.04,1.5894079523576445,5899.579585245762
1.044,1.9294376007695697,5893.591072527392
1.048,2.1434802987667205,5893.978722485958
1.052,2.1970267971631574,5895.858941759781
1.056,2.076423988356371,5896.715933863427
1.06,1.7947394143035338,5904.507802966919
1.064,1.390913011677894,5903.358254392118
1.068,0.9220870606248251,5897.44508950348
1.072,0.45139630712980766,5902.66349594042
1.076,0.03511779572607147,5903.296352620817
1.08,-0.2869936722489837,5898.8241783708345
1.084,-0.496054818353043,5899.917302514425
1.088,-0.5933644214825311,5904.457985523962
1.092,-0.5966256092058443,5903.872136458187
1.096,-0.5349942164363424,5896.529406806522
1.1,-0.4438527592654127,5896.285750654254
1.104,-0.3595026106186095,5900.720198056268
1.108,-0.31364654884338894,5895.505376189892
1.112,-0.3274403068888948,5899.104425242144
1.116,-0.4056614439668693,5898.499042874827
1.12,-0.5330928013122123,5893.446435811946
1.124,-0.6759763610828649,5901.495740097795
1.128,-0.7901456788847927,5905.067264209188
1.132,-0.8344882281049305,5893.381359014769
1.136,-0.7850584629038663,5902.907218125793
1.14,-0.6437124826756189,5902.462492373698
1.144,-0.43743110683765096,5906.896406972863
1.148,-0.20924863275183928,5904.984764968525
1.152,-0.005308238689452477,5898.768653029892
1.156,0.1367641055762248,5891.169348755786
1.16,0.19447430453835576,5895.593297090933
1.164,0.16109989689680435,5905.936067825127
1.168,0.04241994378555583,5905.937742254524
1.172,-0.14686058770655974,5901.645909367615
1.176,-0.3844764581009383,5903.931862283752
1.18,-0.6399464273696691,5909.758357701758
1.184,-0.874439577433672,5899.246903232634
1.188,-1.0443580333266107,5900.79422558971
1.192,-1.1102346616454652,5897.881076103196
1.196,-1.0492163927160736,5892.328778665681
1.2,-0.8660337082589785,5891.867638383865
1.204,-0.5960969146240512,5905.907259104072
1.208,-0.2969430500010395,5900.362620486204
1.212,-0.030211309412785468,5901.14897077824
1.216,0.1582254347692012,5906.878551084217
1.22,0.2513898490890461,5902.913178757235
1.224,0.26252246998238193,5905.037576013892
1.228,0.2247884393718337,5909.295590525687
1.232,0.17439652004759387,5902.174770728582
1.236,0.13507607172463484,5908.623372794542
1.24,0.11128995612400006,5903.122510564726
1.244,0.09296552365572698,5904.402929337884
1.248,0.06806259868754559,5901.688465644546
1.252,0.0352776837249419,5900.96392731027
1.256,0.010183485157041644,5901.93578087702
1.26,0.0223132621944641,5902.19197729328
1.264,0.10476077393392479,5898.571027118994
1.268,0.2804403910453782,5907.743386128318
1.272,0.5502025019405908,5901.86693172908
1.276,0.8873149196333799,5907.381728499095
1.28,1.24061211870218,5907.166762082709
1.284,1.545709178020302,5893.297392977841
1.288,1.7409465083449143,5904.832618485231
1.292,1.7830994029678064,5909.581291284319
1.296,1.6581205745450958,5892.054578742514
1.3,1.3842686186933186,5899.037865015686
1.304,1.007892905428465,5913.331464915678
1.308,0.5941320784998875,5904.42620996835
1.312,0.21470645454450749,5901.873387228363
1.316,-0.06597854282214417,5904.405150425717
1.32,-0.20489145588617919,5903.404863249354
1.324,-0.1915294823205833,5898.029804189406
1.328,-0.05234511316183368,5892.288631775051
1.332,0.1541899872178433,5906.714558637874
1.336,0.3516960335327217,5901.30485404883
1.34,0.46548815258637805,5901.780120448578
1.344,0.44157129505815784,5905.784669321349
1.348,0.2593515970668069,5903.141911917987
1.352,-0.06462500611879105,5900.25368694947
1.356,-0.48126812732327034,5904.305580784307
1.36,-0.9193891028532406,5907.720335715218
1.364,-1.2994642652338617,5912.431306260423
1.368,-1.5490632381592173,5896.669856189665
1.372,-1.618462919449412,5896.556815879174
1.376,-1.4934597202689395,5894.7907611251885
1.38,-1.2007925683351572,5894.736543066088
1.384,-0.8027357419359072,5889.506290976807
1.388,-0.3815580727088071,5907.465743496616
1.392,-0.01875183458484806,5906.034429337361
1.396,0.22433327923687107,5897.5487014346
1.4,0.3187717176715753,5901.514031027759
1.404,0.2704568434884271,5897.018273555228
1.408,0.11363894853879715,5892.312617730015
1.412,-0.10047136033397963,5917.150576046456
1.416,-0.31611725482843384,5894.274948990433
1.42,-0.48474896908290843,5897.3308908998615
1.424,-0.5757490443317314,5887.839572304656
1.428,-0.5845357405130703,5906.132552643369
1.432,-0.5346710093316389,5904.551488487059
1.436,-0.47103609660644125,5906.636812130013
1.44,-0.44428642099728805,5908.608158406836
1.444,-0.49092511318656434,5901.203774209698
1.448,-0.6160729910316907,5903.1440128497925
1.452,-0.785799942003251,5906.745860870456
1.456,-0.932873094498288,5903.84266492253
1.46,-0.9752917231072981,5899.033445880856
1.464,-0.8422497590143057,5903.750292742219
1.468,-0.49876599017331796,5900.572563570891
1.472,0.03962408958002269,5898.423970562342
1.476,0.7066091578436567,5897.638161545788
1.48,1.398462178005617,5906.58755123551
1.484,1.996653900488413,5899.208143625134
1.488,2.393972022322804,5910.418154107645
1.492,2.518177117247965,5899.025136676212
1.496,2.34784867783063,5901.286123729223
1.5,1.9168813254824788,5895.5779872531375
1.504,1.3068101806046344,5899.744132057585
1.508,0.6288990394244562,5903.97013534659
1.512,0.00016645325572822305,5904.344389621944
1.516,-0.48105388460924686,5897.369019460179
1.52,-0.7542314917821732,5904.507322712454
1.524,-0.8058545938580798,5900.572224851297
1.528,-0.6666694957594423,5892.948667302355
1.532,-0.3983711188354258,5904.254169470394
1.536,-0.07453824523955771,5894.965417253116
1.54,0.23793861752691692,5905.933283166119
1.544,0.49201981982808435,5906.319301864511
1.548,0.6663884951528688,5908.065857284582
1.552,0.7648191348780661,5907.197597669105
1.556,0.8108736972511671,5904.028966724766
1.56,0.8394266009280281,5906.178466549588
1.564,0.8860010400410211,5896.950160769436
1.568,0.97520903662494,5898.136199820193
1.572,1.1106879841227757,5891.045837965316
1.576,1.2698933716999528,5895.134954384212
1.58,1.4069124488009992,5903.322764119964
1.584,1.4643499767610764,5903.111259741825
1.588,1.3914714257953487,5904.3324332658
1.592,1.162208136179676,5898.9494268171975
1.596,0.7861385453012718,5903.798456503146
1.6,0.30869121678877764,5914.398802817827
1.604,-0.198814211814478,5907.281795460407
1.608,-0.655459073279541,5898.840303616989
1.612,-0.9882073744979966,5903.613051494631
1.616,-1.1461592540309173,5906.318143215523
1.62,-1.1093444262127918,5902.47586516162
1.624,-0.891576402322515,5916.639864875557
1.628,-0.5372356608042032,5896.797456225659
1.632,-0.1122135948162525,5904.890969052357
1.636,0.3091806850106884,5901.255219629182
1.64,0.6579624189725143,5901.283713216928
1.644,0.8816202401604486,5901.590402630555
1.648,0.9511142627218191,5895.837997462807
1.652,0.8637445391707759,5901.572882888504
1.656,0.6424245793084408,5905.139421358248
1.66,0.3316317843685448,5898.056681015744
1.664,-0.009897771017639183,5908.555018632161
1.668,-0.31906771036230525,5902.224192295421
1.672,-0.5391126435564372,5900.519876789377
1.676,-0.6288573753033864,5900.323264673816
1.68,-0.5691089254631805,5910.793633889532
1.684,-0.36582107568235256,5899.611431642583
1.688,-0.05013690507791499,5898.85266137598
1.692,0.32482222137851896,5893.345684728222
1.696,0.6910931710945213,5899.294058901821
1.7,0.9774037297299575,5900.788803155715
1.704,1.1237495362037655,5907.48535640742
1.708,1.0952440082910126,5898.763332693299
1.712,0.8906687219900379,5901.47299874475
1.716,0.5427631174067756,5901.246826023761
1.72,0.11012326074360088,5908.088715384523
1.724,-0.33688416926309994,5909.147299731163
1.728,-0.7322407521752573,5897.632917944174
1.732,-1.028083585949443,5897.624058003335
1.736,-1.2026460680964917,5903.681341854715
1.74,-1.260515063400151,5903.7340224866375
1.744,-1.2256696875227588,5902.900605782294
1.748,-1.1301838015599963,5899.1736973914085
1.752,-1.0031020751966766,5905.275436303131
1.756,-0.8635818182517986,5911.960300435066
1.76,-0.7200423723895425,5911.263203385409
1.764,-0.574509645142868,5899.227470352017
1.768,-0.4297052552730164,5911.516418387783
1.772,-0.2955801549030759,5905.116103446148
1.776,-0.19213837591866226,5901.586807420036
1.78,-0.14693862084815215,5906.699850581703
1.784,-0.1879028612402817,5899.414354507507
1.788,-0.33379206607811385,5909.499081416247
1.792,-0.5853180605027408,5891.099389251651
1.796,-0.9194117971274466,5905.224257336991
1.8,-1.288347220866606,5903.881642672344
1.804,-1.6249553763335292,5902.58095355259
1.808,-1.854617206894927,5901.309250778478
1.812,-1.9128890786643813,5897.900572109664
1.816,-1.764614935968133,5901.690431041398
1.82,-1.4181986249602196,5906.800990310897
1.824,-0.929233310837875,5907.143545599181
