时间(s),电压(V),幅值(高频80K)
0.0,-0.2517101664373797,5895.217627562378
0.004,-0.14985483762960652,5901.575561024505
0.008,-0.07763677388211027,5902.928451286601
0.012,-0.04423376993021049,5904.2717528259
0.016,-0.04572901251506112,5898.877829024589
0.02,-0.06829144606618472,5908.045526922562
0.024,-0.0945869403302361,5896.583380784628
0.028,-0.11032203359299717,5899.133163992906
0.032,-0.10954090891778395,5889.960799018502
0.036,-0.09830895763570245,5906.980188279629
0.04,-0.09551239707856307,5907.8331139094735
0.044,-0.12902785182750445,5896.973005690465
0.048,-0.22749029434654705,5888.13174591507
0.052,-0.41070506405560436,5894.565839614469
0.056,-0.6822065486637846,5903.7174059121935
0.06,-1.0251036214008507,5893.278874523351
0.064,-1.4004689190633623,5907.145566859048
0.068,-1.7489202946507016,5903.497800879298
0.072,-1.9985661835823965,5897.544258070252
0.076,-2.081304424973013,5901.646895546468
0.08,-1.9537070578104083,5903.628183197627
0.084,-1.6135518042097625,5899.950480743191
0.088,-1.1039699918659363,5898.790747526318
0.092,-0.5035561873689408,5894.980636498434
0.096,0.0929587558696521,5899.453733047959
0.1,0.5965959758803433,5900.295798775067
0.104,0.942600872647914,5902.984301364239
0.108,1.1013031127643387,5898.455689109702
0.112,1.0793048129482194,5902.370883121045
0.116,0.9117713766595282,5895.046400236216
0.12,0.6491676622440299,5904.59195876031
0.124,0.3426706349352657,5901.099766657065
0.128,0.03195407249094511,5895.356961828351
0.132,-0.26183987587228297,5903.870158119444
0.136,-0.5363448939581527,5895.383167671444
0.14,-0.8017799555957005,5903.338342149376
0.144,-1.0708942438360063,5900.005684767672
0.148,-1.3490818533142581,5903.888098842481
0.152,-1.6284387281250072,5890.734760391542
0.156,-1.8873532580644372,5900.118755273554
0.16,-2.094358868830734,5901.431992290106
0.164,-2.2135366439013135,5895.782491091333
0.168,-2.2098599687981495,5905.678077982453
0.172,-2.055046212457148,5896.287397118042
0.176,-1.7348267694524038,5901.020471974694
0.18,-1.2563723756235352,5912.156496222306
0.184,-0.6525305673642873,5892.142307064531
0.188,0.019928391312426654,5897.123798761901
0.192,0.6882660052126701,5894.028948966344
0.196,1.2757394927415733,5904.510031809304
0.2,1.714340496044483,5900.04825261259
0.204,1.9553668236918291,5898.720797036814
0.208,1.97620209735363,5910.443462760754
0.212,1.7831283840024912,5894.799048623785
0.216,1.410455181260225,5895.9020209086575
0.22,0.9157155306402888,5903.140469618959
0.224,0.3705349085371541,5889.092268471919
0.228,-0.15183874657216503,5903.019977947597
0.232,-0.5893510763328127,5896.682528879674
0.236,-0.9008247126317677,5908.655777255268
0.24,-1.0705941462060466,5906.512363855305
0.244,-1.108132275792398,5906.829610011555
0.248,-1.0435356991533757,5907.481808805562
0.252,-0.9196493012002986,5903.689803609777
0.256,-0.7817844426249236,5901.345261013476
0.26,-0.666835105708443,5898.425409015882
0.264,-0.5943628106549875,5900.708209014123
0.268,-0.5620722265716624,5897.890764350785
0.272,-0.5468707260591193,5898.869009852127
0.276,-0.5109606879968943,5905.375635243615
0.28,-0.4113640226933801,5898.1107518311055
0.284,-0.2114721974430442,5899.847993333371
0.288,0.10674822292655131,5900.558982111366
0.292,0.5327399785896603,5907.139707229575
0.296,1.0238928913078789,5900.011405927403
0.3,1.5119293392600213,5901.987302151932
0.304,1.9186912482142733,5899.541484585027
0.308,2.176835733525415,5901.932453783176
0.312,2.248667842829388,5899.731401268083
0.316,2.136647090857343,5910.341577295342
0.32,1.8820651632044327,5894.888272497054
0.324,1.5529338768666052,5901.26530649792
0.328,1.2258463587560358,5907.644274116199
0.332,0.9676818186729743,5906.422049571448
0.336,0.821988638870299,5902.790357065012
0.34,0.8029575288446578,5897.606168832348
0.344,0.8973298941070873,5902.046250095271
0.348,1.0718092857557109,5896.003754547367
0.352,1.2822805058880948,5903.194926874073
0.356,1.4823415160516382,5901.546287292789
0.36,1.6307273859548164,5902.803448911285
0.364,1.6979317511480616,5894.596568510431
0.368,1.6715289437745446,5905.42359883083
0.372,1.5588646367138395,5899.114775046874
0.376,1.385868593189986,5907.165360500962
0.38,1.1914823769310308,5901.455599390342
0.384,1.0182578062934933,5891.132167115423
0.388,0.9010636057829282,5903.4374658431225
0.392,0.8570076058618564,5899.870378256223
0.396,0.8798185508537872,5903.11113788583
0.4,0.940919138409908,5906.070075584719
0.404,0.9975503356690292,5903.108519078311
0.408,1.0058986629409155,5895.928498786812
0.412,0.9351170855613247,5902.290781712346
0.416,0.77750706779369,5900.827087321853
0.42,0.5512565619182935,5904.465627612581
0.424,0.29457063238091513,5903.452042701674
0.428,0.053084579588906736,5899.5999032523005
0.432,-0.1348222528292637,5897.213538142344
0.436,-0.24909193866725315,5893.303667333009
0.44,-0.29134421224129814,5899.180410837629
0.444,-0.2802521418311851,5898.861461181976
0.448,-0.24220594254532943,5903.111432798703
0.452,-0.20164727033859775,5903.4550685101285
0.456,-0.17424330712386968,5904.976527885827
0.46,-0.1640999467167732,5905.445227144132
0.464,-0.16473131222685106,5893.060044573616
0.468,-0.16288672724358447,5897.443255274831
0.472,-0.14428016248751396,5897.243926600896
0.476,-0.09987059792737636,5904.323845725063
0.48,-0.030204034937390493,5908.262881794515
0.484,0.05500174018688969,5892.800335268584
0.488,0.14238704140734817,5900.265481581559
0.492,0.22194415998259176,5908.082228614176
0.496,0.2904588903015188,5900.783832133612
0.5,0.34954658669809274,5900.137515227555
0.504,0.40103383236405865,5904.365990841976
0.508,0.44413952037767784,5900.952829040374
0.512,0.47657869724222657,5904.831013318267
0.516,0.4978578558496652,5893.15463246417
0.52,0.5111840193159815,5893.761963505645
0.524,0.5218933672525098,5898.17357452933
0.528,0.5332437337319812,5889.869782875978
0.532,0.5422810848345849,5890.382768518151
0.536,0.5386348744769868,5894.18429449999
0.54,0.5079485951267728,5906.503556138814
0.544,0.43924379715938533,5898.042866867789
0.548,0.332601385722185,5896.305384112684
0.552,0.2024311939378684,5897.699531855747
0.556,0.07378063809029126,5904.3438478089965
0.56,-0.026852100980867377,5903.223299741823
0.5640000000000001,-0.08185566093649933,5906.012671250361
0.5680000000000001,-0.08953648921935874,5890.450500117235
0.5720000000000001,-0.06527448579554257,5905.743708065256
0.5760000000000001,-0.03633130242258543,5904.076085076299
0.58,-0.03144666762222921,5901.082088180046
0.584,-0.06814721684940633,5896.799981654873
0.588,-0.14266726228432614,5906.482746499441
0.592,-0.2276770064889808,5907.366039566761
0.596,-0.28003954352805543,5897.476376890201
0.6,-0.25597821566975243,5904.999856860516
0.604,-0.1276444252848666,5890.941424220379
0.608,0.10511576207186052,5893.118341036981
0.612,0.41172670983704923,5896.883811272913
0.616,0.7373299695937395,5890.705917174901
0.62,1.0166266392204,5899.224425369741
0.624,1.1911600659507855,5897.49393239008
0.628,1.225160389079819,5899.95785458991
0.632,1.1151492961836549,5894.502538656709
0.636,0.8900731410493843,5899.884927912249
0.64,0.6019790616778624,5906.306214704585
0.644,0.31106911809722065,5902.649899428323
0.648,0.07103320366141323,5909.391510891747
0.652,-0.08063689798131855,5903.8462031307845
0.656,-0.1258769640200011,5903.82488972311
0.66,-0.06413373194058686,5907.115030019636
0.664,0.09203024551320288,5900.993206061039
0.668,0.320969239713977,5898.511831205006
0.672,0.5937682211353768,5898.211668355942
0.676,0.8739724396641868,5909.253711872956
0.68,1.117487860287444,5896.1903805090615
0.684,1.2759815101919718,5892.297320035698
0.6880000000000001,1.3060123605775225,5906.289653767699
0.6920000000000001,1.1825235727764671,5900.801451484464
0.6960000000000001,0.9110435058335759,5900.626338189381
0.7000000000000001,0.531441299962928,5899.1051733443965
0.704,0.10938835468476286,5903.738614494544
0.708,-0.28206966843845005,5897.228438704532
0.712,-0.5835353202639852,5901.668656527873
0.716,-0.7648151098385629,5898.237464842111
0.72,-0.829817751891105,5893.813444272768
0.724,-0.810079643019431,5910.086310572202
0.728,-0.7501305747420332,5900.468954954175
0.732,-0.6897145973527713,5893.606970258988
0.736,-0.6479625914579014,5907.691940400547
0.74,-0.6145103876332892,5902.344926536908
0.744,-0.551731883280813,5912.199599108345
0.748,-0.40879085866640646,5902.085815306016
0.752,-0.1429833453834845,5897.7007078139
0.756,0.2595294311637238,5900.556499938208
0.76,0.7710187192489458,5908.660653963617
0.764,1.3219035970196624,5896.782537643225
0.768,1.8136497254037636,5898.564865356307
0.772,2.142022431372263,5902.676479282905
0.776,2.224571915080467,5900.131818970217
0.78,2.024415597107345,5896.869608846945
0.784,1.5631176060912586,5900.233853318853
0.788,0.9184553566417314,5896.723730860942
0.792,0.2071429521626958,5900.864290348132
0.796,-0.442798075550968,5903.164686771788
0.8,-0.9219277528298349,5903.803118584601
0.804,-1.1630068416973551,5903.996740452899
0.808,-1.1524777758649432,5906.083833791537
0.812,-0.9280203553960236,5897.195682876675
0.8160000000000001,-0.5642200069456529,5892.0793340368045
0.8200000000000001,-0.1513036139454346,5904.590373188648
0.8240000000000001,0.22652983081739814,5906.361152239369
0.8280000000000001,0.5072026635561098,5909.287703879726
0.8320000000000001,0.6580835466534984,5901.686140518349
0.836,0.6751097177871751,5892.596868126486
0.84,0.5770160609129665,5899.604182474031
0.844,0.3982940662430712,5904.125892677257
0.848,0.18266886159574455,5907.935034105889
0.852,-0.023285154617286453,5907.473814499474
0.856,-0.17762821556888161,5907.058903779956
0.86,-0.25193396680784397,5901.813875494688
0.864,-0.2395380481330105,5900.458401908933
0.868,-0.1589892544638228,5896.731054518462
0.872,-0.048916176656448374,5899.640548678659
0.876,0.04564832169181537,5910.306625325981
0.88,0.0902833047496903,5907.392768434229
0.884,0.0735854296447543,5906.891094869112
0.888,0.008946911967451824,5900.4445059625
0.892,-0.07468419849920054,5908.063995112377
0.896,-0.14769209842256714,5893.958145394573
0.9,-0.19262414663403926,5904.0703697104655
0.904,-0.20940330497389115,5896.632483382761
0.908,-0.21212048368682135,5904.086889311107
0.912,-0.22075830684859782,5911.686474593936
0.916,-0.25248422906334483,5898.101740912614
0.92,-0.3158090085776271,5892.306803913973
0.924,-0.4087824790662075,5906.879521987783
0.928,-0.5208117802290073,5898.83442739427
0.932,-0.6367572768669671,5898.969117889974
0.936,-0.741310063924646,5902.933827943606
0.94,-0.8214292700021953,5900.996994911173
0.944,-0.8658628784898644,5903.197498928789
0.948,-0.8635669629402764,5895.9292379314
0.952,-0.8045113568424558,5897.519060224845
0.956,-0.6843229817337054,5900.640106129937
0.96,-0.5100944365101904,5894.330323478299
0.964,-0.30267325442819476,5896.244387905865
0.968,-0.09257988887474589,5895.300700505584
0.972,0.0893240752337298,5903.599229228841
0.976,0.22188178825135094,5901.424318212073
0.98,0.2992287655936412,5911.110784254354
0.984,0.32960511547043403,5903.609454540652
0.988,0.32942087154786254,5896.418971622662
0.992,0.3168201885247453,5896.847631699161
0.996,0.30752667924906907,5901.547648929208
1.0,0.3129884841795241,5900.924758682296
1.004,0.3398861053798371,5905.061633282824
1.008,0.390795796073296,5908.180540360021
1.012,0.4659843147400297,5890.593633867854
1.016,0.5652076156153164,5894.315872118136
1.02,0.6874127535858013,5898.729856962547
1.024,0.8271287567659702,5901.370440080159
1.028,0.9692305064148033,5902.297139556192
1.032,1.0864966460463958,5910.566706083753
1.036,1.144023860151849,5897.041540976987
1.04,1.1104815890159159,5900.061922301533
1.044,0.9713397958942527,5903.27573339748
1.048,0.7374271118510016,5904.132656074144
1.052,0.44441213858824996,5905.630769737953
1.056,0.14302685445898194,5901.923472030851
1.06,-0.11620272789721851,5904.6587814497325
1.064,-0.2979188406634809,5909.647843732455
1.068,-0.39159618628411746,5902.096008785546
1.072,-0.4136436332634607,5903.701836419779
1.076,-0.402128874526645,5905.784900907332
1.08,-0.4056045176826925,5895.878004121554
1.084,-0.46854032598004186,5901.115412120867
1.088,-0.6171912621485292,5907.750568709196
1.092,-0.8504133881902991,5900.392892399249
1.096,-1.1386201812280208,5907.424352289783
1.1,-1.43084590013674,5898.457433787849
1.104,-1.6667367279834557,5904.656429460942
1.108,-1.789205747051236,5898.441909092195
1.112,-1.7546181824306284,5908.20313185691
1.116,-1.5395599391034511,5898.423500011802
1.12,-1.1450884082431299,5896.6850591333005
1.124,-0.5995465860067101,5893.274713116636
1.128,0.04065657390601546,5898.1660914516815
1.132,0.6946454401746841,5899.840113883213
1.136,1.2671619350808405,5909.953522540622
1.14,1.664940571356623,5912.4745605479775
1.144,1.8163356666747048,5898.766122945838
1.148,1.689167532350651,5902.113342601989
1.152,1.3014499925330187,5895.639361268738
1.156,0.7213415047747276,5901.68553821716
1.16,0.055603511895963846,5902.508446523119
1.164,-0.5712125421325368,5897.055797405273
1.168,-1.0423057680864396,5909.393537980897
1.172,-1.272780866749714,5903.6537408769445
1.176,-1.2261318647687514,5896.747649481938
1.18,-0.9187554943493089,5882.818749770757
1.184,-0.4119646402009246,5899.677361967927
1.188,0.20505396242146712,5907.842906630292
1.192,0.835410250165973,5896.725376194814
1.196,1.3918962987490846,5901.594031098346
1.2,1.8081034657267478,5899.001243272644
1.204,2.0432235517754105,5904.338333547442
1.208,2.0828756606106076,5901.765011055124
1.212,1.9385003677017185,5900.264739719578
1.216,1.6463127799270107,5900.658178624331
1.22,1.2647288716261296,5908.549076311232
1.224,0.8678853579815274,5895.728207662821
1.228,0.5335300344987856,5898.902524921764
1.232,0.32629757017728883,5895.703637387564
1.236,0.2806323794183601,5894.195201564232
1.24,0.3892322034963263,5901.659773838363
1.244,0.6018897589681866,5907.282917383197
1.248,0.8365185891876336,5901.947454786401
1.252,1.0000476646354586,5907.781911841049
1.256,1.012976141827622,5900.676827547445
1.26,0.8295136783109391,5895.585169534026
1.264,0.4471327516978015,5902.094912420482
1.268,-0.09561219859415468,5899.149784548349
1.272,-0.7292897739455585,5897.789519407732
1.276,-1.3664386139466524,5896.660753039148
1.28,-1.9137162154842833,5905.889791193642
1.284,-2.2839135365804286,5903.661832456575
1.288,-2.410488090980937,5905.773769105725
1.292,-2.2645073450546214,5903.067369799867
1.296,-1.8681488676082882,5897.716104929857
1.3,-1.296286051113569,5903.139988030166
1.304,-0.6616544765468713,5901.859826458899
1.308,-0.08685338770698528,5904.872814665664
1.312,0.3271265689082636,5899.359578243812
1.316,0.5243748269292126,5903.984678950236
1.32,0.5018394463919085,5898.8805751894615
1.324,0.30110382325276414,5902.261771115898
1.328,-0.0096020489318663,5901.26825230084
1.332,-0.35474131950440946,5902.004513089956
1.336,-0.6659402998728577,5901.829538013473
1.34,-0.8895639187157037,5903.794609324908
1.344,-0.9891169815785323,5902.999187542064
1.348,-0.9459560761068936,5908.037128724031
1.352,-0.7610650879434654,5905.1444880629015
1.356,-0.45794949426029863,5892.993568180144
1.36,-0.08376396074780795,5905.901622808705
1.364,0.29522195929748163,5910.969631060086
1.368,0.6058669102181025,5912.794578675726
1.372,0.7862835892827538,5902.564627711512
1.376,0.8040065618729856,5906.222203280259
1.38,0.6667017675522835,5897.374850195075
1.384,0.42026872872816134,5899.544622137182
1.388,0.13436825205426806,5895.237763246505
1.392,-0.1195885843357243,5896.918387860967
1.396,-0.2902270281211018,5905.665629598386
1.4,-0.36015697961122234,5895.85635458699
1.404,-0.3473358738303963,5892.3628729351
1.408,-0.29374839296127114,5901.748198324092
1.412,-0.2459959043180748,5905.747307663893
1.416,-0.23530818222582608,5901.841174177187
1.42,-0.2646493334074309,5899.755587265847
1.424,-0.30803842646123064,5913.160444461862
1.428,-0.3226515286455541,5902.576545871473
1.432,-0.2690690158292062,5890.677773986237
1.436,-0.13133882638331668,5898.891813117237
1.44,0.07167353135103087,5899.063076562808
1.444,0.2886379907843556,5893.374059497806
1.448,0.45120452118944177,5916.741448028888
1.452,0.49670109352199343,5902.193752202928
1.456,0.38956067053529064,5896.466879885568
1.46,0.13390914269478726,5901.1828170513
1.464,-0.22648938144632721,5906.182645215242
1.468,-0.6203988497423006,5901.578656123862
1.472,-0.9694172946026052,5914.557861766957
1.476,-1.2100014145495215,5906.062995900626
1.48,-1.309840709782283,5903.557995638292
1.484,-1.273084518966184,5898.5520327527365
1.488,-1.1336325542828256,5904.630279498837
1.492,-0.9406704854636293,5900.073220543822
1.496,-0.7427162652208825,5894.486954151466
1.5,-0.5751498888906845,5899.472588508867
1.504,-0.4535948615881426,5905.115372603409
1.508,-0.3732669076889158,5910.202010097483
1.512,-0.3129137236112706,5900.237633043637
1.516,-0.24154719085496199,5907.113542582178
1.52,-0.1269229497601636,5905.813082446515
1.524,0.054359373128265345,5896.927479049836
1.528,0.3060362267238851,5895.7860978294175
1.532,0.6043974009608079,5908.706240352633
1.536,0.8992133442186062,5899.994206227602
1.54,1.1264148966296386,5898.706203023672
1.544,1.2292257671680324,5904.853740452481
1.548,1.1792357671984137,5903.672366752532
1.552,0.9884092728643488,5896.481863861667
1.556,0.7069695485721103,5904.61141447659
1.56,0.4080158747292745,5898.89649692943
1.564,0.16497579387598754,5901.242320224336
1.568,0.03051096102587546,5902.764462136246
1.572,0.024248937526142263,5902.649511831655
1.576,0.1322817846375592,5895.71265213686
1.58,0.31610368889778123,5896.659233430564
1.584,0.5254541804562607,5899.916602141016
1.588,0.7098116158760777,5903.955331468537
1.592,0.8260814446229795,5900.46617080591
1.596,0.8429415451400614,5909.510761036453
1.6,0.7435123995075804,5896.387811236696
1.604,0.5275248786473667,5902.173705728628
1.608,0.2129917556297936,5897.716552934332
1.612,-0.16361569719812827,5904.452742534698
1.616,-0.5499834646047407,5900.569870789437
1.62,-0.88417501952613,5907.231187503557
1.624,-1.1043815129639438,5909.379625141162
1.628,-1.160911449434133,5902.637628366207
1.632,-1.027702599901186,5894.832927153273
1.636,-0.7099877899487079,5911.7028616997
1.64,-0.24561242946902417,5899.876338792401
1.644,0.3006458971371452,5902.930646275209
1.648,0.8483870632843195,5906.764943920448
1.652,1.3154946870812472,5903.258910057501
1.656,1.631032594408597,5905.799857356224
1.66,1.7445112164569792,5898.299884568726
1.664,1.6307935618941263,5903.938464601464
1.668,1.2915413576952957,5904.476168310955
1.672,0.7547063822767947,5896.607200423219
1.676,0.07278869404655797,5910.900788914063
1.68,-0.6810640971636298,5907.199956299315
1.684,-1.4207841855297203,5910.719441420407
1.688,-2.059214073749466,5898.188911833805
1.692,-2.5218363408322078,5907.347407234067
1.696,-2.758665235526273,5907.1765169549935
1.7,-2.750905038315652,5903.312761437256
1.704,-2.510878761607807,5893.09263956622
1.708,-2.0763089813365543,5903.988628200988
1.712,-1.5019636425379341,5895.462925058128
1.716,-0.8517038803929039,5903.245563736717
1.72,-0.1922416426817733,5905.1446229783805
1.724,0.41191455714032327,5900.285827801007
1.728,0.9034423973529238,5910.6623346623055
1.732,1.2376614884057637,5904.416105002355
1.736,1.388065175715568,5892.375687342995
1.74,1.3509297509723366,5893.362155586281
1.744,1.1478765849039176,5906.148273789024
1.748,0.8251039209915243,5904.667634164716
1.752,0.4476696451457804,5897.492265674431
1.756,0.08786101007326319,5896.631458059699
1.76,-0.19054177951575108,5902.819625988456
1.764,-0.346881108595048,5903.091071840615
1.768,-0.3712622350298903,5903.261213987687
1.772,-0.28275845058977583,5901.738430400762
1.776,-0.12029408201163735,5901.319774063023
1.78,0.06942940370750847,5903.576417451496
1.784,0.2430921514455991,5902.153670387309
1.788,0.3685184076951403,5905.468257964782
1.792,0.42788021334715604,5903.678733353871
1.796,0.4168438628059049,5901.744349617436
1.8,0.34180496504559876,5912.970373345297
1.804,0.21736480978803022,5908.843326827716
1.808,0.06411516609183865,5902.381286711386
1.812,-0.09520459578421211,5905.73306505627
1.816,-0.24239612607488412,5901.470459483295
1.82,-0.3713499790412271,5894.332275993789
