时间(s),电压(V),幅值(高频80K)
0.0,-4.676051444139828,5903.282275656389
0.004,-2.0867710191262816,5899.634172499294
0.008,0.22567118371545564,5891.700083660057
0.012,2.0441870337088246,5903.746258293366
0.016,3.2414161091271607,5896.002502133478
0.02,3.7910470056313748,5902.517756847558
0.024,3.7574597964865935,5900.069858260064
0.028,3.271245832014636,5892.04273162631
0.032,2.4981077370827327,5899.626573191344
0.036,1.6068983884561154,5906.543172994042
0.04,0.7421995208349137,5892.680534154249
0.044,0.006626736860093604,5899.209942380654
0.048,-0.5446138700247878,5888.573790288465
0.052,-0.8986206838983356,5902.013687047188
0.056,-1.073167055150453,5900.517975517254
0.06,-1.1020713730314473,5907.881860081234
0.064,-1.0205915179292053,5901.3139600148725
0.068,-0.8550542154116241,5901.743025424647
0.072,-0.6211311224206338,5907.658884986886
0.076,-0.3312814790189177,5903.009005721442
0.08,-0.005759325314423353,5906.590125686075
0.084,0.32120447883892866,5892.488743655267
0.088,0.6050978734536421,5887.602046717264
0.092,0.8032877563947898,5909.307351466979
0.096,0.8896244911380344,5896.2579359341335
0.1,0.8648904192633049,5906.278776333847
0.104,0.7587763764552522,5899.370183259728
0.108,0.6222196817874529,5903.242202480155
0.112,0.5120505030096105,5904.529709677185
0.116,0.4726323974227524,5904.16142485651
0.12,0.5204535636600528,5896.787799082174
0.124,0.6365981232188553,5897.383263722629
0.128,0.7695756708683861,5889.519788571891
0.132,0.8483367234758993,5888.6453583636
0.136,0.8026470067650043,5900.648794453136
0.14,0.5855825550173877,5897.479066114848
0.144,0.1916921523146694,5906.321276192361
0.148,-0.3351075310506931,5905.42946570274
0.152,-0.9076981748289517,5908.338333864496
0.156,-1.4159052206918779,5890.324911179197
0.16,-1.7554050233956628,5901.894993493824
0.164,-1.8562903146655052,5898.808541128579
0.168,-1.702236232836259,5899.292304356621
0.172,-1.334861971955006,5898.014210837813
0.176,-0.8425140589577014,5907.590825823033
0.18,-0.33661134577910734,5896.8660470811465
0.184,0.07814602508606831,5892.9699329239575
0.188,0.3312125455055989,5898.591841734127
0.192,0.4028374373293636,5889.794925637917
0.196,0.32479444318531986,5894.238150495026
0.2,0.16579730698271133,5899.767140973493
0.204,0.0074566229330432264,5902.251343887685
0.208,-0.08104157836514156,5902.021358753352
0.212,-0.06206903187530324,5904.086723415751
0.216,0.06252920201121315,5906.050060581434
0.22,0.25633491355806665,5897.197877846217
0.224,0.463551105639397,5906.724681465905
0.228,0.6283788960149532,5904.863674685086
0.232,0.7112799820622028,5919.236299749318
0.236,0.6968835640750792,5905.913305497911
0.24,0.5925491009664788,5890.869876946256
0.244,0.42082470297273594,5892.261361997376
0.248,0.21092663715631768,5895.044653165376
0.252,-0.007252479570661276,5901.795980583479
0.256,-0.20670236338652845,5895.360020001548
0.26,-0.3665841090445455,5892.991582691866
0.264,-0.4762265808112185,5902.650596856448
0.268,-0.5382666299637869,5898.88717640291
0.272,-0.5680918709124092,5897.778328587313
0.276,-0.5876611105343985,5890.606046964462
0.28,-0.6147140207652773,5903.471109786316
0.284,-0.6520650443494063,5899.780772230369
0.288,-0.6833148839149799,5905.163247698588
0.292,-0.6787534176416945,5911.586711595289
0.296,-0.6097631388301371,5902.319000396446
0.3,-0.4655419927973817,5899.957822445067
0.304,-0.26499391579938203,5898.464891733489
0.308,-0.05856592226740092,5893.254818946521
0.312,0.08198578194133894,5898.147066465934
0.316,0.08412298267301965,5897.294077246752
0.32,-0.10024966846268156,5904.914303508949
0.324,-0.4730160139040011,5897.986657027503
0.328,-0.97984338943082,5907.2010934829295
0.332,-1.5175397046772927,5901.9419047864185
0.336,-1.9588941607185568,5905.231925576455
0.34,-2.1882903843967814,5892.9006096679
0.344,-2.1364030544278534,5906.832007204975
0.348,-1.802113118892763,5902.860156475668
0.352,-1.254450998318454,5905.332513843279
0.356,-0.6143161020110169,5895.807954572165
0.36,-0.022060701107670493,5903.163146095834
0.364,0.3990245748157651,5904.604565262391
0.368,0.5726495399984187,5902.163922433945
0.372,0.48506544215183084,5897.810177291016
0.376,0.18364817320491747,5897.375872302151
0.38,-0.2387229591225421,5888.743171554957
0.384,-0.667731008803351,5909.202200231004
0.388,-0.9941261667271032,5896.269667080895
0.392,-1.1374770351381325,5898.129376088999
0.396,-1.0624432759172757,5896.089834704267
0.4,-0.78370716140733,5900.433272511558
0.404,-0.3582627470064962,5904.603940975614
0.408,0.13234864552952602,5904.070843708597
0.412,0.6039026632697995,5893.507802746213
0.416,0.9884712230615385,5895.752942580417
0.42,1.2454776068460196,5904.718213333761
0.424,1.3636448206880851,5908.171948480243
0.428,1.356039423437718,5904.377532819663
0.432,1.2515054699876256,5895.1196841881165
0.436,1.0851114047610897,5892.857493803382
0.44,0.8896370606760277,5899.050329384715
0.444,0.6900200707393,5896.949881935441
0.448,0.5017232105000847,5903.594792321924
0.452,0.3317607760508218,5903.476085188677
0.456,0.1797118327682843,5898.783638959176
0.46,0.03750225315044446,5904.930977899759
0.464,-0.11026341617423216,5905.600153193977
0.468,-0.28245123659884497,5892.538467597463
0.472,-0.4930085069960872,5908.505878462284
0.476,-0.7406312816105034,5896.592078560807
0.48,-1.0019382397527878,5900.14418956743
0.484,-1.233446650684665,5898.811428644844
0.488,-1.3838108379113643,5886.963476952069
0.492,-1.4123858278616195,5897.963390792186
0.496,-1.30650335233501,5904.643934925149
0.5,-1.0896950522144753,5901.068092479258
0.504,-0.8164422199364832,5905.744922958831
0.508,-0.5547042047189346,5891.1628370557055
0.512,-0.3630741546879181,5900.440603297885
0.516,-0.27189767839902146,5900.881348276268
0.52,-0.2754875633029249,5887.871325906567
0.524,-0.33709758753829605,5908.407400742034
0.528,-0.40307991035774704,5900.121267014866
0.532,-0.42028539207688703,5889.643741590138
0.536,-0.35121874340482195,5896.481086416743
0.54,-0.18330616358016716,5901.270452739535
0.544,0.06907794517406562,5898.47013391126
0.548,0.3691254162110245,5899.836398583015
0.552,0.6667897747362465,5897.518240726899
0.556,0.9103335986660144,5903.025361143516
0.56,1.0573980431344236,5909.585860744075
0.5640000000000001,1.0825474437703675,5904.639553768798
0.5680000000000001,0.9794860440647344,5905.037998377126
0.5720000000000001,0.7587511825391261,5903.186445714687
0.5760000000000001,0.44370422589353725,5897.682189435878
0.58,0.06739835412206942,5894.822040394345
0.584,-0.329336436630911,5901.42395648488
0.588,-0.7007146710111848,5896.287291600945
0.592,-1.0022977976271943,5903.914793572221
0.596,-1.2007227346174627,5897.930518828653
0.6,-1.282994318405805,5895.656584315027
0.604,-1.2601830525772484,5900.650072669456
0.608,-1.1630862996534306,5897.80327388495
0.612,-1.03176168418909,5891.599931777366
0.616,-0.9032611356311897,5893.389860085428
0.62,-0.801305106792144,5896.30926932659
0.624,-0.7300127185003147,5901.870829210576
0.628,-0.6731202397683107,5899.97417439214
0.632,-0.5997431256681626,5891.710585000862
0.636,-0.47602448504020395,5894.507298430587
0.64,-0.27945290189657307,5900.00747925761
0.644,-0.011190596767654128,5894.5720618916375
0.648,0.29807003735384846,5896.291736453713
0.652,0.5920128286596114,5902.293634586664
0.656,0.8030072319928951,5904.791624391669
0.66,0.873094296947857,5905.263045319008
0.664,0.7740486268663749,5911.761433994974
0.668,0.5185648390666687,5895.988844886381
0.672,0.1583294296407295,5907.757853740572
0.676,-0.22983049396323266,5906.387468644229
0.68,-0.5643728389555045,5900.253133107134
0.684,-0.7793986129850946,5902.461438856981
0.6880000000000001,-0.8394659329180533,5902.712642144986
0.6920000000000001,-0.7455480656096402,5901.23226143776
0.6960000000000001,-0.5311853157736713,5897.644130284095
0.7000000000000001,-0.2505221717616367,5899.1818936487225
0.704,0.03772735624220797,5896.471114385069
0.708,0.2856423693005442,5892.359420334079
0.712,0.4671813757099894,5892.086068376284
0.716,0.5828739961608197,5904.1529241896
0.72,0.6569051618721227,5900.952862659905
0.724,0.7267314351791613,5906.274082597904
0.728,0.8280336989391966,5905.747564694209
0.732,0.9802917599792713,5901.319752443059
0.736,1.1783443039781052,5893.930833788931
0.74,1.3927809119578007,5897.237417336864
0.744,1.5785868806213252,5898.14331708165
0.748,1.6888439463141711,5894.1646019396
0.752,1.689256007754876,5905.882990599418
0.756,1.5696035677911555,5897.955484399209
0.76,1.3491447750174244,5894.660900907947
0.764,1.0741002652757647,5899.644592673216
0.768,0.8071545484515752,5903.102209501215
0.772,0.6114273147694279,5895.960130795047
0.776,0.5334112059045786,5907.016701885933
0.78,0.5898449292705513,5895.819396217518
0.784,0.762443687985446,5897.028086200598
0.788,1.0023032634262448,5889.88190325131
0.792,1.2429943524112401,5901.812214337297
0.796,1.4185105449176718,5899.140570685033
0.8,1.4804070928802782,5897.1502312959565
0.804,1.408720652045749,5902.629175245804
0.808,1.2136611317518715,5898.596295403164
0.812,0.9283891812416343,5905.618656581773
0.8160000000000001,0.5961002135104584,5899.237451608984
0.8200000000000001,0.2565316886258231,5900.757711307168
0.8240000000000001,-0.06275899633873436,5905.72382365063
0.8280000000000001,-0.3472871318234461,5895.617245217711
0.8320000000000001,-0.5898643973914768,5903.943779698587
0.836,-0.7829710526537911,5899.564348523119
0.84,-0.9148684417119335,5895.709539670696
0.844,-0.9725850247287281,5900.966728432097
0.848,-0.9506164803028577,5895.003754142497
0.852,-0.860253303611372,5902.26043408538
0.856,-0.7330812359290884,5907.010887189929
0.86,-0.6145396302863894,5904.923721516739
0.864,-0.5485583984480517,5897.575540048711
0.868,-0.5594805529709168,5896.107537758944
0.872,-0.6398242342800013,5903.8325999228855
0.876,-0.7504889198599036,5904.010581506232
0.88,-0.8343835682454508,5904.143679945008
0.884,-0.8379039386708337,5900.921797401026
0.888,-0.7309783912138014,5904.334871694574
0.892,-0.5177623491627962,5898.891752038138
0.896,-0.23521410580730898,5898.351512993148
0.9,0.05808392370133037,5903.469412610246
0.904,0.2981984899588982,5902.871851272035
0.908,0.43267169687518264,5899.899850889014
0.912,0.4340226322255104,5899.581308711926
0.916,0.30672302493399894,5899.000893631213
0.92,0.08581989206543775,5906.2475283742215
0.924,-0.17239625880176054,5902.796522863195
0.928,-0.4050011446410327,5892.318064773761
0.932,-0.5581839644738616,5889.023533878119
0.936,-0.599734702426292,5901.747775836535
0.94,-0.5248633340792518,5902.708588094167
0.944,-0.3539782467492014,5902.644952439148
0.948,-0.12366337944350324,5899.347351210604
0.952,0.12551381060799988,5900.276468386398
0.956,0.3596691565229956,5903.900907863235
0.96,0.5572030199740159,5899.828485939587
0.964,0.7087521309436698,5905.901330015523
0.968,0.8137060062338016,5908.036864620345
0.972,0.8763064305141977,5904.202024961841
0.976,0.9031858064406829,5898.941071064209
0.98,0.9024660628051835,5896.277603430431
0.984,0.8835239905296163,5910.548970011074
0.988,0.8566032580550373,5899.913008273655
0.992,0.831841595569435,5894.765054305856
0.996,0.8171745162811525,5905.059572830107
1.0,0.8147501875845968,5900.88652909842
1.004,0.8170889492163063,5897.3086929678575
1.008,0.8059985959651569,5898.801230418577
1.012,0.7565927178988622,5888.991781534609
1.016,0.645663197454663,5906.545085498235
1.02,0.461118505158375,5888.888065682327
1.024,0.20910064652244664,5900.570871672243
1.028,-0.08338585091618479,5894.635024042745
1.032,-0.37146904403542264,5901.621149745352
1.036,-0.6011582012090548,5901.1310794450665
1.04,-0.7223361697122236,5898.37710642698
1.044,-0.7025533019046896,5902.88416550133
1.048,-0.5370225171301197,5899.405614122471
1.052,-0.2508598418888688,5898.9025387692345
1.056,0.10746213601550306,5894.053995995675
1.06,0.47831729580009913,5904.571979292875
1.064,0.8030824774416704,5896.718708952624
1.068,1.0318304900685589,5904.391993966795
1.072,1.1262184070847077,5902.931290852937
1.076,1.0605634395282406,5893.424456469516
1.08,0.8242351450567988,5897.688610873141
1.084,0.42596363285771216,5896.876514820281
1.088,-0.10214151200387984,5910.248103790644
1.092,-0.7042106517826786,5898.002768112476
1.096,-1.3063226601834923,5893.405368260998
1.1,-1.82840061599705,5899.869601560003
1.104,-2.1996719799905504,5895.6076149318615
1.108,-2.3734626672450596,5902.564008316615
1.112,-2.3372833170511975,5897.143550260413
1.116,-2.1153908610161216,5904.017930164358
1.12,-1.7627479884806974,5894.151606617895
1.124,-1.3520211719570305,5903.272107135843
1.128,-0.9581538699648089,5898.187809408265
1.132,-0.6454974557878516,5905.004397214872
1.136,-0.4596251148085212,5902.448124828903
1.14,-0.42268319680224076,5906.535248714781
1.144,-0.530673376237933,5896.376236054835
1.148,-0.7531156221461056,5898.612446147638
1.152,-1.0370307604736653,5895.644985338924
1.156,-1.3160769556485161,5910.371758252378
1.16,-1.523222586536995,5894.099577659737
1.164,-1.6040247419999838,5906.951828615038
1.168,-1.5278822473374072,5889.7716368738365
1.172,-1.2951629399141567,5895.980382957833
1.176,-0.9382459197436426,5900.703224371901
1.18,-0.5152502285711458,5901.997311297133
1.184,-0.09737851490415171,5901.963961629185
1.188,0.24660852477432146,5901.098180265863
1.192,0.4643136118961089,5899.833542128356
1.196,0.5289139608100311,5897.673413691591
1.2,0.44278879033116414,5901.530875335027
1.204,0.23589098071495884,5901.994577127388
1.208,-0.04094889889442707,5896.5513101846445
1.212,-0.32743445884792205,5907.110604566282
1.216,-0.5677272088142237,5903.652871763734
1.22,-0.7224909686035128,5899.347997425786
1.224,-0.7748868260502609,5893.524788295557
1.228,-0.7294362342609234,5895.951507579895
1.232,-0.606136708043672,5893.254744723782
1.236,-0.4333945147254511,5898.395110320094
1.24,-0.24193845465611521,5900.492357082786
1.244,-0.05989577826016695,5895.622294831403
1.248,0.0915030063887429,5906.889765387447
1.252,0.20155768048379039,5895.450212612785
1.256,0.2721226014006904,5895.828850101595
1.26,0.31675152929565237,5904.049850684822
1.264,0.3568315167130904,5894.75616935533
1.268,0.4165865702598214,5899.604187677822
1.272,0.5192045109929256,5901.745738322811
1.276,0.684057041547737,5904.096099829164
1.28,0.9228240215230948,5897.391854552291
1.284,1.2333268332505172,5896.584390756089
1.288,1.5932516401889503,5902.508627010069
1.292,1.9583032087827252,5904.986154617347
1.296,2.26833909475404,5899.572259066231
1.3,2.46123044353838,5897.138955344302
1.304,2.489985224881933,5905.103528314513
1.308,2.3363263853641567,5902.831701770614
1.312,2.0149835347520884,5893.721791382077
1.316,1.5677273726276408,5891.623264284562
1.32,1.051873422958808,5905.88847332455
1.324,0.5298884763758438,5900.195297397016
1.328,0.06336750766037524,5899.040159812106
1.332,-0.2902924695586073,5899.284732108159
1.336,-0.48219009570277144,5900.661137646536
1.34,-0.47903452075206937,5902.792042400221
1.344,-0.27177279685576367,5898.4371955530505
1.348,0.1174801484074835,5897.766866366458
1.352,0.63346387021496,5892.347754399112
1.356,1.192779343863496,5900.573214177549
1.36,1.6960206497958978,5899.3753411424605
1.364,2.0452704217257365,5901.606584019328
1.368,2.163849917108614,5897.302452409334
1.372,2.0142066507375955,5902.234937704887
1.376,1.608969658091517,5903.890300763327
1.38,1.0107176385361143,5905.528194856492
1.384,0.3192139990750455,5904.021978199893
1.388,-0.3504481898517542,5900.213904476322
1.392,-0.8922823200028097,5896.647185128816
1.396,-1.230034434462908,5899.805404405019
1.4,-1.3298586927010507,5896.95627940392
1.404,-1.2035420969637969,5904.789797092424
1.408,-0.9027127310444252,5901.914878754925
1.412,-0.5056106698637813,5904.072887500482
1.416,-0.09929821985516389,5896.741956252318
1.42,0.2381499568022965,5903.5860437503125
1.424,0.45057379549235116,5901.901745376035
1.428,0.5089268060210522,5896.827205330092
1.432,0.4090888970946615,5900.9898377305
1.436,0.1651288360160151,5894.057157103868
1.44,-0.19806661216749097,5905.353309989471
1.444,-0.6494486465313197,5896.875642337601
1.448,-1.1526025427355404,5896.674263814346
1.452,-1.6644844525233582,5893.380007801469
1.456,-2.1359215029055743,5889.616002085856
1.46,-2.517154258630343,5902.978089844533
1.464,-2.7682164932008395,5898.473604340537
1.468,-2.869650596524238,5897.982221663839
1.472,-2.827374868681948,5905.24043800675
1.476,-2.6679538824574736,5912.736988489159
1.48,-2.4257566788308096,5898.9856312433485
1.484,-2.128652391816665,5900.118494559139
1.488,-1.7903343652154144,5899.685806215992
1.492,-1.4130242255046601,5907.0943872465
1.496,-0.997126850710731,5898.805826149197
1.5,-0.5504166005815933,5910.821101460479
1.504,-0.09123032772656814,5902.108722409376
1.508,0.35500009149619394,5899.207868477897
1.512,0.7629789719843133,5902.778947385677
1.516,1.1146198096531703,5899.563318414751
1.52,1.4024291210625952,5902.685468981473
1.524,1.6271471550174244,5896.273148739661
1.528,1.7907571505107243,5907.883004280869
1.532,1.8894372924024532,5906.98618878381
1.536,1.911543717692619,5892.466682648728
1.54,1.8424585985628228,5906.254002492763
1.544,1.6739091392614092,5895.163996732503
1.548,1.4129552789308046,5901.893956843047
1.552,1.0860067732593386,5899.833113776644
1.556,0.735470552965867,5900.48412779031
1.56,0.4096705592295251,5909.965048999976
1.564,0.14926790989442856,5903.705523045455
1.568,-0.024765604675332384,5893.087870297643
1.572,-0.11621168888603794,5896.858759609803
1.576,-0.14908032987706588,5901.12712538716
1.58,-0.15616896137075084,5904.846564161729
1.584,-0.16712176746791635,5903.106685029205
1.588,-0.20156103128546463,5893.291228323173
1.592,-0.2687716328895201,5900.3964206075325
1.596,-0.37152491076224575,5899.969633137389
1.6,-0.51003627488157,5901.657813694225
1.604,-0.6828319509678099,5903.273293720279
1.608,-0.8836839080187285,5901.582582258643
1.612,-1.0967130907778115,5904.271838322135
1.616,-1.2935541756618405,5904.800699031016
1.62,-1.435686915242189,5905.862640594656
1.624,-1.4822376673858444,5902.605032490856
1.628,-1.4007796267274355,5899.328126134705
1.632,-1.1773720178315228,5902.699996904972
1.636,-0.8224185643675471,5890.962472591832
1.64,-0.37032046374835076,5895.7368477104965
1.644,0.1272886688701423,5898.105722671778
1.648,0.613151040384067,5901.224911885742
1.652,1.0377018716607351,5897.405641290783
1.656,1.3698045959443732,5898.663665537836
1.66,1.6006953552863068,5903.365542556429
1.664,1.739406968554592,5901.599871770308
1.668,1.8020282426698258,5894.480248888278
1.672,1.7998743854340118,5895.60785009431
1.676,1.7314643305984647,5900.064531995512
1.68,1.5814673102980301,5902.795448609573
1.684,1.3276166403304932,5893.489528521666
1.688,0.9536158119175794,5904.540977750776
1.692,0.46288357630198534,5913.817187261695
1.696,-0.11313009823461075,5895.473678547856
1.7,-0.7160970151136954,5904.425999875849
1.704,-1.2712877346001474,5894.48097468355
1.708,-1.703627921234027,5900.663840741489
1.712,-1.9540044968088062,5893.246741303378
1.716,-1.9909787376021992,5904.451035716328
1.72,-1.8153099193404174,5901.697443065204
1.724,-1.4578793023276335,5896.283009860709
1.728,-0.9738314977839988,5899.978653929026
1.732,-0.43547553294933555,5900.441106656362
1.736,0.07556277803597893,5910.379488745568
1.74,0.47805658016238983,5902.028230558357
1.744,0.7035529801570344,5897.632780937946
1.748,0.7100375094025753,5905.47585770878
1.752,0.49306299072894655,5903.192096010899
1.756,0.08988523883565885,5903.366301948517
1.76,-0.4258081678404089,5895.116059595146
1.764,-0.9576773920075845,5893.275486438866
1.768,-1.4056689558403892,5900.471099629281
1.772,-1.6859234000030932,5903.86312730798
1.776,-1.7476573736647196,5895.929903628981
1.78,-1.5837463216208238,5903.482465484065
1.784,-1.232852320981203,5893.255068004405
1.788,-0.7722773940038451,5905.800472487962
1.792,-0.302154639155816,5900.9062793072935
1.796,0.07676983699142845,5903.790961522455
1.8,0.28761122140714696,5892.640849887992
1.804,0.29815560492265286,5903.669573910081
1.808,0.13148149073222473,5913.862604581203
1.812,-0.13830826252401351,5904.062999027196
1.816,-0.40548569107857857,5903.131974595087
1.82,-0.5620480909427341,5908.408406798577
1.824,-0.5280895217014889,5904.2200860939365
