时间(s),电压(V),幅值(高频80K)
0.0,0.32413243442707296,5901.968986719063
0.004,-0.03347936745589699,5899.778833559576
0.008,-0.3636531352289004,5899.170661529724
0.012,-0.6374822558604625,5912.925106778618
0.016,-0.829109551293986,5899.076772039405
0.02,-0.916175843281803,5897.239531342652
0.024,-0.8805071595401255,5897.584243186618
0.028,-0.7108563903554734,5899.968443986333
0.032,-0.40858542744058346,5902.756875642395
0.036,0.005841409751034988,5900.263120523042
0.04,0.49045645229888485,5891.949535168328
0.044,0.9874949731783425,5895.530521607038
0.048,1.4361961179009048,5902.198224085336
0.052,1.7866282229147337,5900.7830331952255
0.056,2.008097708173972,5894.287677804556
0.06,2.0902194320511,5896.168959185708
0.064,2.039721737425697,5898.797803000348
0.068,1.8772041881546606,5897.10139265692
0.072,1.635356072756046,5902.728395852194
0.076,1.357212560239709,5897.566889074617
0.08,1.0924722692078526,5903.533049003041
0.084,0.8907433627590915,5898.853195927468
0.088,0.7913319653249005,5886.723865863022
0.092,0.8110079999206707,5895.996654975667
0.096,0.9347798773198776,5902.536341631426
0.1,1.1163759269121232,5898.670098553063
0.104,1.291070724138309,5898.395461617697
0.108,1.3962476095410232,5901.693137842209
0.112,1.3906688506716787,5903.992035177398
0.116,1.2644773949313972,5899.645734430267
0.12,1.0371547420693727,5901.526806055187
0.124,0.7468629755355006,5897.2550348290415
0.128,0.43778711149125116,5902.329739763864
0.132,0.15044607055479703,5891.585649173223
0.136,-0.08395466231113262,5904.342333377097
0.14,-0.2465440280295129,5901.037045266895
0.144,-0.3326430064853867,5897.051929456479
0.148,-0.35249637199444167,5902.709279816209
0.152,-0.3294625175387801,5892.006117666635
0.156,-0.2942965502739107,5903.29186286699
0.16,-0.2761961374100613,5899.836114635843
0.164,-0.29371676594304297,5897.369076560928
0.168,-0.34934378405395106,5904.34196652913
0.172,-0.4299787484580762,5895.039240381056
0.176,-0.5131363909658115,5898.596941130696
0.18,-0.5765200331880718,5898.618677538308
0.184,-0.6072683923652646,5912.152197059543
0.188,-0.606875003010349,5895.8060026471685
0.192,-0.5891753036401031,5899.401872834704
0.196,-0.5718306268798284,5904.498155135384
0.2,-0.5651307353266173,5903.349147846861
0.204,-0.5638749519080446,5913.494458328959
0.208,-0.5473375758080461,5897.106985484696
0.212,-0.48880837517112224,5907.723401801142
0.216,-0.37101597808905035,5897.757392116904
0.22,-0.19923654509763408,5903.2618518358895
0.224,-0.003496580656807609,5903.681656471281
0.228,0.17318793918804767,5914.438208526116
0.232,0.2952635467785456,5895.395224957359
0.236,0.35333339930539776,5902.113272867825
0.24,0.37156726351472735,5912.572478713512
0.244,0.39977190912285704,5888.8351519160815
0.248,0.49295186316671413,5897.762630915256
0.252,0.6866362126664722,5904.563133749426
0.256,0.9781506200228576,5897.654876930295
0.26,1.321757203612774,5894.06575871793
0.264,1.6401777646291782,5900.81093774323
0.268,1.8485234775502084,5906.787475646504
0.272,1.8817328566392064,5897.0628817475
0.276,1.7156460227978214,5902.666399186564
0.28,1.3751830847937954,5909.914305867148
0.284,0.9282272914675288,5899.41794574439
0.288,0.4676573182649486,5907.64068239842
0.292,0.08618804527658377,5898.542258881087
0.296,-0.14929540720180284,5911.59941713835
0.3,-0.21576852724023085,5891.178056008769
0.304,-0.13762388666639613,5905.86616319475
0.308,0.0260870474498059,5897.471299274865
0.312,0.20580181144523318,5897.53621565135
0.316,0.3472554142190253,5905.36388181111
0.32,0.4290106827105526,5898.010777377112
0.324,0.46564948883972185,5906.564703762905
0.328,0.4962526323561907,5896.197811943313
0.332,0.5634927231395584,5894.918453166003
0.336,0.6926915414953645,5900.15872799666
0.34,0.8802715112774181,5902.341473348728
0.344,1.096113152506707,5900.906954174698
0.348,1.2968110004078772,5900.849380802987
0.352,1.4415868653271204,5905.887987581
0.356,1.5031070551956462,5900.308619118921
0.36,1.4704418377158879,5912.922701267279
0.364,1.3463251980465567,5899.663190141722
0.368,1.1425120275702143,5894.983005452992
0.372,0.876033063664386,5901.974489127635
0.376,0.5676459885359516,5891.221832263
0.38,0.2423882999374367,5901.803719462217
0.384,-0.06945984032537429,5895.539340358274
0.388,-0.33363551732465213,5892.511382165852
0.392,-0.516951937708642,5902.586132955647
0.396,-0.5952528494721152,5905.34389955486
0.4,-0.5614708590976778,5904.690544550987
0.404,-0.43058729377769117,5903.384234783852
0.408,-0.23896510179104366,5889.090425100532
0.412,-0.03717198259661667,5899.648154268909
0.416,0.12206350885188727,5898.768037210976
0.42,0.19695254561880524,5897.631275365266
0.424,0.16676421938722988,5890.836876905981
0.428,0.03654399791533544,5897.297033575767
0.432,-0.16413661750822264,5896.512291579388
0.436,-0.3877362852074302,5896.4863717422095
0.44,-0.57884825460463,5901.436565998443
0.444,-0.6851778433812559,5897.897676850203
0.448,-0.6668597313188978,5898.312882627509
0.452,-0.5028327690827455,5905.842900678791
0.456,-0.19428550465001154,5897.678557125221
0.46,0.23430332662855488,5905.545154645093
0.464,0.7363778295533692,5903.429596005138
0.468,1.2475112914343374,5894.827208096911
0.472,1.6937483453574598,5892.862458877982
0.476,2.004042991079831,5898.095889634371
0.48,2.124472242595238,5905.980996451452
0.484,2.0304868487393555,5900.960518902688
0.488,1.7338383011446101,5906.225875414107
0.492,1.2821781447129077,5903.369065432388
0.496,0.7509976033447531,5905.687149267057
0.5,0.22951421853802975,5902.294162338256
0.504,-0.19622215353199451,5904.353078000291
0.508,-0.45911872708335977,5898.870545639405
0.512,-0.522448040013558,5900.187956820684
0.516,-0.38502280280136714,5905.601465496272
0.52,-0.07987676482448294,5902.497191279619
0.524,0.3325939434145299,5902.500111902234
0.528,0.775379182060947,5902.329070584986
0.532,1.1674797446558114,5888.635694816705
0.536,1.4362827076599018,5903.671673173839
0.54,1.5280021078892951,5903.480157108356
0.544,1.4154233278129082,5906.722766561901
0.548,1.1025461781039112,5894.859664814153
0.552,0.6250596034111039,5904.431714946579
0.556,0.045245335772625045,5902.092934173635
0.56,-0.5589026374409076,5891.910129303872
0.5640000000000001,-1.1084743612749304,5910.748171863653
0.5680000000000001,-1.5388491794730492,5893.163684590312
0.5720000000000001,-1.811347326944273,5901.998785235443
0.5760000000000001,-1.9181760940755805,5898.001760912792
0.58,-1.8794180591466867,5893.666498547284
0.584,-1.73361014783769,5898.797090077368
0.588,-1.52613790056542,5903.646479696898
0.592,-1.3000099661759168,5898.974907895914
0.596,-1.0907847176298098,5904.589644679898
0.6,-0.9240480359129977,5895.989837451591
0.604,-0.8130431967785857,5897.23062498804
0.608,-0.7560025828766639,5902.893801149195
0.612,-0.735104929378278,5891.258109125982
0.616,-0.7197485819235473,5892.397232454836
0.62,-0.6754001294432072,5903.476967358477
0.624,-0.5761430933259304,5897.585761473179
0.628,-0.4159414422515054,5905.223710409215
0.632,-0.21303383668086048,5895.345900913533
0.636,-0.0047549441303412045,5902.51240115935
0.64,0.16519696854040974,5901.42137593839
0.644,0.2612061629345188,5900.126325047707
0.648,0.26542080151006625,5897.460040497383
0.652,0.17938542588508602,5904.032611652665
0.656,0.019361737460398924,5903.7118518942525
0.66,-0.18969739640819866,5895.219036694684
0.664,-0.41746798858302886,5898.392676962404
0.668,-0.6289075568586038,5899.028318369122
0.672,-0.7858464249416185,5899.940365068275
0.676,-0.8529443668280794,5907.263804066069
0.68,-0.8077652086939123,5898.441885549761
0.684,-0.6507029239844488,5901.383681070802
0.6880000000000001,-0.409128135792165,5912.107645831383
0.6920000000000001,-0.13209518347192548,5898.870827476682
0.6960000000000001,0.12406429442968765,5901.572489881313
0.7000000000000001,0.3145391594905898,5898.456911923444
0.704,0.4213578136815572,5902.105108191847
0.708,0.4578556582269627,5911.9546178342025
0.712,0.4600052602778097,5901.422247494157
0.716,0.4688943490153599,5904.904524433351
0.72,0.5122812979385709,5899.992019127272
0.724,0.5926424389863705,5898.528013485503
0.728,0.6858865870802975,5903.402278584107
0.732,0.7504701897607443,5895.878973223096
0.736,0.7425676959579254,5900.139871231471
0.74,0.6310497751895372,5892.785626471087
0.744,0.4070369782600928,5908.468274389212
0.748,0.0857321784032765,5904.634009186374
0.752,-0.2986267985150983,5908.589940914981
0.756,-0.7016219045752795,5894.72553041925
0.76,-1.0773870921991877,5905.315993205508
0.764,-1.3843160574512865,5903.100116832884
0.768,-1.5876077846413832,5900.432206393766
0.772,-1.6610945183951213,5898.232594766168
0.776,-1.5908136801346522,5891.720390768334
0.78,-1.3799944704447729,5897.049690544071
0.784,-1.0521230111304873,5912.547966678795
0.788,-0.6487864078337388,5905.050431831869
0.792,-0.22242762760284612,5901.420274351936
0.796,0.17256128140065713,5910.292249910352
0.8,0.48711264528151993,5895.4062649614925
0.804,0.6824782033776653,5903.274364650173
0.808,0.7342488526515432,5902.322234762753
0.812,0.6364373923529831,5898.639396739617
0.8160000000000001,0.40498111377175416,5903.83376504382
0.8200000000000001,0.07852677034539254,5905.377861683724
0.8240000000000001,-0.28554378637000066,5908.12492935252
0.8280000000000001,-0.6199431181650883,5908.101146697377
0.8320000000000001,-0.859012296473139,5901.974396443185
0.836,-0.9502730919961982,5905.685500009802
0.84,-0.8644415366200214,5903.868475699682
0.844,-0.603101325000175,5894.008084592593
0.848,-0.20254113463250373,5897.4344621181335
0.852,0.2685903420570009,5895.893994536399
0.856,0.7194804630632803,5904.957236639672
0.86,1.0546188591216454,5892.701199427933
0.864,1.195279608459228,5899.152659807722
0.868,1.099667746412753,5911.680697619936
0.872,0.7756590856018781,5901.782073057743
0.876,0.2816245869250573,5889.967043313232
0.88,-0.28550612369433975,5898.915965038889
0.884,-0.8120597500969624,5905.143348093083
0.888,-1.1943356574779338,5898.164828935466
0.892,-1.3641756796453253,5895.302739016812
0.896,-1.3064681927565704,5898.132991444995
0.9,-1.062384029000823,5895.88863388602
0.904,-0.7161747174806161,5897.895198089203
0.908,-0.3695805110776466,5900.687444259938
0.912,-0.11267278336822416,5900.2378164055135
0.916,-0.00044430934138597433,5897.9289185004745
0.92,-0.04093650960688367,5904.263410579857
0.924,-0.19599319975119714,5896.51852843128
0.928,-0.39254776812499453,5902.303173055589
0.932,-0.5412041437386933,5899.882816596805
0.936,-0.5588154377666276,5903.304997421067
0.94,-0.39164656887914584,5898.385534816266
0.944,-0.03441672050616401,5906.81356768685
0.948,0.4614180985355436,5909.672457917829
0.952,0.9960408069706836,5904.224923829531
0.956,1.4464173453669862,5899.116151366787
0.96,1.7004071470543654,5895.273306959523
0.964,1.687916329641198,5905.698376189599
0.968,1.399461840006358,5894.217296998367
0.972,0.8884086031659688,5891.350840036208
0.976,0.25826499216011484,5905.784993614229
0.98,-0.3609051372276805,5899.756772055049
0.984,-0.8416638476924125,5892.242207439852
0.988,-1.0877125809952743,5894.668464273811
0.992,-1.054915722864779,5902.992483730901
0.996,-0.7590054302812141,5892.161474786865
1.0,-0.2674934195174798,5900.645920796324
1.004,0.3215631392131664,5900.655012849931
1.008,0.9065498051153642,5901.28157513862
1.012,1.4059778704603172,5909.060618752314
1.016,1.7722629475812917,5899.546990009102
1.02,1.9937109839159683,5909.123603596951
1.024,2.0868004141738643,5898.684258298906
1.028,2.0827168450440716,5901.996075230569
1.032,2.012547112807501,5900.85647281991
1.036,1.8956695601473568,5902.0440808420935
1.04,1.735446867921805,5906.26965121715
1.044,1.5240472775903673,5899.897102374903
1.048,1.254082863275371,5900.116439030821
1.052,0.9311370200328097,5902.697797546038
1.056,0.5807718162965717,5895.70379697636
1.06,0.24647689232211695,5903.953724695384
1.064,-0.02076798416043562,5887.88991578859
1.068,-0.17722033296665657,5908.309316669933
1.072,-0.1997562644132748,5906.745316064088
1.076,-0.09299731919792861,5905.632179936656
1.08,0.11199674108318397,5906.115396648977
1.084,0.366191964652248,5896.804502767724
1.088,0.6144892863357977,5903.543361437549
1.092,0.806877813137496,5899.300432986172
1.096,0.9058300794868975,5891.972933170363
1.1,0.8892462292743243,5902.946202496863
1.104,0.7507423168551586,5905.109343893419
1.108,0.4999008843660084,5908.737700387965
1.112,0.16325241522880318,5897.378558027825
1.116,-0.21602202336623103,5899.557056262195
1.12,-0.5826698403386605,5900.66630002009
1.124,-0.8795554084400086,5900.919917136706
1.128,-1.061540832528469,5903.887033828984
1.132,-1.108267988519382,5897.18811525244
1.136,-1.0304615370801622,5898.777098733111
1.14,-0.8668021413032744,5898.794312243824
1.144,-0.6725582629509854,5895.128582608251
1.148,-0.5044022066148707,5897.908366775648
1.152,-0.4062572993277588,5911.43605930805
1.156,-0.39916829162593004,5906.0049296340585
1.16,-0.476510084991001,5904.009751245408
1.164,-0.6055129854184744,5888.6454848525855
1.168,-0.7355341044718018,5895.760532418356
1.172,-0.811505150855305,5889.724892487059
1.176,-0.7887719644725603,5907.804466337849
1.18,-0.6448654817676697,5897.387815746188
1.184,-0.3850507711192879,5898.72559054346
1.188,-0.04092944694953123,5901.97853961635
1.192,0.33678279870690236,5894.833594915843
1.196,0.6896305091780783,5903.39697103069
1.2,0.964712930497773,5906.568475304147
1.204,1.126568701454333,5897.875727391712
1.208,1.164411395703042,5903.883468335012
1.212,1.0933778348795231,5894.937806510348
1.216,0.9501654420127722,5891.497578711013
1.22,0.783817254518403,5886.8082907343005
1.224,0.6428592601669711,5901.637334975238
1.228,0.5616231012517481,5904.558708646729
1.232,0.5502022091720751,5906.806221070357
1.236,0.5920619067965692,5900.559679791129
1.24,0.6504809990647029,5903.250135757519
1.244,0.6816345329303739,5909.519059624292
1.248,0.6501983037001764,5905.356862912762
1.252,0.5427038253404824,5905.616170288872
1.256,0.3737248567287736,5893.766552877582
1.26,0.1814991575830603,5900.460262866549
1.264,0.014083337457194835,5907.48539889686
1.268,-0.08763566387237044,5897.094621643996
1.272,-0.10225177646742675,5895.767335191817
1.276,-0.031152690999280516,5899.374580432072
1.28,0.1063764633515132,5892.636763645827
1.284,0.28232492689419836,5899.7833412491445
1.288,0.46892436850813124,5890.429715689639
1.292,0.6441920198990889,5898.592205372555
1.296,0.7930789854494229,5896.321473551462
1.3,0.9053108055174713,5903.581480494463
1.304,0.9718386412822303,5898.69606157076
1.308,0.9816421236150813,5895.478562752504
1.312,0.9204828409627687,5893.326818781282
1.316,0.7732591249801326,5903.56327200439
1.32,0.5305796522835824,5895.459105972752
1.324,0.19749858629538392,5892.1217750879005
1.328,-0.2000244220069886,5901.548114194145
1.332,-0.6150680513887522,5895.418096158478
1.336,-0.9872805684999073,5896.298558096169
1.34,-1.2556942128768502,5894.4777096354765
1.344,-1.3724635663738414,5903.566246779966
1.348,-1.3133985712716831,5904.025268004951
1.352,-1.0831482446902287,5901.071567514854
1.356,-0.714802201427181,5905.446036125404
1.36,-0.2640732684842806,5908.151086656289
1.364,0.2019976455011669,5892.900492877137
1.368,0.6206249198747104,5900.913663716945
1.372,0.9490821820402161,5905.8772019171065
1.376,1.17463574077074,5897.243479602014
1.38,1.313980747723547,5897.977796526363
1.384,1.4024027706587774,5902.674903106167
1.388,1.47779897012977,5899.931164029954
1.392,1.5661384259171796,5897.791916112053
1.396,1.6728090236647246,5898.629200766593
1.4,1.7813227114355994,5898.184905278784
1.404,1.858898111435087,5904.093354555547
1.408,1.867225250720659,5900.428990147834
1.412,1.775609208760909,5892.401164293313
1.416,1.572837400598018,5893.231828833858
1.42,1.274009825476607,5895.897332637558
1.424,0.9196148944918466,5902.95976397785
1.428,0.566365212122145,5894.584444913668
1.432,0.27207133631401154,5904.399794064165
1.436,0.07905395167193947,5900.714202043446
1.44,0.00136545640382476,5899.277733957157
1.444,0.019909827082692344,5897.891671587636
1.448,0.08681063320543811,5901.47730906022
1.452,0.1375639284267887,5903.8597341679415
1.456,0.10782136282307302,5897.716733799272
1.46,-0.04918751230264188,5899.181606181876
1.464,-0.34905741351786296,5895.223185927114
1.468,-0.7703280801112729,5906.646346823696
1.472,-1.2580489410746898,5891.546120308475
1.476,-1.7358202622072019,5888.350624347606
1.48,-2.1234193580857657,5901.949665950537
1.484,-2.3558822540513056,5897.608305510576
1.488,-2.399199777125198,5897.730207834493
1.492,-2.2584832181619277,5901.401585692641
1.496,-1.976748875435565,5905.365714095462
1.5,-1.62478934132313,5896.77799707946
1.504,-1.2838310599025051,5902.65046788784
1.508,-1.023895574915439,5906.44967426012
1.512,-0.8831371075259501,5905.788089037779
1.516,-0.8555665849693997,5895.355686012374
1.52,-0.8935615211740717,5903.242353234136
1.524,-0.926090915159197,5907.789875417123
1.528,-0.8860209868165196,5906.028231029533
1.532,-0.7349737092720261,5913.660927805386
1.536,-0.4752603317267595,5897.51697222217
1.54,-0.14473975016574897,5913.433470383561
1.544,0.20147561051378882,5905.563688495221
1.548,0.5127956654611016,5899.748994980025
1.552,0.7581089642605721,5899.619251610386
1.556,0.928219429376954,5894.202473207443
1.56,1.027110141843892,5903.460714254816
1.564,1.0588398505322412,5893.48513394909
1.568,1.017981753308365,5906.088987975407
1.572,0.8884253233159366,5891.4952745610335
1.576,0.6506768295453957,5897.070622381912
1.58,0.2942056269543824,5900.364315565755
1.584,-0.170100850600233,5895.973192062748
1.588,-0.7021440069904323,5902.0806220103
1.592,-1.2331684949605881,5901.115375729817
1.596,-1.6763730789326614,5902.661496890429
1.6,-1.945870576991716,5902.741422041377
1.604,-1.978161906316364,5896.957681946119
1.608,-1.748364536570157,5904.059469866068
1.612,-1.2758595680466234,5902.693311900722
1.616,-0.6190733668636443,5892.522913369037
1.62,0.1369776313995993,5898.653609320596
1.624,0.8958633143141395,5893.691021856661
1.628,1.564389412304068,5897.7876168416105
1.632,2.064983600129273,5894.673944214252
1.636,2.344676867861472,5900.151269245219
1.64,2.379635438242821,5895.607788908433
1.644,2.175009807637441,5897.211110289452
1.648,1.7615991755991398,5911.850934097883
1.652,1.1919186472001093,5903.755221008441
1.656,0.5368533224108929,5898.561968476104
1.66,-0.11926775848112979,5899.135483424794
1.664,-0.6890856881670221,5896.4713513739325
1.668,-1.0991555869241432,5906.096909757767
1.672,-1.3085725543998228,5889.182983056099
1.676,-1.320577064350612,5897.250014603747
1.68,-1.180224067399594,5898.881165823022
1.684,-0.9578684630625084,5899.564482461654
1.688,-0.7255747444614301,5902.9082252023545
1.692,-0.5367828331069934,5897.287898625103
1.696,-0.41664566060835084,5900.03435336278
1.7,-0.3641204817845673,5904.89778902929
1.704,-0.3618824912368904,5904.001574950991
1.708,-0.38853110294748067,5898.100291786394
1.712,-0.42843323402316325,5899.858565787034
1.716,-0.4765503741960833,5906.435166516724
1.72,-0.5378133724869242,5896.6241483335925
1.724,-0.6223957847755901,5909.421419427808
1.728,-0.7394376617057129,5892.263950305624
1.732,-0.8920538973569826,5894.439453680632
1.736,-1.07521430176944,5889.285535702929
1.74,-1.2759802988089208,5900.0638415624
1.744,-1.474526257494102,5902.093140107282
1.748,-1.6450620947298875,5898.420314184858
1.752,-1.7570365667834005,5896.388439655122
1.756,-1.7777880992535244,5907.604906177307
1.76,-1.6779851363463514,5892.836307690721
1.764,-1.4403643291539892,5898.999373771762
1.768,-1.0699854821884536,5911.503332500917
1.772,-0.6016305031085567,5897.796613249725
1.776,-0.09946586544328356,5904.886689470748
1.78,0.3532941803076688,5892.530740633577
1.784,0.6727446216927848,5897.1833350590005
1.788,0.7952505469755605,5911.928052256281
1.792,0.694484655196337,5903.979888585707
1.796,0.3895138340163294,5905.725262831467
1.8,-0.05795044514288023,5898.124477334075
1.804,-0.5561074795625399,5897.839755075995
1.808,-1.0027778751222902,5901.628079841121
1.812,-1.3085556910790341,5901.50005077313
1.816,-1.4182303265172267,5893.756857425773
1.82,-1.324225070804187,5893.827188583276
1.824,-1.0671303406442887,5900.034247697425
