时间(s),电压(V),幅值(高频80K)
0.0,-0.7368694248821743,5904.882986805227
0.004,-0.6701387368774444,5907.173317862037
0.008,-0.6346982991018288,5900.626228520856
0.012,-0.6473817482271922,5894.47635858017
0.016,-0.7056932777370466,5897.341094523403
0.02,-0.7853461551939124,5894.222026185877
0.024,-0.8436418376945297,5890.12083054717
0.028,-0.8292971020599103,5899.813525306138
0.032,-0.6983993474650446,5898.928710583118
0.036,-0.4321950144983243,5893.27866194232
0.04,-0.04858492530459395,5897.50261182383
0.044,0.3998046080690385,5898.655900387831
0.048,0.8412687701014414,5892.705018147807
0.052,1.2066919804587197,5909.310846553826
0.056,1.4469286129294776,5904.394503094575
0.06,1.5400884073202203,5905.299201562751
0.064,1.4898419194296968,5888.856669072545
0.068,1.3194872328770786,5898.7805149154165
0.072,1.0656533399680723,5901.37211403967
0.076,0.773049338348394,5905.539518641464
0.08,0.49001175879996645,5907.738789700523
0.084,0.26363495585014274,5895.7456027599965
0.088,0.13259712070088736,5891.0380131827615
0.092,0.11671476652950172,5912.446430472974
0.096,0.20601383162462567,5908.609620893545
0.1,0.3563701684482221,5889.118588602448
0.104,0.49831141830834674,5889.948836287645
0.108,0.558704730067065,5895.541659699632
0.112,0.4869045926062954,5905.138610779992
0.116,0.273734773237845,5912.017020710668
0.12,-0.04510117684228814,5895.060958630844
0.124,-0.4023230015975818,5901.224995287339
0.128,-0.7225573665635159,5885.331231090898
0.132,-0.9453841729173198,5903.954453440965
0.136,-1.0391256301383025,5900.048918416575
0.14,-1.002555760320375,5901.174303049551
0.144,-0.8577476557023138,5896.674483542413
0.148,-0.6402063170131694,5892.818887413656
0.152,-0.3913163090427105,5901.724569491001
0.156,-0.1539558705888118,5893.020130071291
0.16,0.03191713114829842,5894.4062851411045
0.164,0.13688014586303976,5899.569479230095
0.168,0.15145067491872016,5900.751302679764
0.172,0.09137695305151483,5907.456900727969
0.176,-0.006375713304933874,5906.39188309705
0.18,-0.0965924011152195,5899.775139463538
0.184,-0.142192476565445,5900.574390363417
0.188,-0.12738796218088147,5898.7246936035335
0.192,-0.06304875588212137,5904.867038681854
0.196,0.017588110859730326,5905.359416134716
0.2,0.07209488116518764,5896.991092880428
0.204,0.0669217308704364,5904.385308875601
0.208,-0.00678218434529562,5904.835229610097
0.212,-0.1270630527021502,5898.118077323553
0.216,-0.24788013472039816,5897.9832942357625
0.22,-0.3149748887076534,5906.311792529276
0.224,-0.2830548626423467,5899.140206740845
0.228,-0.12767861316167897,5908.600416502956
0.232,0.15026788376901173,5912.6163171253775
0.236,0.5260438414630331,5903.812275425647
0.24,0.9563232366469011,5903.286042297831
0.244,1.38705632125163,5892.093603227761
0.248,1.7631778866535972,5901.527737101932
0.252,2.038553259314206,5909.134722986634
0.256,2.1835978608050324,5901.933842181433
0.26,2.1887570266499177,5897.51134438999
0.264,2.0640281610161564,5903.66984456523
0.268,1.8358101173124945,5899.739110607046
0.272,1.5421936124543008,5897.183483366635
0.276,1.2275405755604671,5904.610701058371
0.28,0.9369667883051356,5905.57600671294
0.284,0.7107795452488742,5906.501211424949
0.288,0.5785478251046037,5910.003129041126
0.292,0.5528678152926789,5898.581170953488
0.296,0.6240884005087364,5899.936547545856
0.3,0.7588162774602975,5899.926948392674
0.304,0.905439533445415,5898.103898614602
0.308,1.0074466930501143,5900.809853800632
0.312,1.0204992299494668,5902.071029504778
0.316,0.9258285951801111,5907.472317757354
0.32,0.7341175603546395,5901.613375197848
0.324,0.4793470616381305,5896.663338008751
0.328,0.206506905011922,5902.631181327303
0.332,-0.04181913694667717,5900.149833724861
0.336,-0.23589387838720885,5892.521195791826
0.34,-0.363567463721414,5895.232171665492
0.344,-0.4284946060995107,5905.277120803684
0.348,-0.4436525615978614,5900.574585429236
0.352,-0.42426419499847334,5894.259697924329
0.356,-0.38433482131547825,5899.219726769894
0.36,-0.33824849513020905,5896.039027430931
0.364,-0.3046819908000429,5895.107316388101
0.368,-0.30746560793512795,5914.106413027086
0.372,-0.3695186021280375,5899.750146533099
0.376,-0.5012206566680183,5898.179625670732
0.38,-0.6895945913487417,5899.97703155217
0.384,-0.8953856889965562,5901.985244892444
0.388,-1.0612612459889892,5900.366647830177
0.392,-1.1289245634054919,5904.628635212318
0.396,-1.05890426001388,5900.396771209952
0.4,-0.845570080710551,5898.517196251389
0.404,-0.5217454777741224,5903.378787544049
0.408,-0.15119385101273503,5904.654002130079
0.412,0.18860183182502996,5897.438650054684
0.416,0.4280912283171729,5904.591951577448
0.42,0.5251958521981402,5889.718644841792
0.424,0.4763926486749001,5899.95968868193
0.428,0.3152532061134851,5904.657150365189
0.432,0.09895975113613603,5896.751638945706
0.436,-0.1115939831650774,5894.09837867525
0.44,-0.2701202249319167,5897.078864147467
0.444,-0.35524536704343784,5908.753075107882
0.448,-0.3704309041448375,5898.531756321829
0.452,-0.3354373798663227,5905.647109094893
0.456,-0.27411113297590584,5896.227185121898
0.46,-0.20375491365746265,5895.660496207423
0.464,-0.12974219501840756,5900.394657327555
0.468,-0.04647569910249955,5906.892378383883
0.472,0.0565567284282055,5907.107396498834
0.476,0.18636343772576355,5896.512320677056
0.48,0.33909330555843836,5897.058646019227
0.484,0.49700849067604436,5905.204562131219
0.488,0.6314427450312655,5904.969134661926
0.492,0.7107257793240174,5903.756425181448
0.496,0.710164618713837,5906.8994333075
0.5,0.6209649178069868,5898.522396519985
0.504,0.4553272000367733,5903.772088431262
0.508,0.24532838952206576,5890.114057496675
0.512,0.0347698720028783,5898.092763722299
0.516,-0.13387033170056187,5907.804852165988
0.52,-0.23284526999202754,5899.431898713408
0.524,-0.25811530083796663,5907.5118756427
0.528,-0.2306904945283895,5896.365478732889
0.532,-0.18958518118878595,5906.647617360364
0.536,-0.1783538987923793,5891.365542764303
0.54,-0.22970483464723182,5899.831020303746
0.544,-0.35404462822586863,5893.143295257538
0.548,-0.5367171022207712,5898.7155101309245
0.552,-0.7449684353079473,5895.994975516611
0.556,-0.9412383259424181,5899.220339372234
0.56,-1.0968410645980953,5895.5337433604345
0.5640000000000001,-1.20029952484594,5893.784086037712
0.5680000000000001,-1.2568079117702313,5904.815626574084
0.5720000000000001,-1.2790548600214147,5904.139886777066
0.5760000000000001,-1.2741686653275122,5904.259945284393
0.58,-1.2342912025120216,5902.995345943542
0.584,-1.1367388546929162,5901.250607171559
0.588,-0.9545023074151548,5896.012987701221
0.592,-0.6721665231319564,5907.491625091594
0.596,-0.2991806812500715,5910.668143556699
0.6,0.12656345285014195,5900.552525351861
0.604,0.5468712757695057,5888.07398094358
0.608,0.8990736082709824,5901.69108011461
0.612,1.1324486013575845,5894.650265861037
0.616,1.219455967240571,5907.931508691196
0.62,1.159492840851169,5904.231084686896
0.624,0.9756789474807956,5903.655212493574
0.628,0.7065644664955557,5888.349753412175
0.632,0.395473139636996,5895.0243884048095
0.636,0.08059011473660017,5904.859603626821
0.64,-0.21164421016843213,5904.285075268354
0.644,-0.46853071340897046,5913.196437927899
0.648,-0.6886598982077986,5893.444102624217
0.652,-0.8767579544256541,5905.769086013032
0.656,-1.0385772892028693,5894.378291339956
0.66,-1.1779370088151402,5905.656156634045
0.664,-1.2961745766561943,5901.672137666896
0.668,-1.3927654835746686,5897.987368047236
0.672,-1.4654961813307772,5899.0803053900745
0.676,-1.5094165620668012,5901.827027080054
0.68,-1.515605973374372,5896.548000617531
0.684,-1.4721440894347508,5898.66368554556
0.6880000000000001,-1.3686400034928727,5899.3693802355865
0.6920000000000001,-1.2024506040457146,5887.466442098687
0.6960000000000001,-0.9823857673847287,5899.3691271286525
0.7000000000000001,-0.726976172523587,5904.643409024014
0.704,-0.45832563257325654,5899.314548450825
0.708,-0.1955683739432259,5895.282361627429
0.712,0.0483161547358196,5904.334957330159
0.716,0.26523047560777707,5901.898503635051
0.72,0.44787326111217785,5906.893217006017
0.724,0.5859230126368807,5895.6249145817455
0.728,0.6653800833509127,5901.143504055326
0.732,0.6721979894857506,5901.968323110017
0.736,0.598703524086424,5897.944789638498
0.74,0.44947353313885435,5901.556631717714
0.744,0.2438247144133771,5901.303335552127
0.748,0.014312566146900426,5896.073526551052
0.752,-0.19780141394758535,5904.112320184316
0.756,-0.3494808151831068,5901.662272447234
0.76,-0.4051362907924054,5892.379847333916
0.764,-0.34686972916107445,5898.027872105351
0.768,-0.18252480376335833,5892.605976206007
0.772,0.05215736282547186,5890.272514875426
0.776,0.29944868148641823,5898.201705658901
0.78,0.49323386198464686,5898.376204098462
0.784,0.5771171445495534,5891.617358553374
0.788,0.5214188801406527,5894.162082569315
0.792,0.33280042848054325,5901.0024634113015
0.796,0.0526157697536982,5905.0932625995
0.8,-0.2554250879312596,5897.557958496779
0.804,-0.5236449644058582,5895.537672871808
0.808,-0.6985472033242659,5900.97915012851
0.812,-0.753460481933799,5897.566961678606
0.8160000000000001,-0.6931444419420093,5895.9074701747695
0.8200000000000001,-0.5505098054412669,5899.24998845559
0.8240000000000001,-0.37705895582466475,5895.64263870666
0.8280000000000001,-0.22929113641871085,5908.639165220528
0.8320000000000001,-0.15412307278579485,5893.541617735312
0.836,-0.17704310135746867,5899.061874116655
0.84,-0.2960924437870911,5892.365464356944
0.844,-0.4828437263650249,5901.744559076893
0.848,-0.6895452415318299,5895.762896298577
0.852,-0.8603835867227947,5899.06137425929
0.856,-0.9444361158357919,5901.45641833192
0.86,-0.9079888567451088,5901.368980036884
0.864,-0.7439172158304056,5906.3703086393225
0.868,-0.4755636026745419,5904.5400891934605
0.872,-0.15282160833453626,5898.2554493796615
0.876,0.15990308113107662,5911.973014526028
0.88,0.4008692874557144,5901.734571413326
0.884,0.5277450911572178,5899.880881914773
0.888,0.5281708003411262,5902.1339908593845
0.892,0.42051878231051554,5897.915355104861
0.896,0.24478777171049604,5894.749351156249
0.9,0.04739070903359685,5903.3332254151255
0.904,-0.1341253561872355,5906.297675219449
0.908,-0.28100347746226717,5903.129877231952
0.912,-0.395316809830027,5896.0349898079285
0.916,-0.49471860523233646,5894.504302649191
0.92,-0.6023889774110843,5897.440668336606
0.924,-0.7355170798128589,5905.839759511396
0.928,-0.8961105808814949,5901.263285083334
0.932,-1.0676027425895402,5902.192107584527
0.936,-1.2189186322585246,5890.850066630656
0.94,-1.3147353110654842,5905.733691374953
0.944,-1.3279557097368813,5905.900375593747
0.948,-1.2493419211192844,5894.877233617973
0.952,-1.0906793906175536,5908.054465020932
0.956,-0.8812163666355349,5896.156017453395
0.96,-0.6601426336953398,5895.9651667350445
0.964,-0.4681634569250693,5905.461741079198
0.968,-0.33932053761106,5894.999093995822
0.972,-0.2933002771932135,5911.10123028186
0.976,-0.329783266538999,5894.34546923443
0.98,-0.42752427637512985,5903.452898608752
0.984,-0.5498039786856249,5901.708513338544
0.988,-0.6554304576315311,5911.2838545379045
0.992,-0.7121677846268746,5893.778635124653
0.996,-0.7081738430350205,5904.9961570863725
1.0,-0.6571926327890276,5900.426251162375
1.004,-0.5952131977670082,5900.212004313004
1.008,-0.5696577799809658,5906.560613044407
1.012,-0.625030982393132,5901.318745737552
1.016,-0.7894370915341818,5903.423791515493
1.02,-1.064926297693931,5901.991281377684
1.024,-1.423355179796856,5904.214185167415
1.028,-1.8089796293626574,5899.105832598701
1.032,-2.1482216017202034,5896.004660833453
1.036,-2.3652632745452613,5901.576392411539
1.04,-2.3999855463040167,5903.897044743311
1.044,-2.223615174099965,5914.880909989865
1.048,-1.8479779459445111,5894.547303105194
1.052,-1.3257874042491096,5899.916181056091
1.056,-0.7410066902976998,5906.447041986137
1.06,-0.19032578614254853,5908.410681882133
1.064,0.2401773499674121,5900.094266919847
1.068,0.49616476328758313,5902.481227606268
1.072,0.566516962153876,5896.554892882896
1.076,0.4810955721219768,5897.675233185297
1.08,0.2963509319238456,5896.402543023879
1.084,0.0752428398850125,5901.900088581785
1.088,-0.1302856272633032,5899.587997255097
1.092,-0.28828566463318217,5894.452458879954
1.096,-0.38625076547314746,5896.08161746875
1.1,-0.42479657195695,5903.376837370976
1.104,-0.41098787365860007,5905.939111603879
1.108,-0.35480166475658986,5902.210323790512
1.112,-0.26872371776658227,5902.560794102804
1.116,-0.1680844060592129,5893.870588550348
1.12,-0.06980124150116233,5898.336469644487
1.124,0.010828865224582433,5897.297059138489
1.128,0.06373447437440828,5911.536810706361
1.132,0.0862778025316056,5899.394674746862
1.136,0.0831488615120974,5903.69817745213
1.14,0.06382289212617989,5898.325322701877
1.144,0.038335848643745105,5902.208796797256
1.148,0.013048801772860628,5899.300874765519
1.152,-0.012174982152413992,5899.328766743151
1.156,-0.045284294449123325,5904.591919969716
1.16,-0.10226561228613948,5895.066330635028
1.164,-0.20560066415490094,5905.267888462459
1.168,-0.37912408039606277,5895.272477896903
1.172,-0.6383065352487229,5896.697843884768
1.176,-0.978122992504648,5906.554992071085
1.18,-1.3639517392429932,5894.631426125177
1.184,-1.7316895384723157,5896.829106914029
1.188,-2.000449390628052,5903.009934739078
1.192,-2.095792293397451,5902.014501140781
1.196,-1.9758128388176086,5899.769709821046
1.2,-1.6495895509210765,5902.538699461187
1.204,-1.1793070996254704,5905.238174652316
1.208,-0.6632099892880118,5909.826351345749
1.212,-0.20437788674973276,5912.556093516157
1.216,0.12301961333880929,5909.310258558782
1.22,0.2964050752178835,5889.817430076462
1.224,0.34742953741034655,5908.476894261399
1.228,0.3448256544008672,5902.243986281276
1.232,0.3665754233671774,5902.3935198299705
1.236,0.47374846336861826,5899.26286724032
1.24,0.694816959616475,5899.991754098393
1.244,1.0225512010574018,5900.491242300469
1.248,1.4204090908615645,5898.228200306157
1.252,1.8334189893323305,5904.334948707682
1.256,2.1991995589147573,5903.488618826358
1.26,2.456852527523259,5893.4285082163005
1.264,2.553862850752981,5902.846142683035
1.268,2.4525672763908584,5897.9899521055295
1.272,2.1374277109126654,5904.610686838208
1.276,1.622426271918279,5900.152281505601
1.28,0.9554735852941454,5900.545622592821
1.284,0.21564224062188325,5899.034550567213
1.288,-0.49895720666551463,5907.050633424561
1.292,-1.0901416301225373,5897.778175163796
1.296,-1.4790558528695468,5903.0584735209
1.3,-1.6199573740255473,5894.91127240716
1.304,-1.5061190989719369,5904.454085203684
1.308,-1.1689459540340363,5910.447276627556
1.312,-0.6721519412084455,5903.793507318068
1.316,-0.10189727263990438,5893.58373602101
1.32,0.4468129481522145,5901.9596939402645
1.324,0.886164776294179,5896.729909331129
1.328,1.1508042221312422,5897.631302883431
1.332,1.208648198914021,5905.898117567429
1.336,1.0654343064463623,5901.961605233892
1.34,0.7631286353654944,5902.776094706535
1.344,0.3719884208974606,5893.860190147363
1.348,-0.02464516857990341,5905.185183961087
1.352,-0.3515071225158859,5914.352534129091
1.356,-0.5624681339933357,5902.352205840125
1.36,-0.6524542629368909,5900.229200965669
1.364,-0.6535642651611191,5896.160287100994
1.368,-0.6160575252327657,5895.49293222329
1.372,-0.5827905436818327,5895.943463208501
1.376,-0.5690075359606515,5899.53998047292
1.38,-0.5561027306975199,5900.609049298724
1.384,-0.5005571240538216,5889.228138817195
1.388,-0.3525655533040165,5898.348828704374
1.392,-0.0761128446884769,5909.764034577947
1.396,0.33668921370572824,5898.762375310943
1.4,0.8608540937352008,5908.788853588584
1.404,1.4430706168562797,5895.6587551950215
1.408,2.0122108438273587,5898.069066573891
1.412,2.4919927096470884,5907.746282548424
1.416,2.813437290355716,5892.414063373056
1.42,2.926117025877255,5906.2367108608805
1.424,2.807564102837796,5896.092751852822
1.428,2.4699046943898333,5907.078073562757
1.432,1.9620617459452094,5903.434695418813
1.436,1.3652203363823987,5903.746829083726
1.44,0.7799118699063396,5901.046927538929
1.444,0.3056845039506974,5898.097716858588
1.448,0.017640368664137943,5911.444003412476
1.452,-0.053815570131220895,5907.027754863885
1.456,0.06642969450671961,5910.212358331065
1.46,0.3020070300173056,5905.205771149211
1.464,0.5443255591389908,5904.445362849272
1.468,0.6829680976565222,5897.931257705663
1.472,0.6381685816534985,5897.789592154088
1.476,0.3849849706151938,5910.887007452133
1.48,-0.038511116041865294,5898.579207182382
1.484,-0.5417016200711392,5909.270644597343
1.488,-1.0078576230907512,5905.352499810958
1.492,-1.3289036460317596,5902.653131201281
1.496,-1.4372632917272428,5900.611721145909
1.5,-1.3235803629169096,5895.613118877876
1.504,-1.0342829556867403,5898.983742910242
1.508,-0.6511931129269543,5905.60016742508
1.512,-0.26228785515565184,5898.55616164045
1.516,0.06490994368174689,5898.394723459147
1.52,0.2982871228274534,5898.21284117842
1.524,0.44084533465197634,5897.040034697704
1.528,0.517535486848496,5894.6166848118
1.532,0.5561234316177565,5907.932235928475
1.536,0.5707689238180551,5904.9336164929055
1.54,0.5555680912658452,5901.644436145633
1.544,0.49083244759029837,5898.755235407753
1.548,0.3584932271244046,5905.307008034386
1.552,0.1577410960070676,5896.498166080939
1.556,-0.08850086604183717,5893.66640360273
1.56,-0.34046595053177825,5901.232148770456
1.564,-0.5581452010016585,5906.212879873701
1.568,-0.7184161875751134,5898.866125067025
1.572,-0.823680838549744,5905.87093438368
1.576,-0.8983323698445389,5900.3130738409245
1.58,-0.9759228310294373,5900.669272082194
1.584,-1.0836169297808997,5896.544917386618
1.588,-1.2302171886594955,5903.083067092587
1.592,-1.4013595072420713,5900.482533830973
1.596,-1.5626539446860648,5905.388636144194
1.6,-1.6695261805716346,5896.871439444875
1.604,-1.6808332362422258,5900.588141234207
1.608,-1.5718266589059768,5899.954513624909
1.612,-1.34195480255265,5905.1387513637055
1.616,-1.015221586842743,5905.622281929474
1.62,-0.6339912996164019,5900.1922211484025
1.624,-0.24901029661797505,5899.695065368538
1.628,0.09154336574181215,5899.688218949038
1.632,0.3518163896714947,5900.956574543342
1.636,0.5151861172064349,5901.78520982077
1.64,0.5873052360150032,5891.88295605163
1.644,0.5949978857156755,5900.514906109509
1.648,0.580820416320434,5906.226918055776
1.652,0.5930636823308628,5902.718562043169
1.656,0.6722238705751145,5899.252855672376
1.66,0.8372138585896437,5907.259942416493
1.664,1.0758806325359682,5899.331623061745
1.668,1.3437357665233491,5900.036421615402
1.672,1.5725738565269975,5897.420384803136
1.676,1.6873742624878523,5901.697709710869
1.68,1.626523634024374,5907.377767852321
1.684,1.3589030676015466,5905.182244212308
1.688,0.8929711642950516,5893.624898651567
1.692,0.27634019551814687,5893.995487529344
1.696,-0.41293381220405595,5902.539638033741
1.7,-1.0809063425032324,5893.560274263417
1.704,-1.6352805490234594,5900.062527303119
1.708,-2.0028405739984354,5912.876926310847
1.712,-2.14349599370287,5904.759375669286
1.716,-2.0573825244273243,5901.543624359509
1.72,-1.7819334472230122,5903.65383786152
1.724,-1.3785315832420808,5899.267187337041
1.728,-0.912925857433206,5906.717977857148
1.732,-0.43696426828846263,5908.877319755903
1.736,0.021304409270312616,5897.055134633964
1.74,0.4560385934370484,5898.636582224906
1.744,0.8725099452852719,5908.655385939601
1.748,1.2726189338803364,5898.396682551721
1.752,1.6443317024171473,5892.181149362356
1.756,1.9596840779689337,5888.430367425454
1.76,2.1811295244769995,5893.124473909259
1.764,2.2723724415279105,5894.634594305581
1.768,2.209292692478849,5899.787527556703
1.772,1.9879527818075604,5906.118223854505
1.776,1.628072604626943,5909.084499441625
1.78,1.1714035541883048,5907.495872468891
1.784,0.6754930859865568,5901.005078912603
1.788,0.20407242688401392,5904.538394814616
1.792,-0.18451063971404433,5905.946616107893
1.796,-0.4490161320865361,5905.94663579595
1.8,-0.5743022192233994,5902.47298089974
1.804,-0.5739142225058627,5894.08725616279
1.808,-0.4839775003041869,5899.200303617803
1.812,-0.3499735729091225,5903.865582342969
1.816,-0.2120407837905605,5905.8755367680105
