时间(s),电压(V),幅值(高频80K)
0.0,-2.378567047312508,5905.108999921568
0.004,-1.598670710484012,5895.528462512201
0.008,-0.9133199806630138,5899.23494859948
0.012,-0.39361334197526976,5902.544972691272
0.016,-0.07276014007754528,5903.906095780845
0.02,0.05816793345733263,5905.997799146357
0.024,0.04349874337333401,5900.062072935117
0.028,-0.0530993018598866,5901.954969887048
0.032,-0.1708782256151912,5915.170660857562
0.036,-0.2738405618882123,5904.389607452025
0.04,-0.3623169648166413,5900.336765614331
0.044,-0.46717657646691735,5895.637581044444
0.048,-0.6287228580923377,5904.88163255305
0.052,-0.8712588722508381,5904.21882885368
0.056,-1.1861286394761223,5898.920846445544
0.06,-1.5302469590743284,5891.1817329371925
0.064,-1.8388190968780054,5899.677872055244
0.068,-2.0455284296930385,5900.852908260638
0.072,-2.1023778220100233,5906.368404932043
0.076,-1.992721206017325,5898.62095608598
0.08,-1.7334063153981425,5892.757627367756
0.084,-1.3655853249417944,5891.198791788316
0.088,-0.9383525208504527,5896.641019630714
0.092,-0.492896716779809,5894.439061675606
0.096,-0.05462316724752262,5897.983535112852
0.1,0.3639600670261436,5901.272790600657
0.104,0.752896515033706,5899.694042645956
0.108,1.0937495658543583,5900.517641481627
0.112,1.3543092982053762,5899.433456080064
0.116,1.492737588458365,5901.0310878326245
0.12,1.470820706612646,5898.613550124654
0.124,1.2713319236085576,5906.440977945542
0.128,0.9115093249677869,5896.941100007996
0.132,0.4459637428956898,5900.53427167329
0.136,-0.042612870674151274,5897.575006454871
0.14,-0.461445103928215,5896.620792078574
0.144,-0.7287773669433542,5901.515636434955
0.148,-0.7931750887583604,5898.906021201394
0.152,-0.6469963905294558,5899.892669968268
0.156,-0.32985723651289345,5896.1675297567335
0.16,0.0810687790074345,5904.5926965428125
0.164,0.4926127123546411,5906.934237968209
0.168,0.8215528665943083,5899.053690501068
0.172,1.0143421517351634,5900.64747579297
0.176,1.0534098298372832,5910.605238242119
0.18,0.9510322839453755,5908.915726620622
0.184,0.738168777898272,5898.432849698251
0.188,0.4549172442132451,5904.2139504074885
0.192,0.1437340446133146,5897.546894219397
0.196,-0.15669416663126173,5905.20836592964
0.2,-0.4174446552081166,5899.795074537049
0.204,-0.623067190326447,5897.841311089243
0.208,-0.7708112422287183,5903.0030587131805
0.212,-0.8654079778304783,5898.668702963596
0.216,-0.9117308023457322,5899.685708858866
0.22,-0.9085635703965262,5902.437542864303
0.224,-0.8460940469000255,5898.026899187727
0.228,-0.7084518432611652,5899.757668558712
0.232,-0.48118400853602183,5906.705102397326
0.236,-0.16161507937083291,5901.373064286608
0.24,0.23215473660175148,5897.954597483537
0.244,0.6584913603041315,5894.007803223358
0.248,1.05831125999174,5899.343524418972
0.252,1.3683203737610317,5904.575037649717
0.256,1.536151513813482,5893.063847191662
0.26,1.5319378280897786,5904.160438862866
0.264,1.3539416807926379,5899.1376400562085
0.268,1.029080438545528,5898.8634097343165
0.272,0.609804139639908,5886.424790276945
0.276,0.16745742230652177,5899.939619563124
0.28,-0.21841932360070926,5889.879014946753
0.284,-0.47434553705510946,5897.816869545436
0.288,-0.5483986913667049,5898.709720105577
0.292,-0.42316570274353366,5889.993690414399
0.296,-0.12186728653625098,5901.19043377484
0.3,0.2952512003672962,5897.385574068586
0.304,0.7439424810107887,5898.574507333092
0.308,1.1350080441139494,5900.990403546293
0.312,1.394700891910236,5896.633011975232
0.316,1.4814753867718495,5899.313840223839
0.32,1.394089243094432,5901.055129841585
0.324,1.1680194700799962,5890.864887213713
0.328,0.8617153274939531,5896.0333859214215
0.332,0.5385543480489119,5893.164074603282
0.336,0.25128079053055774,5902.774804895012
0.34,0.033161033853780775,5905.257276911828
0.344,-0.10355103168353204,5899.780188150356
0.348,-0.16378396024480732,5891.899919191885
0.352,-0.16316497935105595,5901.963874210554
0.356,-0.1213957367862238,5900.124078378853
0.36,-0.0576638998754654,5892.621397133592
0.364,0.010572874534690994,5904.590422277046
0.368,0.06597770084729866,5901.5336837937175
0.372,0.08950150035478266,5897.849760342586
0.376,0.06132238130441537,5897.130670629955
0.38,-0.034457390922310434,5905.575192172799
0.384,-0.20342499857085547,5906.115843246904
0.388,-0.43666506044229614,5897.3243363190095
0.392,-0.7118338124459355,5894.8063766859605
0.396,-0.9995012958346426,5900.653113418071
0.4,-1.2714758841947758,5902.792978596376
0.404,-1.5067448243385522,5894.646511924962
0.408,-1.6925672870925499,5889.330519467565
0.412,-1.8216167915907164,5894.714685029573
0.416,-1.8884939197861041,5907.883581466936
0.42,-1.8888568836930775,5900.287464106715
0.424,-1.8218494863837376,5889.941304948383
0.428,-1.6932688016280764,5905.996067861139
0.432,-1.5158553311830583,5906.186376756852
0.436,-1.3053267948824843,5897.726942100654
0.44,-1.0741204408712681,5902.974358017603
0.444,-0.8264269666961189,5898.942389092844
0.448,-0.557634403735252,5901.820978567782
0.452,-0.2597119552645312,5896.913172451082
0.456,0.06855982692990568,5905.268809113254
0.46,0.41083693683873157,5902.181914681582
0.464,0.7280058464925937,5896.998489516091
0.468,0.9631119912144864,5905.056186488672
0.472,1.0568527442843605,5910.575351606513
0.476,0.9691242406033723,5907.599207564417
0.48,0.6983970475197248,5903.892434428266
0.484,0.2902684524150867,5903.575890568133
0.488,-0.16947737865716433,5887.566967818692
0.492,-0.5753494542957899,5895.15803234409
0.496,-0.8289579591854518,5903.964286506016
0.5,-0.8637025627296541,5909.669401333571
0.504,-0.6610635214096809,5898.10021250643
0.508,-0.2554419852383101,5895.042475233131
0.512,0.2728487964669803,5891.088549708837
0.516,0.8148738218403904,5903.476833624613
0.52,1.257341559870417,5891.614567868178
0.524,1.5089289047754653,5889.326204716182
0.528,1.522689212255599,5900.036410510922
0.532,1.3085869210063832,5895.881069054274
0.536,0.9315952155960069,5905.62000826091
0.54,0.49390361357038054,5899.914883570244
0.544,0.10488285017483355,5897.51782426214
0.548,-0.15191861752212024,5904.818242423174
0.552,-0.24291973647874512,5894.845215154269
0.556,-0.1910642286820021,5894.221376043153
0.56,-0.06340479712801954,5900.473721950859
0.5640000000000001,0.054215452820112815,5903.223972908102
0.5680000000000001,0.08529915561210687,5895.346527276045
0.5720000000000001,-0.015798574745558906,5898.486421702844
0.5760000000000001,-0.25432365338767365,5903.181877423284
0.58,-0.5978684519368367,5909.550119156633
0.584,-0.9880742850336662,5885.30221143879
0.588,-1.3563947388226025,5889.299836995041
0.592,-1.6392992404119144,5890.65863893457
0.596,-1.789629599667115,5899.291514494693
0.6,-1.782490627615464,5904.862180494271
0.604,-1.6159027140929427,5895.699773407015
0.608,-1.3080957302897438,5900.051437564411
0.612,-0.8936919606921622,5896.987140691741
0.616,-0.41976284418643695,5901.057193848664
0.62,0.05884439660662989,5894.052882614394
0.624,0.48585250223639487,5895.880370304729
0.628,0.8114530931411741,5901.454941059361
0.632,1.000308212518767,5893.538506305316
0.636,1.0375566702626728,5897.531609113276
0.64,0.9309875869693355,5901.618355035249
0.644,0.7086029395420665,5902.5894131043215
0.648,0.4121960355689383,5901.664734111461
0.652,0.08874531574636037,5894.145054553606
0.656,-0.21784815254229936,5893.280947654171
0.66,-0.4721859884683778,5908.549210565587
0.664,-0.6488750337837135,5903.993468140797
0.668,-0.731423163683754,5900.731207152565
0.672,-0.7114053589292607,5895.056545558803
0.676,-0.5899811771166154,5903.327198171391
0.68,-0.38123867444263004,5902.113535784163
0.684,-0.11448163315931216,5899.123647334497
0.6880000000000001,0.1678708494541955,5894.076190695285
0.6920000000000001,0.4183468777358579,5899.130367614314
0.6960000000000001,0.596906572357453,5895.744203148293
0.7000000000000001,0.6835064599912863,5892.23766105442
0.704,0.6856314942496559,5903.112096968839
0.708,0.6373017364999674,5895.224788651474
0.712,0.5890217009851227,5900.453408289712
0.716,0.5914165514872753,5899.535960582256
0.72,0.6779984441154241,5895.059282518777
0.724,0.853238089949864,5894.820418983956
0.728,1.0901004388710218,5903.0438125246
0.732,1.337467031299152,5904.120842476172
0.736,1.5343740173005103,5895.864918027326
0.74,1.626198288791126,5900.311745936667
0.744,1.5781226894713207,5906.51284619631
0.748,1.3827275000394925,5900.146445267206
0.752,1.0606771128085686,5903.6170632725725
0.756,0.6556640093045721,5893.8001397900725
0.76,0.22596028546233907,5894.288840031173
0.764,-0.16563207726445336,5899.791527679037
0.768,-0.46274877734585984,5897.529822498017
0.772,-0.6264346515628764,5898.890072424001
0.776,-0.6436486280431812,5892.712789390526
0.78,-0.5297953724596564,5904.676862460707
0.784,-0.3229369180802646,5898.711855344038
0.788,-0.07091220469331196,5897.103427048422
0.792,0.18311028812154603,5903.44087525854
0.796,0.4093427185155175,5904.472052666876
0.8,0.5902112136371469,5897.348092244076
0.804,0.7118379175374246,5893.372429664173
0.808,0.7558662400977672,5900.760576779831
0.812,0.6988204579396461,5888.027904137283
0.8160000000000001,0.5205050384250313,5901.713089582944
0.8200000000000001,0.21658156574241436,5897.9322877283685
0.8240000000000001,-0.19212540550739185,5890.155559708243
0.8280000000000001,-0.6587842339130172,5890.4813985816045
0.8320000000000001,-1.1186596966750675,5891.920770774346
0.836,-1.5028335745830397,5896.924360686387
0.84,-1.7530581598352855,5897.921486486346
0.844,-1.8343404244455264,5907.655971734248
0.848,-1.7434652446894878,5891.658726377993
0.852,-1.5122635018574615,5900.159103833132
0.856,-1.2039227939728385,5888.9434992964525
0.86,-0.9006262943393698,5900.423773924704
0.864,-0.6831723326632171,5899.582240256191
0.868,-0.6077720603310995,5889.363300213512
0.872,-0.6886820679461617,5899.717288763735
0.876,-0.894047187177758,5890.60438884408
0.88,-1.1564284784434846,5888.17992729999
0.884,-1.3930834906981115,5898.876023117847
0.888,-1.5280377685156181,5892.387139572917
0.892,-1.5089522712523722,5896.564387496939
0.896,-1.3150890469388885,5906.441259270695
0.9,-0.9565218248883728,5901.337255984007
0.904,-0.46762366400604416,5898.157961515054
0.908,0.10149566404115412,5904.593342237209
0.912,0.6933366394143358,5893.210560013274
0.916,1.2504603285888454,5900.938854958401
0.92,1.7219310112552597,5896.342040054434
0.924,2.068691232178572,5892.223362151564
0.928,2.2677493843875025,5900.791181086953
0.932,2.314628767095777,5905.214490410769
0.936,2.2231333987620827,5896.215374489363
0.94,2.0219300047157893,5910.797323201205
0.944,1.748505575233783,5896.588268325715
0.948,1.441929847587439,5886.079330720871
0.952,1.136273415076369,5896.991795201628
0.956,0.8564858386818386,5896.916503052023
0.96,0.6176475048649585,5902.707295388078
0.964,0.42671699327356155,5890.960159641007
0.968,0.28441792765706453,5896.134435666264
0.972,0.18539592858789128,5897.813587803334
0.976,0.11725075892789,5901.098145672579
0.98,0.06133966774406542,5902.367912572018
0.984,-0.002157029059091697,5897.790102165935
0.988,-0.08574891468175386,5900.02838334427
0.992,-0.18709547941422353,5887.574603020431
0.996,-0.2873023723691262,5902.706518203568
1.0,-0.3568964416058893,5893.835613645508
1.004,-0.36700607286531106,5897.687103925177
1.008,-0.3005232238022308,5904.64735571177
1.012,-0.15833708270414787,5894.811490671507
1.016,0.04132926458220302,5901.429122603786
1.02,0.2690436134125599,5900.191030564572
1.024,0.4926631818488191,5884.083870069417
1.028,0.6854590156067406,5895.672228033564
1.032,0.8320354224368159,5899.58642970486
1.036,0.9306033057055756,5893.217284433368
1.04,0.9903506322937077,5894.954017367425
1.044,1.0239025053856456,5899.675008405243
1.048,1.0375162646838654,5903.683456038906
1.052,1.0239716419684943,5896.106536150245
1.056,0.9630018804809674,5897.651672616496
1.06,0.8310851060479597,5895.284648716544
1.064,0.6174253679011501,5901.644670944133
1.068,0.338291272216773,5894.25671523853
1.072,0.04096873176887157,5896.973523145598
1.076,-0.20679110854746047,5895.786767648879
1.08,-0.3382310217588542,5905.13083647783
1.084,-0.3105354859391199,5908.881531735761
1.088,-0.11927014113003073,5899.440143795137
1.092,0.20133059353944419,5895.574270977687
1.096,0.5912510061796442,5896.158536945847
1.1,0.9840386247645838,5888.850716648659
1.104,1.3238030151347728,5896.3032307568965
1.108,1.5737169543944542,5901.818669965834
1.112,1.7152061095005178,5894.134104541431
1.116,1.741403061086858,5899.705206493921
1.12,1.649988046610032,5898.907882817733
1.124,1.4396827772849183,5897.109830334048
1.128,1.1123893676693697,5893.891784487725
1.132,0.6800333313058509,5901.95108045502
1.136,0.17244532101589724,5897.032047904523
1.14,-0.3587951043532849,5888.396415745036
1.144,-0.8446372177611144,5890.219118654301
1.148,-1.2114798286036073,5892.406171868508
1.152,-1.3988833697492713,5901.29925646251
1.156,-1.3758762349859004,5903.49861918394
1.16,-1.1506574539510035,5891.640035005878
1.164,-0.771472981437558,5891.611865575802
1.168,-0.3191410047632694,5897.015666476894
1.172,0.10702635151120453,5893.72833098533
1.176,0.4080554699893056,5902.8046968194
1.18,0.5067316279322357,5897.629433819724
1.184,0.3676486769682056,5905.359229638207
1.188,0.00968170069000186,5904.127866136694
1.192,-0.4951937233944149,5898.71627334544
1.196,-1.038880393044636,5893.912862426763
1.2,-1.5059022811835001,5896.73828341332
1.204,-1.8048058587066593,5903.179592892038
1.208,-1.8919782318094343,5894.311508774348
1.212,-1.7805909740430959,5899.283045292953
1.216,-1.5323227531995547,5902.5300921766575
1.22,-1.2347070423597588,5897.072064041256
1.224,-0.9716495441669429,5900.565511980695
1.228,-0.7974465090418116,5903.098374648426
1.232,-0.7233567588323213,5887.320293271151
1.236,-0.7201972790776898,5890.172735753359
1.24,-0.7336984971369573,5888.825978283759
1.244,-0.7053899052062955,5902.059304603575
1.248,-0.5917109381627498,5903.801152915509
1.252,-0.37625412363848504,5892.995667836574
1.256,-0.07285209198078552,5893.45423907004
1.26,0.2799453607701305,5900.136276128365
1.264,0.629890176906294,5897.553635858291
1.268,0.9230390345375695,5894.299531656699
1.272,1.1129944743584392,5892.604929290199
1.276,1.1662901282096854,5896.9798283104765
1.28,1.065451700688599,5891.929053654727
1.284,0.8118820694729282,5892.511363317224
1.288,0.4290381850850963,5896.585909101786
1.292,-0.03616924584125264,5897.093998762859
1.296,-0.5171175622461063,5899.54313393821
1.3,-0.9381956957748154,5896.760412821631
1.304,-1.2304148847082512,5889.922181739959
1.308,-1.3463602503613894,5893.203663868296
1.312,-1.2690211558028344,5895.7516408539095
1.316,-1.0126703496255713,5898.4878872486825
1.32,-0.6179537423173416,5889.523760222772
1.324,-0.1445039109279374,5895.861743362893
1.328,0.3374272699485411,5901.493591607433
1.332,0.7568874649483914,5896.77073635972
1.336,1.0541381159720733,5895.467663670078
1.34,1.1928946208655762,5895.722747989117
1.344,1.1692582680836328,5889.836713840526
1.348,1.0136936554796754,5899.204304239217
1.352,0.7844244957314186,5901.827992411141
1.356,0.5533400308242258,5895.777255615676
1.36,0.3876921735656106,5906.681472570718
1.364,0.3323315202327205,5894.472067743626
1.368,0.39795596161286756,5891.059361699176
1.372,0.5598713901949621,5899.544040425229
1.376,0.7682235534080659,5899.412897667155
1.38,0.9657986368598082,5898.185890768453
1.384,1.1062833682971422,5905.820967903416
1.388,1.166276864939392,5896.655601852809
1.392,1.1477272216522683,5889.172404376878
1.396,1.0716026508142715,5890.750560836103
1.4,0.9664574282535768,5893.719094516174
1.404,0.8564304677765072,5900.686793478006
1.408,0.7526702945085718,5896.113478926113
1.412,0.6507150821456407,5902.798234505626
1.416,0.5340858622429004,5891.80611866463
1.42,0.38209352125194534,5897.086164788995
1.424,0.17884774458514077,5896.743322584488
1.428,-0.07919474481879026,5894.914178189952
1.432,-0.3789294237004894,5898.301273078353
1.436,-0.6905121866666515,5897.0356343384
1.44,-0.9716469941421466,5895.773153783905
1.444,-1.1754122427340727,5893.302564803404
1.448,-1.259794546779555,5901.6660979602975
1.452,-1.1968783433604326,5894.198487681906
1.456,-0.9801531151934281,5890.374451172659
1.46,-0.6286721083952571,5889.789627543651
1.464,-0.18664658341199078,5895.850560401823
1.468,0.28243962630537156,5906.814625852611
1.472,0.7065013310229991,5897.638188914735
1.476,1.0181251852793474,5902.871098962483
1.48,1.1680078227489306,5894.612768286213
1.484,1.1363017810595077,5897.426470394497
1.488,0.9391158658027645,5902.39131869423
1.492,0.6271948881532282,5888.5433636503485
1.496,0.2755628019500184,5904.762896240823
1.5,-0.03375038545466806,5893.538857753554
1.504,-0.2311205920335606,5889.456069617835
1.508,-0.2754702259178401,5892.869641478111
1.512,-0.16270730860016203,5895.279848477936
1.516,0.0757540747715727,5901.494146587076
1.52,0.3833029763287438,5901.800945897881
1.524,0.693257108700766,5905.125656582813
1.528,0.9440772332060339,5894.31280634712
1.532,1.0913115233978208,5899.170629604418
1.536,1.1147587424144552,5893.106873837057
1.54,1.0204716709959003,5892.100909451339
1.544,0.8376023165269337,5906.185382975041
1.548,0.6105443360158115,5894.822315336665
1.552,0.3879683555722376,5894.75980330552
1.556,0.2115776746088156,5894.088859017196
1.56,0.10750688398884718,5892.96941680934
1.564,0.08199558459013931,5899.76101137035
1.568,0.12143273101284617,5905.688869031042
1.572,0.19619302473356065,5889.972306243614
1.576,0.26766553851466834,5897.335885196219
1.58,0.29748820721322466,5895.973002576546
1.584,0.2570334042473516,5887.304013548424
1.588,0.13463360411926698,5890.281340839626
1.592,-0.061399437229851826,5902.877056476911
1.596,-0.304615128701575,5901.779702264755
1.6,-0.5563307963194261,5889.902936051113
1.604,-0.7737179364303601,5899.056014056454
1.608,-0.9181526424643625,5902.533981481081
1.612,-0.962809578199316,5902.9676781726985
1.616,-0.8989218847204443,5897.642137765472
1.62,-0.7394907667925754,5896.845695902051
1.624,-0.5186530441486316,5897.423190246931
1.628,-0.28552004063927006,5898.312186477226
1.632,-0.09290546782299522,5888.79506604927
1.636,0.016684001281581196,5894.381230192072
1.64,0.02378319233519847,5897.332286352349
1.644,-0.06092647169045963,5901.317629489391
1.648,-0.19792521782894384,5885.752601069371
1.652,-0.3285205025403544,5896.288613409061
1.656,-0.3901485884244554,5894.953374420248
1.66,-0.3331585169563813,5890.455258324136
1.664,-0.13485946268009869,5889.20780986032
1.668,0.19262933823944423,5886.811989564874
1.672,0.6030650061251105,5895.801213336809
1.676,1.0258963489844704,5885.7784221304655
1.68,1.3831655589617855,5902.956865725365
1.684,1.608776797818121,5901.034311300865
1.688,1.6640774995142709,5890.753294036997
1.692,1.5445820795157126,5904.304404686629
1.696,1.2760444520749739,5902.352242292237
1.7,0.902973715517239,5899.801960182913
1.704,0.4761815407304054,5897.655124288229
1.708,0.04519979088354693,5896.198892762989
1.712,-0.3432494343268328,5889.0002248288365
1.716,-0.644460456587084,5904.370672505481
1.72,-0.8177565734177026,5896.246481372485
1.724,-0.8335572785823646,5895.106100396783
1.728,-0.6831622968780555,5894.694604514999
1.732,-0.38610850230792537,5901.330293520888
1.736,0.009503813825310875,5899.751322767433
1.74,0.4353815092618572,5902.221669400068
1.744,0.8182405068369488,5900.332575077481
1.748,1.0970772273321936,5891.400309043359
1.752,1.2365017778121172,5898.434771493431
1.756,1.2315790075170638,5893.345447100575
1.76,1.103446199705378,5893.745477826855
1.764,0.8889377954535111,5901.234067093106
1.768,0.6292649980424069,5890.529802624419
1.772,0.3617912149956983,5890.385641155249
1.776,0.1161956793117743,5900.37761611058
1.78,-0.08612846030213356,5907.8528902116805
1.784,-0.23134696748293762,5896.225495056371
1.788,-0.31234413648314857,5895.527730321602
1.792,-0.3279826306135052,5900.282249534913
1.796,-0.2822120022840867,5889.29492788147
1.8,-0.18292477211518787,5893.129718660673
1.804,-0.040661149953475716,5896.787515412359
1.808,0.132850345362857,5895.70974105835
1.812,0.3263530077808495,5890.984976495672
1.816,0.5303616584427367,5894.719516753337
1.82,0.7367239890909206,5894.259386023684
1.824,0.9353711485888565,5887.312130352174
