时间(s),电压(V),幅值(高频80K)
0.0,-0.8456602515234074,5890.043974162413
0.004,-0.7390288211162745,5904.31080598677
0.008,-0.6264270623579927,5901.314569701501
0.012,-0.505111503313462,5894.526581715837
0.016,-0.36731432339974346,5896.069513065048
0.02,-0.20932547083763808,5913.62748166267
0.024,-0.04149187053988244,5898.667733391905
0.028,0.10829560298805237,5890.917536134379
0.032,0.2000797644823101,5891.422933868944
0.036,0.19425808304637332,5895.3681911745625
0.04,0.06708896806857421,5900.1553775592
0.044,-0.17547783105964213,5894.604266690718
0.048,-0.49095393974308676,5898.802132003826
0.052,-0.8042340997596986,5902.282928516128
0.056,-1.0222841147744346,5896.401505993226
0.06,-1.0560370858217154,5898.815368297947
0.064,-0.8444221265732267,5890.983601503151
0.068,-0.3753131438969194,5894.34684325352
0.072,0.3018906669630427,5903.307686134332
0.076,1.0774942319615388,5894.226419501085
0.08,1.8005419763882373,5895.652260383961
0.084,2.314438491267049,5897.220025930908
0.088,2.499885426391424,5901.777854130434
0.092,2.310248020662564,5909.21753477107
0.096,1.7861974217387273,5895.512151089012
0.1,1.0448952527698552,5896.11627962231
0.104,0.24869796410312145,5911.713021501735
0.108,-0.43553417448053233,5900.811834202071
0.112,-0.8743257774191763,5905.550521139611
0.116,-0.9933979694693515,5897.745471041553
0.12,-0.7872738261039611,5902.367175624509
0.124,-0.3135183770709602,5906.394269154044
0.128,0.3245392450583042,5904.371302678972
0.132,1.001723034047709,5905.369458867963
0.136,1.5968877785547195,5901.802288112362
0.14,2.016762512100419,5907.712853212765
0.144,2.213754752297186,5897.370895388397
0.148,2.1928823525307566,5902.754257713257
0.152,2.0039036626538826,5901.288884045664
0.156,1.7197490830423328,5897.23937714471
0.16,1.4094689868315464,5897.614439510849
0.164,1.1173919895710733,5902.693219619612
0.168,0.8564948214465022,5898.446885545851
0.172,0.6158633580132796,5906.206779603899
0.176,0.3757012696603132,5894.373781266261
0.18,0.12200141952282552,5892.27273207896
0.184,-0.1444263662480978,5898.532686586364
0.188,-0.40625681441998684,5903.889307151932
0.192,-0.6342355751297426,5907.504834779545
0.196,-0.7955254445525906,5898.664432104251
0.2,-0.8626054756743008,5900.647696143067
0.204,-0.8196802218922433,5906.192517402331
0.208,-0.6651052183819035,5897.490591220896
0.212,-0.41065977060348396,5895.769568323173
0.216,-0.07975019612074155,5897.407981446647
0.22,0.29408720970996566,5907.1715512916535
0.224,0.6686774541260918,5889.404691816766
0.228,0.995958780035206,5905.257979287728
0.232,1.226824183496895,5902.7465044662
0.236,1.3177877695075995,5900.63897125641
0.24,1.2385352056582501,5903.536968705228
0.244,0.9791171549848166,5900.689356719547
0.248,0.5551086809488424,5903.915706012534
0.252,0.008769085034174997,5889.639364569124
0.256,-0.5952285183043947,5914.09712297791
0.26,-1.1794741301276017,5898.910288932269
0.264,-1.6672034091416965,5897.068447152723
0.268,-1.9966810496993488,5909.190645998086
0.272,-2.133514093297575,5903.416009134259
0.276,-2.0774630595375396,5905.30239521184
0.28,-1.860817693223756,5912.291489961285
0.284,-1.5383073444043187,5896.381386924389
0.288,-1.17243933806879,5896.935956483738
0.292,-0.8196019158180162,5897.03239745882
0.296,-0.5204254393116915,5907.902107167252
0.3,-0.2952458439074517,5900.113501465009
0.304,-0.14404410909428245,5901.628926054964
0.308,-0.04995745410127478,5901.826969280884
0.312,0.014194183170141086,5896.438528771768
0.316,0.07680198998458744,5905.473322421665
0.32,0.15744650925512887,5892.42276082731
0.324,0.2596185746361682,5897.37789693878
0.328,0.3699749901233449,5896.153872757969
0.332,0.46501908357403915,5902.295190196501
0.336,0.522348720394001,5898.412440961205
0.34,0.5317072742031508,5911.582542493896
0.344,0.5013336013927293,5893.277639047039
0.348,0.4565958431732602,5901.282633122547
0.352,0.43051187291631454,5907.223254853731
0.356,0.4495112115016836,5902.769980554383
0.36,0.5208754227173307,5897.59124355678
0.364,0.6279997618626624,5892.70328967442
0.368,0.7356370951135648,5895.728057246856
0.372,0.8026649892239354,5901.341110315111
0.376,0.797618482578781,5897.77613599461
0.38,0.7119786561120356,5892.005796853426
0.384,0.5664084796380086,5898.014134920219
0.388,0.4063974523491555,5896.468656500128
0.392,0.2877755623576265,5911.112946860597
0.396,0.2579065820899904,5899.456421367796
0.4,0.34080105528696086,5911.334941559189
0.404,0.5316831110512797,5902.157308865064
0.408,0.8012173724148861,5902.333876295852
0.412,1.105774742789234,5899.682808151226
0.416,1.399344728104351,5901.616584012811
0.42,1.6437997441183496,5900.080908696685
0.424,1.8156082661859374,5906.756967271182
0.428,1.9080749568975695,5896.496417004243
0.432,1.9288683209563082,5899.499745449381
0.436,1.8935248731822012,5900.1496409560295
0.44,1.81706295276126,5902.707095495037
0.444,1.7071274114305433,5895.799381092639
0.448,1.5617934632504205,5899.088676665768
0.452,1.372724860919259,5901.245834648225
0.456,1.131592165825169,5902.7778737584495
0.46,0.8368220776547043,5901.539694639558
0.464,0.4986869440013991,5895.801331021782
0.468,0.1416529426291293,5893.182214152254
0.472,-0.1968570996238039,5903.142693245987
0.476,-0.47181787670149994,5908.680363361013
0.48,-0.6394124755697262,5898.474041230981
0.484,-0.6668390559489412,5885.173806428333
0.488,-0.5398659648037326,5891.427801345664
0.492,-0.2663489509505128,5902.500573452039
0.496,0.12356026374185484,5909.604470205843
0.5,0.5788604055039235,5892.510410956495
0.504,1.030707857328236,5906.658363371541
0.508,1.3988345458403817,5907.487937898142
0.512,1.6030363570950852,5901.3750228331
0.516,1.5789831112393924,5900.378943338583
0.52,1.294777954941846,5901.037303260667
0.524,0.7631771467912277,5901.676767536745
0.528,0.04511330911750796,5901.582505901513
0.532,-0.7571840186467859,5894.883510728673
0.536,-1.5163472693167745,5906.924393783211
0.54,-2.102537979400041,5893.090024209879
0.544,-2.408840827040957,5907.354852097955
0.548,-2.374217528843545,5900.86262221074
0.552,-1.997867855667519,5898.619920413455
0.556,-1.340173820145772,5909.014915235929
0.56,-0.5093698291696269,5902.624866857069
0.5640000000000001,0.3622250836614351,5900.547100776733
0.5680000000000001,1.1454437710205891,5901.340052157155
0.5720000000000001,1.737655072288954,5898.172025019892
0.5760000000000001,2.077200692702111,5897.712012038557
0.58,2.1473592230642966,5900.598178882738
0.584,1.9718394302712194,5899.794945874687
0.588,1.60581853791217,5903.149693492913
0.592,1.1256786378867403,5904.203597571267
0.596,0.6176289283720636,5904.369911500086
0.6,0.16388175278704623,5907.531391348347
0.604,-0.17257301326397564,5898.948684977326
0.608,-0.35972318579343954,5907.148440734224
0.612,-0.39951587293710505,5905.856391883028
0.616,-0.3210848821997533,5896.742590963453
0.62,-0.16871175015798304,5905.909389246654
0.624,0.009088620681688267,5901.747839729919
0.628,0.1660858872880565,5897.871590131967
0.632,0.2621930474344231,5904.960066510378
0.636,0.2684871794484633,5899.605093743841
0.64,0.174614485539536,5890.359297811263
0.644,-0.004683694682779228,5895.534257247768
0.648,-0.2292359949904625,5905.836963183498
0.652,-0.44236619343040184,5910.991398642995
0.656,-0.5874196839750175,5909.332111951159
0.66,-0.6262535258831867,5894.990120692588
0.664,-0.5528061100588167,5906.648191346577
0.668,-0.39651552442655785,5895.628734231734
0.672,-0.21393481581061105,5902.800218231715
0.676,-0.07089113760206092,5898.28614991329
0.68,-0.02066373761626134,5898.770939196975
0.684,-0.08535007463509524,5897.715592722732
0.6880000000000001,-0.24730811680184087,5905.800954243138
0.6920000000000001,-0.45433587084523447,5904.856169273476
0.6960000000000001,-0.6365400239250714,5896.617056821209
0.7000000000000001,-0.7279779389820834,5905.123707097066
0.704,-0.685467987175384,5906.042543247152
0.708,-0.49990942870086136,5901.261558001055
0.712,-0.19866997771828696,5892.420550485779
0.716,0.1607026192602293,5902.839965628084
0.72,0.5039853825091474,5905.667929839769
0.724,0.7577139433608054,5905.412945749043
0.728,0.8656252287311972,5898.156225542669
0.732,0.7995574802294771,5897.000367791196
0.736,0.5629874466609397,5891.693356784645
0.74,0.18837363585577274,5906.22519267038
0.744,-0.2695708459966702,5903.054288950211
0.748,-0.7433526408049559,5903.745383265134
0.752,-1.1643074386609873,5898.141965371011
0.756,-1.4754168225521191,5904.062670631458
0.76,-1.6430864504770148,5904.235906093227
0.764,-1.66416579034252,5911.349851273429
0.768,-1.564935387181211,5898.338987027902
0.772,-1.392069395422809,5894.852814736537
0.776,-1.1991761979580526,5903.406202723381
0.78,-1.0333697925405023,5894.759820314223
0.784,-0.924765631923196,5905.1165147597285
0.788,-0.8803305968365316,5897.502237863366
0.792,-0.8831078446130856,5894.778331647467
0.796,-0.8973165680262769,5902.401787298468
0.8,-0.8782843039002349,5894.639560482376
0.804,-0.7845485060228908,5893.818761729448
0.808,-0.5893912207344998,5903.142980537526
0.812,-0.29038337566572636,5901.826716341088
0.8160000000000001,0.0840422874415499,5904.462393354209
0.8200000000000001,0.4736426090691743,5900.635106896585
0.8240000000000001,0.7951152315809232,5896.892242237103
0.8280000000000001,0.9621559896321336,5898.670412945395
0.8320000000000001,0.9121510186739774,5893.730161212448
0.836,0.6294991303881712,5896.355426058479
0.84,0.1557742730719506,5900.015462279155
0.844,-0.41749054552830195,5898.424071442847
0.848,-0.9707227275692646,5895.091269154953
0.852,-1.3855899851074311,5894.069858584463
0.856,-1.5728852483107223,5907.629152640043
0.86,-1.491727943527093,5901.040012549613
0.864,-1.156155975849368,5902.507189169129
0.868,-0.6287378717234989,5907.64353279203
0.872,-0.0034111523921964587,5907.269356320839
0.876,0.6181698761430664,5901.594739544956
0.88,1.1506155380949592,5900.336154514468
0.884,1.5426126779142542,5895.409415662103
0.888,1.7841748709930203,5895.194583329638
0.892,1.902419267904395,5891.256901555659
0.896,1.9482234922124828,5909.644533673431
0.9,1.9781136037607772,5901.082055915599
0.904,2.036061156603576,5906.639971881416
0.908,2.13932911958729,5889.267403891831
0.912,2.272135586305611,5902.600409503055
0.916,2.389921808400179,5902.567215885319
0.92,2.4338432451390664,5895.752526550938
0.924,2.3505880156240715,5911.944995898911
0.928,2.110074928325787,5891.738544589131
0.932,1.7149839648695078,5898.586791304384
0.936,1.1999525755908258,5897.963548165011
0.94,0.6220879495384176,5899.963974170135
0.944,0.04703993057477253,5895.9512631670505
0.948,-0.4643402014971947,5898.80688533183
0.952,-0.865325414824574,5901.741265763337
0.956,-1.1281621508053212,5904.006067331569
0.96,-1.2459171282103683,5899.295205142701
0.964,-1.232455319878176,5902.16403286618
0.968,-1.1201064128029614,5895.86817072179
0.972,-0.9536755710843994,5897.257607401229
0.976,-0.7804518968423811,5902.937585571156
0.98,-0.6385102637402176,5897.544311805556
0.984,-0.5477889964282724,5896.119586590952
0.988,-0.5076616987843735,5900.316728040848
0.992,-0.5012514093240952,5894.609459182769
0.996,-0.5037384867776037,5903.101882404039
1.0,-0.49139679251740326,5903.016848119052
1.004,-0.44881387944312245,5892.484320228582
1.008,-0.3722998946682632,5899.843386692693
1.012,-0.2685131523414886,5909.227564570268
1.016,-0.14930203951132762,5896.30705174332
1.02,-0.02546319535087854,5907.592892074498
1.024,0.09746322842832099,5900.46511741255
1.028,0.2190399827917606,5908.270839667307
1.032,0.3391486155509592,5901.204902676866
1.036,0.45118734977498925,5896.941197865974
1.04,0.5376060665351202,5896.878870119463
1.044,0.5709284857043946,5900.935511903967
1.048,0.5201908749035362,5912.71221901846
1.052,0.36028292773683657,5893.388794247578
1.056,0.08130808305383727,5898.699296830109
1.06,-0.3043566706442462,5907.843199187588
1.064,-0.7593741091258404,5890.985086390995
1.068,-1.2248870437606927,5900.890641611242
1.072,-1.6303561162689815,5904.701476436499
1.076,-1.9075824866956266,5897.067831792737
1.08,-2.004951577928325,5902.894793300671
1.084,-1.898170481734425,5896.111842213712
1.088,-1.595352387081235,5896.240546356217
1.092,-1.1358961574267465,5906.940100472064
1.096,-0.5836784078534066,5901.280500919621
1.1,-0.015819866625460876,5901.160187671298
1.104,0.4909557534733739,5899.31285295567
1.108,0.8736328484606541,5900.365806996468
1.112,1.093035794739347,5901.292947232018
1.116,1.1388701566931916,5902.201347595973
1.12,1.0293687490815875,5901.41481091132
1.124,0.8065229733125203,5905.660692651966
1.128,0.5281048663530733,5897.538428102679
1.132,0.2570490477088416,5897.424155189712
1.136,0.04856041706145746,5907.700942675864
1.14,-0.06305736955020541,5887.064146556717
1.144,-0.07330199967741632,5906.64827831222
1.148,-0.007497334226319813,5897.298983075128
1.152,0.0887270642013361,5902.560816341126
1.156,0.16444006342034392,5900.386308961963
1.16,0.1781328970665242,5900.69938413094
1.164,0.10791412025837076,5896.04452252759
1.168,-0.044513978419845196,5901.392992940733
1.172,-0.2557141095721152,5901.170293562209
1.176,-0.48664519090603203,5902.704020007098
1.18,-0.6913806599134085,5903.956583023789
1.184,-0.8274040589414948,5899.4333731006
1.188,-0.8665994680599662,5898.003116178623
1.192,-0.8045354825249943,5907.001177797656
1.196,-0.6639280146329899,5899.493899435599
1.2,-0.4892359043377965,5900.712840928026
1.204,-0.33365543911132495,5905.87858994762
1.208,-0.24396169091488332,5908.953656744797
1.212,-0.24914387024709797,5908.872891582171
1.216,-0.35560529468043983,5899.077087366534
1.22,-0.5477615807580783,5888.298350857764
1.224,-0.7909887272825912,5910.158499730943
1.228,-1.0351037145761088,5898.723869443162
1.232,-1.2197461853296818,5904.940658697119
1.236,-1.2848551955304595,5897.6144687460655
1.24,-1.1869550759173773,5899.78715858039
1.244,-0.9164944754905596,5903.621543558324
1.248,-0.5079675014286985,5903.287016300657
1.252,-0.03626709659943977,5904.326122866643
1.256,0.40134361645565314,5901.9722142837145
1.26,0.7115046664486506,5907.091829573412
1.264,0.829313540586283,5903.499462160771
1.268,0.7327004755980118,5900.368358973643
1.272,0.4437617204197634,5905.562429094355
1.276,0.019669144157975656,5895.486692713977
1.28,-0.4618574789486859,5903.776993790004
1.284,-0.9180553932983926,5901.182877040113
1.288,-1.2749094766519704,5900.978142388014
1.292,-1.4781053077769102,5898.931438267241
1.296,-1.500629010765842,5908.285276806015
1.3,-1.3464551178835735,5910.504646064071
1.304,-1.0498106456854173,5901.989114358162
1.308,-0.6696308791583634,5904.572551554516
1.312,-0.2789539162693083,5905.14096323458
1.316,0.049944743172307404,5906.15752667175
1.32,0.26170047638998806,5903.09800563107
1.324,0.3308062314871745,5896.169119795797
1.328,0.26717371042299665,5897.758698283293
1.332,0.11158622503910656,5905.905904986906
1.336,-0.0787953851412706,5894.88610688539
1.34,-0.2500391768178971,5906.664454858369
1.344,-0.36790083952551356,5902.984393643541
1.348,-0.4243736671322956,5904.554388003189
1.352,-0.43298657896171033,5895.873626744835
1.356,-0.4167107697060507,5904.546380216293
1.36,-0.3947317053814595,5907.151935097742
1.364,-0.37367238323507596,5890.256890330998
1.368,-0.3460234135621671,5914.195790863935
1.372,-0.2951429332933169,5903.976758034583
1.376,-0.20391308865523045,5899.170308497244
1.38,-0.06378193709356376,5902.691411379895
1.384,0.11824443057041524,5898.815423192492
1.388,0.3165597900765564,5906.50652206702
1.392,0.48969540309348025,5894.513668340196
1.396,0.5895760386202294,5902.726321972843
1.4,0.5753179573258433,5906.757443989824
1.404,0.4269503081152273,5899.434088245786
1.408,0.1540099897167614,5899.310146299295
1.412,-0.204056818736959,5902.136037676537
1.416,-0.5859814390791003,5899.878331529985
1.42,-0.9231855575993673,5894.109904556289
1.424,-1.1566054247039224,5903.478638311453
1.428,-1.2505098176606124,5905.831145844468
1.432,-1.1992406814507999,5896.415721839967
1.436,-1.0260270250785777,5906.841558438196
1.44,-0.7752824315556845,5896.323359945341
1.444,-0.5000853916940179,5898.99251807751
1.448,-0.24703170737209593,5901.0616654115065
1.452,-0.0424229262398243,5895.959971530193
1.456,0.11512155922262929,5906.713234716586
1.46,0.2519266254186815,5904.119329106192
1.464,0.4061998619183688,5910.676872020785
1.468,0.6085855761892226,5895.293930852374
1.472,0.8635100454636998,5899.433187095588
1.476,1.139167722292848,5904.272200931958
1.48,1.3711873457924377,5898.664886192917
1.484,1.479802668431774,5901.30783799497
1.488,1.3952527872360105,5893.656307700768
1.492,1.083272206107661,5902.660770741444
1.496,0.5625131686990149,5892.082707460685
1.5,-0.09212741138763689,5900.390354097134
1.504,-0.762829516731792,5899.470045495448
1.508,-1.316636248113183,5904.609068230388
1.512,-1.6401703379198744,5899.271703542956
1.516,-1.6702430120952911,5902.656049717806
1.52,-1.410116704799933,5915.157099187465
1.524,-0.9264101216370942,5896.153801272945
1.528,-0.328999765588863,5898.852447150913
1.532,0.2579378484207893,5908.052582543423
1.536,0.7243440768419641,5898.582005814283
1.54,0.9955936541521468,5893.798412000122
1.544,1.0439930335426428,5904.651434602727
1.548,0.8903382901990567,5900.011510595912
1.552,0.5965935685977931,5893.52120619087
1.556,0.2512923478633216,5899.454340342416
1.56,-0.05012031345980553,5899.949801964653
1.564,-0.22663577313218403,5903.519015307088
1.568,-0.22988881499029484,5899.393636029354
1.572,-0.05401559206787567,5902.760308262434
1.576,0.2658230726472357,5897.358700946626
1.58,0.6650365534683312,5914.029741108502
1.584,1.066643480204663,5907.8429346717785
1.588,1.398349845343695,5911.894575873333
1.592,1.6057953252722887,5910.794178923102
1.596,1.6602529114026283,5894.362033248402
1.6,1.5608082899510933,5911.44837752366
1.604,1.3321667454107957,5897.896541753707
1.608,1.0197009625885942,5896.033530579303
1.612,0.6830227798432548,5892.870276350289
1.616,0.3882978754250545,5899.219607196016
1.62,0.19858227853181656,5895.766309214681
1.624,0.1620194850727263,5908.470340318566
1.628,0.29987904225359474,5904.767492014476
1.632,0.5981487299641527,5902.6139486121365
1.636,1.005992057496734,5904.5297629285615
1.64,1.4425535797168272,5902.8008200206505
1.644,1.8118457275992557,5907.119324268631
1.648,2.023725762818547,5899.303677334353
1.652,2.0166455371038583,5894.244027059864
1.656,1.7758322709469774,5908.892359946131
1.66,1.3405605322526388,5893.238695137268
1.664,0.7966636850106276,5906.576438949869
1.668,0.2546833418771422,5908.976564317562
1.672,-0.1806422758862617,5893.539397945045
1.676,-0.43925689031130744,5900.784494440871
1.68,-0.5025038954405132,5904.851490116343
1.684,-0.4030060245400144,5897.86421292483
1.688,-0.21098177105468863,5905.14208257368
1.692,-0.014208411091980505,5898.50808927097
1.696,0.10267737967764545,5904.586425743356
1.7,0.07688321022704812,5902.857059817148
1.704,-0.11777644572589255,5903.458567200531
1.708,-0.46313382217831717,5895.488185973614
1.712,-0.8988471721081842,5899.48210726771
1.716,-1.3349055948357378,5908.725534728631
1.72,-1.671884149506796,5906.208735473638
1.724,-1.8241342215182823,5897.656650146186
1.728,-1.739612608420755,5896.452991691114
1.732,-1.4107568740729026,5908.0222010334455
1.736,-0.8747007301032735,5901.216028377579
1.74,-0.20541273697768847,5906.356531270298
1.744,0.49867785393823105,5901.502137870258
1.748,1.1299821420135192,5908.253246879235
1.752,1.5896702447057272,5898.739969510405
1.756,1.8065140135363438,5905.218802296691
1.76,1.7527233006015912,5904.802224646366
1.764,1.4522112450677302,5893.017592204645
1.768,0.9779428427388979,5910.63212741118
1.772,0.43739702924928187,5902.351210876412
1.776,-0.05145736701626639,5903.02166232985
1.78,-0.38778767465409003,5892.969681216102
1.784,-0.5116158134374879,5898.106697737556
1.788,-0.417250193563465,5907.808696064503
1.792,-0.1530250497678763,5905.384409026294
1.796,0.1922440616433133,5903.927907385309
1.8,0.5117384729243926,5901.515225644798
1.804,0.7053132875594007,5906.235771310754
1.808,0.7004790989530838,5903.250957635692
1.812,0.4667813364038327,5910.517062693209
1.816,0.022675599904256515,5902.872324350952
1.82,-0.565996722789617,5901.243344508731
1.824,-1.1968430478734484,5906.676595650828
