时间(s),电压(V),幅值(高频80K)
0.0,-3.3736393706202596,5899.038862790064
0.004,-2.5832323812658418,5890.810934543166
0.008,-1.8744355870112803,5901.5910521840815
0.012,-1.3072940562873125,5898.133378865473
0.016,-0.9199516282692601,5894.040987602358
0.02,-0.7214180605528275,5892.141841053668
0.024,-0.6874670859563671,5895.536172748539
0.028,-0.7614741384739756,5898.779780020337
0.032,-0.8631215781865352,5904.371595973247
0.036,-0.9064422826533388,5900.779713093769
0.04,-0.8237447178821042,5907.175958430076
0.044,-0.5869116484627649,5900.538806074469
0.048,-0.21719200286541207,5900.164555895177
0.052,0.22037013080945225,5901.704093013442
0.056,0.6354612066836974,5909.400445576101
0.06,0.9379189373598361,5903.866997876747
0.064,1.062913938256171,5894.596197354346
0.068,0.9887607276645894,5905.35384121546
0.072,0.7416322402459207,5897.160479159814
0.076,0.3854360072051176,5903.842528241084
0.08,0.0007977060188744486,5907.088528779204
0.084,-0.33862538047561164,5907.146413028536
0.088,-0.5840739309051148,5895.864897026571
0.092,-0.7191442788301149,5897.609690547141
0.096,-0.7568326031891417,5899.603411306464
0.1,-0.72914886614499,5908.033335909251
0.104,-0.6731215470394357,5900.9178643018295
0.108,-0.6173216791841096,5905.435229382048
0.112,-0.5730517698924452,5894.971911153564
0.116,-0.5329930247036189,5906.713384891812
0.12,-0.4776238912030017,5904.925547574171
0.124,-0.38750664673482355,5896.976505455197
0.128,-0.25759186803314515,5900.821600685445
0.132,-0.10749787330237748,5906.715001729101
0.136,0.01877213246262138,5895.327572930355
0.14,0.06637365192914581,5901.254037057218
0.144,-0.007922308057024522,5902.915326611332
0.148,-0.21437875414749288,5901.116225528973
0.152,-0.5204640286426627,5902.874471971592
0.156,-0.8575568589840972,5904.487702381005
0.16,-1.1411569449202876,5900.092423876652
0.164,-1.2959519845337042,5903.678793149114
0.168,-1.2768087230826106,5889.374157508281
0.172,-1.0800898692011986,5904.655295396839
0.176,-0.7432367977055598,5902.30508191575
0.18,-0.3333796247413462,5895.573674551234
0.184,0.07135526974606525,5905.1363925385685
0.188,0.40169347188041243,5897.640329458115
0.192,0.6117704496986788,5906.683815445848
0.196,0.684707161096978,5896.596647350684
0.2,0.6300835605424217,5906.369104292726
0.204,0.477434612176355,5899.225916461288
0.208,0.26930363211804226,5904.2936457933565
0.212,0.05426114701637727,5898.237133116038
0.216,-0.1214498060201893,5899.510888930683
0.22,-0.22360908181956185,5894.654691591608
0.224,-0.23854455144812203,5897.196574025471
0.228,-0.17699485442567173,5901.327425876354
0.232,-0.07095534314644418,5901.638576390308
0.236,0.03645184791951264,5902.971304744358
0.24,0.1054394947530425,5904.515092131036
0.244,0.11367702003876567,5889.284096719538
0.248,0.06477030239951695,5901.577637459352
0.252,-0.012435198455417225,5896.297779119792
0.256,-0.0731385414059046,5896.551624997858
0.26,-0.06979505380523202,5908.335702293557
0.264,0.036213474999058415,5902.744233135621
0.268,0.2670727284481409,5901.137861988745
0.272,0.6244476534185631,5897.230270611124
0.276,1.0873141828454136,5893.703943163576
0.28,1.6120023279825397,5900.089331814651
0.284,2.1364734594401176,5894.755011111872
0.288,2.5903328317432996,5899.485984532906
0.292,2.909282320508593,5901.347425215883
0.296,3.0496449473717293,5892.123353497217
0.3,2.997842090318565,5901.214226394972
0.304,2.772145995698627,5892.717817378255
0.308,2.417642876814407,5906.339986650645
0.312,1.9972847946225967,5906.837077563845
0.316,1.581368872327718,5901.367719227862
0.32,1.2361877396749057,5897.671000170732
0.324,1.0119074653433777,5893.97728510692
0.328,0.9309189661233659,5895.935094354662
0.332,0.9800975925795032,5905.384954311533
0.336,1.1112086667457663,5890.260386557759
0.34,1.2514196355896792,5892.1546689959305
0.344,1.3216396443384386,5894.668260105256
0.348,1.2572060323171268,5899.713580238524
0.352,1.0250772960232937,5898.863170039071
0.356,0.6333329275994428,5895.664593775892
0.36,0.1306393739235719,5909.415830758475
0.364,-0.40485981213069155,5906.496979697901
0.368,-0.8850379981280356,5897.66952066833
0.372,-1.2340301413671872,5893.244238044793
0.376,-1.4057236997318494,5910.540612802635
0.38,-1.3907719340114213,5901.809752449101
0.384,-1.2121395845444676,5906.956510491745
0.388,-0.912895646909101,5899.264174008951
0.392,-0.5423332046500233,5906.2730210138025
0.396,-0.14589060907057494,5898.53834248886
0.4,0.2390073182629514,5895.212938938817
0.404,0.5831348788921482,5892.4834780023
0.408,0.8648539020149908,5908.698333805759
0.412,1.069639935174648,5895.868358123848
0.416,1.1886692391899416,5897.565659731656
0.42,1.2163308699878492,5900.272208251323
0.424,1.1485228532827658,5913.298292196562
0.428,0.9835870519767925,5897.311878609609
0.432,0.7258571724595072,5902.024593170564
0.436,0.3902497134680522,5898.404477713749
0.44,0.005921526038325071,5895.732831446452
0.444,-0.38297512633960756,5895.966133172236
0.448,-0.7210340557974374,5890.323028261934
0.452,-0.9501585730330638,5909.158027559843
0.456,-1.0214965445133612,5912.192097288957
0.46,-0.9078943045306465,5911.311700463662
0.464,-0.6134297899346012,5898.351508965902
0.468,-0.17704104994438452,5900.337528962293
0.472,0.3312417889835689,5894.386742268833
0.476,0.8211348052401832,5900.188669967539
0.48,1.1984123361167247,5902.534492747192
0.484,1.3842205802275642,5896.56744870924
0.488,1.3335916587250196,5894.145579542118
0.492,1.0479194609126476,5895.649630699139
0.496,0.5764865152724388,5893.712326415011
0.5,0.005378976800798764,5907.771879889404
0.504,-0.5631194556318178,5901.488896616127
0.508,-1.0342927734984826,5903.594510506515
0.512,-1.3414156170921228,5892.380058881367
0.516,-1.458190500300336,5902.277056930304
0.52,-1.4006409917330267,5897.994692567611
0.524,-1.2182412016885413,5891.504588266915
0.528,-0.9771120746903503,5894.346066262815
0.532,-0.7406025580803213,5891.708519842177
0.536,-0.5529780054721886,5895.923392523387
0.54,-0.4305787483148947,5898.654164545898
0.544,-0.36265914351253714,5897.301099454836
0.548,-0.3212636963126835,5907.685976524498
0.552,-0.27614729926714116,5901.044899951708
0.556,-0.2083522497701192,5907.031951327919
0.56,-0.1164143994312361,5904.616871078165
0.5640000000000001,-0.012736726165568759,5903.25825494147
0.5680000000000001,0.08710817525599693,5903.174420082971
0.5720000000000001,0.1754057971882318,5907.701963642375
0.5760000000000001,0.25692137280382965,5896.1671642342935
0.58,0.34479625328078967,5903.09001278168
0.584,0.4512207717017893,5900.021217512933
0.588,0.5793703385878219,5900.656312360614
0.592,0.7215190177667817,5906.808765420617
0.596,0.8638278046899688,5902.0828283082665
0.6,0.9941027632464595,5901.665282531163
0.604,1.107249982424902,5900.535117937527
0.608,1.2049666528342633,5910.155755555128
0.612,1.2900271559802767,5897.979203676993
0.616,1.3588383979552396,5903.50077297946
0.62,1.3969738439058261,5901.828845077684
0.624,1.3808009096762077,5898.540943603254
0.628,1.2849689047433825,5901.48971904148
0.632,1.0924533270641394,5893.04092302288
0.636,0.80291943090618,5895.067514352772
0.64,0.4362681289945366,5899.535302535227
0.644,0.03014081474058685,5903.361752222434
0.648,-0.3676144123532082,5899.217786810351
0.652,-0.7084556857766572,5896.123632876129
0.656,-0.9511605291001879,5899.378866222293
0.66,-1.066822948254148,5897.8279164910855
0.664,-1.041865605467856,5899.816577301718
0.668,-0.8804774819055512,5908.022388679249
0.672,-0.6057729325767288,5899.995412743914
0.676,-0.2571479925387879,5896.961891022326
0.68,0.11749786825626136,5894.754232779607
0.684,0.47238285841089017,5897.516099453
0.6880000000000001,0.7723333470005449,5906.814622337995
0.6920000000000001,0.9951666356339113,5900.132317306045
0.6960000000000001,1.1281452801848177,5888.944203460973
0.7000000000000001,1.1627295479451294,5897.56100134434
0.704,1.0925394410689238,5912.239396001399
0.708,0.9162551920866946,5898.736091154455
0.712,0.6429139821389318,5896.3632598969725
0.716,0.29514956317982727,5899.842874084262
0.72,-0.09259010859284478,5899.073367281964
0.724,-0.48042053476269775,5901.489665248411
0.728,-0.8306336673865811,5902.928838608492
0.732,-1.1126966376807697,5908.023988336353
0.736,-1.304123791043795,5894.804505039418
0.74,-1.3889705062840603,5890.96904439122
0.744,-1.3571855350498079,5896.102455113964
0.748,-1.2067533226453677,5900.248436267438
0.752,-0.9478024684036257,5901.090882373388
0.756,-0.605862382101894,5901.48702102771
0.76,-0.22137368582021366,5899.484559333068
0.764,0.15602653653026174,5902.508618235916
0.768,0.4778361214253197,5903.426938436067
0.772,0.7086621632853738,5899.354812441431
0.776,0.8351506643739003,5903.207323103276
0.78,0.8678408967607409,5902.062763154041
0.784,0.8352021797288279,5899.489564454431
0.788,0.7725836070044069,5895.879974538753
0.792,0.7100800167629094,5895.715781201912
0.796,0.6629336711874863,5899.776762201822
0.8,0.6276283570580822,5903.793933419125
0.804,0.5856526102379229,5904.447213787082
0.808,0.5137190624270073,5902.971243505289
0.812,0.395664073237015,5903.51181506973
0.8160000000000001,0.23057246510906276,5903.582312319385
0.8200000000000001,0.0343197267379171,5900.336432901211
0.8240000000000001,-0.16504238101393945,5901.206704961826
0.8280000000000001,-0.3358345190074425,5904.724475145997
0.8320000000000001,-0.45222733543709104,5906.47489679856
0.836,-0.5013660074626924,5890.669163789595
0.84,-0.48575676934849044,5899.770396375754
0.844,-0.4205066870247394,5906.189034430615
0.848,-0.32673549736130697,5894.83798749668
0.852,-0.2234485543939015,5896.893266570687
0.856,-0.12074161351614981,5892.13115217945
0.86,-0.017008249121994688,5898.350849883435
0.864,0.09871491605070999,5908.220721068341
0.868,0.24030334669912176,5896.836379989022
0.872,0.416647875938109,5895.887695103879
0.876,0.6254208652940035,5905.133952428795
0.88,0.8507243885391356,5896.867013509831
0.884,1.0647636639016904,5904.953601825971
0.888,1.2317428876733045,5910.95464619682
0.892,1.312084293982791,5902.9168498027375
0.896,1.2669525459136224,5896.968809391966
0.9,1.064904366937419,5909.68142929205
0.904,0.6919428745231105,5906.016330841608
0.908,0.16303717376003202,5893.761412329502
0.912,-0.4703693917533793,5901.569721191129
0.916,-1.122941095703373,5906.228700280008
0.92,-1.690548953396234,5902.333786595599
0.924,-2.0743261250458316,5908.861602512474
0.928,-2.205445290870977,5899.361168927221
0.932,-2.06182920282814,5905.8011988019725
0.936,-1.6717904510176838,5888.988874029095
0.94,-1.1050374827413385,5894.132903748348
0.944,-0.4551740320406255,5884.772914624591
0.948,0.18103015028733296,5896.966299960377
0.952,0.7222160569624055,5907.125399053267
0.956,1.1142263492643134,5888.115653031239
0.96,1.3333290862336677,5904.170651125512
0.964,1.38311943159984,5893.772808829623
0.968,1.289183689737207,5899.961162727905
0.972,1.0937654351714274,5895.525288031025
0.976,0.8495549808844841,5902.411346741733
0.98,0.6107311399563784,5899.7581708676
0.984,0.42145809928807054,5894.22735182112
0.988,0.30521004484081576,5901.820772111698
0.992,0.25965470010436315,5893.674987040373
0.996,0.2600329555344236,5903.025466521865
1.0,0.2703000815923778,5900.823197870435
1.004,0.2580354408896605,5904.4482890412655
1.008,0.20749091986718923,5908.269450633978
1.012,0.1255363547722848,5896.449507339336
1.016,0.03804307477890163,5900.219307663632
1.02,-0.02138394513531966,5904.755708163875
1.024,-0.02495599439291577,5899.469374288044
1.028,0.03918534735525942,5907.708416220814
1.032,0.16332204925040408,5897.760654904836
1.036,0.3225010082259721,5914.624037794865
1.04,0.48037720654368465,5906.823731043568
1.044,0.5961144938849116,5896.660956020319
1.048,0.6310893187258994,5902.422225823695
1.052,0.5554233694064586,5899.545103634026
1.056,0.35469652343699354,5907.457768442057
1.06,0.03610437048320185,5900.459306536194
1.064,-0.36819187197165126,5909.677519976704
1.068,-0.8032412652700118,5896.059995539977
1.072,-1.200411478453101,5906.54640640611
1.076,-1.492112994441489,5897.493803546069
1.08,-1.6282766655622691,5896.811232290755
1.084,-1.5898550628461283,5904.661949432521
1.088,-1.395153875873333,5893.115640721514
1.092,-1.096078228201247,5897.844250287072
1.096,-0.7642192818123802,5898.808632763583
1.1,-0.47117358294831946,5901.035659484484
1.104,-0.2704658820138437,5908.178551335025
1.108,-0.1868508878572347,5902.47422587307
1.112,-0.21418776326081262,5902.666487832609
1.116,-0.31997521119916267,5898.024404472016
1.12,-0.4545953619373295,5895.56803128198
1.124,-0.5639953797632113,5898.137783449989
1.128,-0.603718092450215,5899.963796650006
1.132,-0.5505350003799837,5903.185101247561
1.136,-0.407681877541731,5902.597318410022
1.14,-0.20183634664818131,5900.929551279729
1.144,0.0267644302433448,5891.491858368465
1.148,0.2371607409583075,5905.37594752451
1.152,0.3987157350749446,5907.985154580679
1.156,0.4967345905295885,5900.605156925691
1.16,0.5317788405196014,5898.1378064256405
1.164,0.5145707064260007,5898.908625465518
1.168,0.45954330293961365,5906.367148199089
1.172,0.37991290957370344,5897.035207076009
1.176,0.2863923111772869,5891.068461485426
1.18,0.18975249493021473,5896.84614333706
1.184,0.10447821765678893,5902.237570540991
1.188,0.04926182349108025,5897.025059710093
1.192,0.04198391435805191,5893.625478113178
1.196,0.09065740238241302,5893.043716215712
1.2,0.18463313282226804,5900.927641427468
1.204,0.2907817449015143,5896.320472333513
1.208,0.35759717157200116,5902.475759881733
1.212,0.3271864673392193,5894.539661973452
1.216,0.15216043374888555,5902.105106013265
1.22,-0.18771632376049183,5899.094081759111
1.224,-0.6751239719524124,5898.592726855034
1.228,-1.255551774757761,5905.697863640738
1.232,-1.8486421166884783,5903.25023133595
1.236,-2.3657470163418544,5909.314966533915
1.24,-2.7269730989848284,5904.472939123984
1.244,-2.8735804298581074,5907.393055503491
1.248,-2.775848649853383,5900.835875330004
1.252,-2.4380276781553283,5900.596125705424
1.256,-1.9001896189216132,5893.585001660785
1.26,-1.2351239600505248,5899.04835917428
1.264,-0.5389855021955772,5903.799175635532
1.268,0.08391694712483369,5912.968800763333
1.272,0.5401228373451251,5904.849495943001
1.276,0.7659983903773884,5907.14375160312
1.28,0.7418231498623183,5896.733137177821
1.284,0.49702712175831704,5892.665390896593
1.288,0.10503064480199123,5899.160489038935
1.292,-0.3316683997375418,5899.480634333847
1.296,-0.7037774720487269,5903.4450580957855
1.3,-0.9200508828101228,5901.622137654354
1.304,-0.9275859092342474,5899.322997301771
1.308,-0.7213128332448786,5908.2155629148
1.312,-0.3410255350949094,5899.774916779693
1.316,0.14075780454053918,5890.974618416074
1.32,0.6348707337688934,5895.464795178292
1.324,1.0513607145535195,5901.817386315902
1.328,1.3132641989415563,5904.956319483264
1.332,1.3682204082663527,5899.69512063369
1.336,1.1979165802334562,5899.223293096851
1.34,0.8236134126824999,5902.4498319469785
1.344,0.30440093539516344,5899.99532080242
1.348,-0.2742698961968762,5909.692975402711
1.352,-0.8205897799415124,5898.304629924253
1.356,-1.259251865331022,5893.447356273113
1.36,-1.5487969462133435,5896.305153991376
1.364,-1.6864838171009175,5901.265405132812
1.368,-1.6997026620174918,5903.794251624193
1.372,-1.6300990261054344,5897.9631351834105
1.376,-1.5192782525344404,5899.9462787072325
1.38,-1.4010703349148965,5894.58251476308
1.384,-1.2990247572313558,5896.340730390856
1.388,-1.2250529814902542,5891.309969565022
1.392,-1.1774308817036179,5903.407572383922
1.396,-1.1401830655766674,5898.24240082699
1.4,-1.0870894673357658,5904.190007254463
1.404,-0.9909484923989794,5903.105999936387
1.408,-0.8344057378539633,5898.335122002898
1.412,-0.6165771468277905,5899.886483757969
1.416,-0.35216947551657013,5906.656224592658
1.42,-0.06470623267059364,5900.375549740203
1.424,0.2214241390555743,5896.677602979283
1.428,0.48590075360035084,5901.351232482403
1.432,0.7131241220020483,5905.107152891037
1.436,0.8904536115829952,5902.293241404675
1.44,1.0071468128806866,5903.431954878458
1.444,1.0557862491422572,5896.924818745012
1.448,1.0354991266785445,5900.861446773521
1.452,0.9548224142833783,5893.187504005321
1.456,0.8324041333547634,5895.696016832031
1.46,0.6950348595444557,5905.434321574443
1.464,0.5735606029681805,5902.71222812201
1.468,0.4974399027142866,5900.831037859361
1.472,0.4884364707791698,5908.568815882925
1.476,0.5541981194307665,5902.7358599898325
1.48,0.6837447906246499,5903.284489582889
1.484,0.8478328642452889,5897.473993709466
1.488,1.0056841552083062,5889.933431173712
1.492,1.1160539759239605,5898.711921266737
1.496,1.1482247158747483,5903.2903189625285
1.5,1.0891336489912147,5892.201139461781
1.504,0.9450695727322255,5898.954880843463
1.508,0.7382962669790982,5903.820625606279
1.512,0.5002426935731203,5900.695132578374
1.516,0.26358047631176706,5899.675163953493
1.52,0.05532279432805649,5903.229269390102
1.524,-0.1077487578998459,5895.976604269414
1.528,-0.22080657947136792,5900.558468694208
1.532,-0.2897609155222229,5892.031448695966
1.536,-0.3275075330088104,5903.490788208697
1.54,-0.3489933979211635,5901.158875510462
1.544,-0.3672422766829076,5893.54859186342
1.548,-0.3919192302331853,5901.60759991888
1.552,-0.4300707180107325,5902.531457416472
1.556,-0.48697288095814134,5906.501482088069
1.56,-0.5653078959950296,5904.199130901246
1.564,-0.6630851580556344,5903.746793270251
1.568,-0.7726185754804833,5901.272129277217
1.572,-0.882345785378774,5899.153188127049
1.576,-0.980855832207763,5903.663995217311
1.58,-1.0608819293762743,5904.599191759619
1.584,-1.1216569643229224,5903.339493384066
1.588,-1.1693163375907736,5895.475042858951
1.592,-1.215178726616738,5902.723579022544
1.596,-1.2717014667086413,5896.498091408344
1.6,-1.3472668670330104,5894.272545436193
1.604,-1.4425200021417501,5891.493494566119
1.608,-1.55029548810938,5906.221421950362
1.612,-1.6585159456992689,5903.851310845158
1.616,-1.7537214453778007,5901.268014882114
1.62,-1.823528299577789,5904.424523791127
1.624,-1.8576009588849285,5896.686598171432
1.628,-1.8469887287870648,5895.886216546086
1.632,-1.7819645289590758,5897.253770819405
1.636,-1.6501199609931896,5903.787290619693
1.64,-1.4377837550682675,5903.576162863159
1.644,-1.136327854746543,5904.54439235632
1.648,-0.751345339099278,5894.482915624823
1.652,-0.31015769576588054,5900.764729412081
1.656,0.13681344294981207,5893.018316674354
1.66,0.5232856388547668,5887.55648014736
1.664,0.7823248495131284,5899.816363977954
1.668,0.8652570749739027,5901.486047699594
1.672,0.7575894829093317,5891.017534670358
1.676,0.4858115016373644,5903.265471707127
1.68,0.11220981401823388,5907.48025794236
1.684,-0.2810206520190275,5904.400924354965
1.688,-0.6134801904760845,5900.046350814296
1.692,-0.8270998302284979,5895.549558972303
1.696,-0.8990665745810028,5899.432392182345
1.7,-0.8441029558781411,5896.45811659736
1.704,-0.7073694683095161,5904.598677547065
1.708,-0.5516551636277296,5895.244282089657
1.712,-0.4423911412304641,5904.236485958658
1.716,-0.433083637522786,5901.177365804453
1.72,-0.553362905982937,5888.74706777577
1.724,-0.8017357194289466,5898.18405200117
1.728,-1.144619322861339,5903.265614781281
1.732,-1.5222150889211485,5895.170248494527
1.736,-1.8605407445226088,5896.700571200869
1.74,-2.087523569612535,5904.988828886598
1.744,-2.149499532807554,5900.23789454645
1.748,-2.0235822562975887,5898.081578160452
1.752,-1.7221439515221673,5899.7337811031775
1.756,-1.2879528035255567,5899.382577200699
1.76,-0.7815817403879428,5896.586350744593
1.764,-0.2658734389613699,5901.428743375145
1.768,0.2061537706216192,5896.303672494004
1.772,0.5957624967344025,5905.064037988611
1.776,0.8764747634462996,5894.882526297013
1.78,1.0309810094379042,5899.803718206026
1.784,1.051849922456756,5904.87599353134
1.788,0.9463060865672731,5885.358503682232
1.792,0.7406297712951813,5905.775904085971
1.796,0.4784407620784644,5908.932614610851
1.8,0.21032673682359823,5901.754166029398
1.804,-0.021829292203240383,5896.732787068647
1.808,-0.1980486813737359,5890.854719441195
1.812,-0.32392508243595225,5895.896588294748
1.816,-0.42303662295073546,5906.6858471468
1.82,-0.5221990538675486,5903.824322613899
1.824,-0.6365142389776608,5901.814415622952
