时间(s),电压(V),幅值(高频80K)
0.0,3.584604063271379,5889.636578371474
0.004,2.387306612014643,5898.386458370733
0.008,1.3001262021403288,5901.482879259324
0.012,0.41353192553871726,5900.503511892178
0.016,-0.2251803757334386,5901.7101905323725
0.02,-0.6168767365359443,5904.344645214501
0.024,-0.8009118988280124,5894.563018039701
0.028,-0.8361579770347076,5896.423207711767
0.032,-0.7817142384761009,5896.620681954049
0.036,-0.6848130235034048,5901.112074625596
0.04,-0.5780414334446672,5901.302908901244
0.044,-0.48270198007535225,5891.311146497193
0.048,-0.4134807206306795,5904.432362651767
0.052,-0.38139955079357607,5906.902974495108
0.056,-0.39423312651982967,5898.891364231893
0.06,-0.45455630069461966,5891.785884761658
0.064,-0.5565388022677362,5888.326238417108
0.068,-0.6840504612757697,5901.609849958011
0.072,-0.8126654191048059,5903.779601460053
0.076,-0.9154792102899687,5910.133112367647
0.08,-0.9695230066599724,5901.060240452289
0.084,-0.9595598732804315,5904.006436482505
0.088,-0.8792670865554105,5902.17328856722
0.092,-0.7322126390566273,5898.913831486939
0.096,-0.5336570061124639,5894.878343413328
0.1,-0.310941445141246,5901.162907135878
0.104,-0.09921053712616462,5902.147633983011
0.108,0.06782653272736813,5896.21565095783
0.112,0.16791637546533741,5895.389835553678
0.116,0.19541269774447378,5906.156691733113
0.12,0.15934970474168764,5895.770328980859
0.124,0.07728979289445835,5896.88868317093
0.128,-0.030368491208276543,5896.382174831884
0.132,-0.14314348354773768,5908.0690373969765
0.136,-0.24078175220457634,5898.130811459855
0.14,-0.30281813555401904,5900.730095740081
0.144,-0.309087444343811,5902.706469530152
0.148,-0.24283416652585757,5903.183449702318
0.152,-0.09715601804619357,5895.650310660428
0.156,0.11709378858320132,5906.689521403318
0.16,0.36662031975498477,5901.713225747546
0.164,0.5990642029666382,5895.315062013042
0.168,0.7556224855916593,5893.224481428457
0.172,0.7885495154441547,5898.678258843968
0.176,0.675857388137867,5906.533015915027
0.18,0.42728223560886364,5898.4831642421
0.184,0.08087109468895284,5909.344266800999
0.188,-0.3063351320415203,5903.062747963116
0.192,-0.6698672311556071,5900.110889199455
0.196,-0.9498176343186224,5894.871614925911
0.2,-1.102108397736305,5903.411585638761
0.204,-1.1072118950880478,5901.175776280392
0.208,-0.9742281018257066,5896.510041373263
0.212,-0.7391332043409913,5901.538485186096
0.216,-0.45752159155476646,5896.243172102873
0.22,-0.19334069105111112,5896.677429911108
0.224,-0.005523185913224179,5902.425382410546
0.228,0.06545763979114337,5899.157434393355
0.232,0.008639256855199999,5904.445056532807
0.236,-0.15174804408678189,5900.557559382542
0.24,-0.3589294826559712,5903.4643782381845
0.244,-0.5364584821605781,5904.44363646688
0.248,-0.6101664771870194,5900.699666573702
0.252,-0.5331637614034459,5903.055354247494
0.256,-0.30417449177129086,5909.815844242135
0.26,0.029405140863550193,5892.650233048743
0.264,0.3863221209964637,5900.028434438541
0.268,0.6792309359824938,5904.900324625105
0.272,0.8451122843621837,5898.116579204023
0.276,0.8667816436653272,5904.382973209489
0.28,0.7770997466085893,5897.966765315453
0.284,0.6440870322878726,5907.149334451248
0.288,0.5427432979220148,5910.01302388991
0.292,0.5249374956784343,5900.213768972843
0.296,0.5997757758503232,5902.288644483413
0.3,0.7323684670340818,5896.859167928636
0.304,0.8604366314074894,5905.502384596139
0.308,0.9201693899495577,5901.163468449486
0.312,0.8697756715649776,5901.730062899803
0.316,0.7021665015251797,5895.4134061178775
0.32,0.44423578683725234,5901.154186944769
0.324,0.14578186236246968,5895.799238010477
0.328,-0.1357909726454323,5894.712042693629
0.332,-0.34898132919187125,5904.3040869299375
0.336,-0.45679204405070317,5902.125795136926
0.34,-0.44085776239204205,5897.917267171699
0.344,-0.3032681782027137,5895.578975360567
0.348,-0.06751701012731043,5898.690512971006
0.352,0.22202305898680041,5892.985859436206
0.356,0.5044679617437108,5897.842451427708
0.36,0.7130525877587852,5894.93905574632
0.364,0.7916827479074208,5897.557658321625
0.368,0.7123236764227625,5909.85243112409
0.372,0.4851021070617955,5904.977917269117
0.376,0.1554181734337799,5894.903735414366
0.38,-0.21065959718027724,5901.36442518119
0.384,-0.5454851107363126,5901.100820323151
0.388,-0.7955741530876467,5896.980528410399
0.392,-0.9299892269316649,5904.737261049603
0.396,-0.941884860250127,5895.645894463993
0.4,-0.8459490251608923,5899.923461213336
0.404,-0.6735514656561251,5891.015691112169
0.408,-0.4653512101867712,5901.89500801374
0.412,-0.26129412518589795,5900.118019689354
0.416,-0.09067377489406853,5898.704687486012
0.42,0.03337249416595924,5907.242546873472
0.424,0.11245173851347791,5904.137570616113
0.428,0.15590221037780902,5902.674537879025
0.432,0.1721036360366622,5906.949882015871
0.436,0.16224386866083473,5886.037537053298
0.44,0.11894582470681346,5902.142364851573
0.444,0.029522388518157878,5895.189908429561
0.448,-0.11851476297815793,5900.993946843484
0.452,-0.332440668719747,5891.501965394052
0.456,-0.611249017339975,5896.302276178758
0.46,-0.9445308077186197,5908.839094027882
0.464,-1.3127824756804696,5905.794545485811
0.468,-1.6887224557808018,5885.828590270434
0.472,-2.0393175507029087,5902.677971868423
0.476,-2.328352709730229,5901.270477256332
0.48,-2.519655065853892,5906.171101695016
0.484,-2.5813647906543324,5896.971190181418
0.488,-2.491437548522045,5910.542034002694
0.492,-2.2435313558928383,5903.25990334593
0.496,-1.8511907846710836,5899.056830619782
0.5,-1.3479385647614683,5899.69716179218
0.504,-0.7820398122488949,5900.740766551845
0.508,-0.2069979678517671,5896.418149137341
0.512,0.32873404623794045,5902.983173041256
0.516,0.7885251691496061,5908.228429110841
0.52,1.1486096366306238,5890.566033802348
0.524,1.3950073145781086,5901.29189971792
0.528,1.5201094521205076,5901.19402820744
0.532,1.5213962864293402,5903.705699233485
0.536,1.4018919128418874,5905.235064690275
0.54,1.1706917667498324,5897.028385574945
0.544,0.8426097926998274,5900.201951332192
0.548,0.43695005012389343,5895.560242871561
0.552,-0.023975010983855648,5904.262180439991
0.556,-0.5151701693209142,5908.705305395232
0.56,-1.0067673598379572,5891.028034836294
0.5640000000000001,-1.460304754747598,5898.360254011097
0.5680000000000001,-1.8273271981284112,5899.778069151512
0.5720000000000001,-2.0540674145822977,5906.342683377528
0.5760000000000001,-2.0928084081699825,5903.187361222796
0.58,-1.9171158258378322,5898.725580739964
0.584,-1.5359578513043155,5899.598515575276
0.588,-1.0008451246371344,5896.009173925674
0.592,-0.40124823338896776,5902.437346067604
0.596,0.15265195889573843,5891.395398850675
0.6,0.5555708993927985,5900.092854779641
0.604,0.7327637785345364,5906.206105834759
0.608,0.6569027000142627,5901.119599907003
0.612,0.3509157130823648,5899.344910903365
0.616,-0.12258391378685471,5910.416296446935
0.62,-0.6795304339079664,5900.88730603822
0.624,-1.2329311722299219,5910.461857342963
0.628,-1.706373249365567,5899.674456615485
0.632,-2.0408035095124677,5900.652647008822
0.636,-2.195986872434724,5894.805213586122
0.64,-2.149996131600966,5897.412872316961
0.644,-1.9003744886698453,5902.538400913067
0.648,-1.468394496495521,5892.728511473718
0.652,-0.903857365860876,5902.752946950694
0.656,-0.2852481431926225,5902.714793308313
0.66,0.2887839973421692,5898.921657308161
0.664,0.716607526110556,5904.738122677492
0.668,0.9152142442357922,5898.261354592201
0.672,0.8397222314189119,5895.001662730646
0.676,0.4949382106958731,5897.875963544608
0.68,-0.06368730272607759,5897.990804413526
0.684,-0.7390585176616632,5891.6626071514265
0.6880000000000001,-1.4092812804892576,5899.105226492633
0.6920000000000001,-1.9501079283586895,5902.5741831505375
0.6960000000000001,-2.2601035246893564,5897.093237735978
0.7000000000000001,-2.2840531586864232,5896.5045966926655
0.704,-2.0284649106224277,5894.458531300449
0.708,-1.5629537017772452,5893.556813736079
0.712,-1.0045630452977854,5897.805116068479
0.716,-0.4883417546454898,5905.954538053468
0.72,-0.13319058636976244,5901.298273228523
0.724,-0.013400053471121475,5899.52667426872
0.728,-0.14310309103299407,5894.7048855043495
0.732,-0.47586878783556275,5903.352458320475
0.736,-0.9177700924907006,5901.660619829483
0.74,-1.3502435199932983,5897.8441605922735
0.744,-1.6577625489765837,5907.18046441201
0.748,-1.754009969510295,5904.331103009632
0.752,-1.6000556514487028,5908.735239055306
0.756,-1.2102365079562654,5903.102653584343
0.76,-0.6450730958631956,5899.904607200136
0.764,0.006013576688496627,5897.213090221494
0.768,0.6469407546523104,5902.793508446826
0.772,1.1959465830033797,5900.25118432273
0.776,1.600173253212281,5895.979226815015
0.78,1.8411543288693049,5895.288505049274
0.784,1.9310324167686366,5908.157625554039
0.788,1.901615901771604,5898.853628851947
0.792,1.7906130833924496,5899.8860284131815
0.796,1.6304253386379213,5907.13248687969
0.8,1.4430262745596583,5894.762148109996
0.804,1.240364215412582,5901.501197200886
0.808,1.0267408832047138,5899.164291627594
0.812,0.8002799750228732,5894.764461188873
0.8160000000000001,0.5538595641926024,5897.668301718216
0.8200000000000001,0.2781724475648512,5910.937434657936
0.8240000000000001,-0.031626272630447906,5902.544134184484
0.8280000000000001,-0.3679410735023607,5901.89530516469
0.8320000000000001,-0.7064381975712798,5899.165401565709
0.836,-1.009417542375171,5895.5097024607685
0.84,-1.2363583916802676,5904.444809167611
0.844,-1.3566433320129814,5899.812263369764
0.848,-1.3584975979665452,5901.854373935778
0.852,-1.2509880185153583,5904.673286821413
0.856,-1.0597340397702377,5905.592981733487
0.86,-0.8192368491689253,5894.298739776148
0.864,-0.5649811465790205,5903.958878028411
0.868,-0.3275693868265631,5897.967899194754
0.872,-0.12998747617152084,5897.6329622372095
0.876,0.011936904885579594,5910.841311406308
0.88,0.08690881229561845,5904.694669562846
0.884,0.08562404288612765,5902.0850843771495
0.888,0.0010286650591671289,5905.923978729095
0.892,-0.16734284540977826,5903.388622188802
0.896,-0.40655425446641846,5902.094085771495
0.9,-0.684782284970209,5893.753794784743
0.904,-0.9509474452348258,5895.660101070214
0.908,-1.141389253419856,5906.0871765916345
0.912,-1.1929392833823842,5903.717090308151
0.916,-1.0591476271545928,5898.099738423435
0.92,-0.7244811666399862,5897.577052358266
0.924,-0.21123984083227554,5898.914570051336
0.928,0.4235418900397069,5896.359130181328
0.932,1.1000916706619461,5898.145496537882
0.936,1.732928798965051,5905.517308184902
0.94,2.2482928629882153,5902.795158954168
0.944,2.5977206620397593,5895.628181759219
0.948,2.764720423247808,5906.984564465707
0.952,2.7636171038303776,5895.9634223097255
0.956,2.6318537842955356,5908.418055357241
0.96,2.4183673420110017,5898.773593178466
0.964,2.171183891397833,5896.204242448907
0.968,1.9273350157749114,5896.998702727798
0.972,1.7072737578715003,5892.6641005088095
0.976,1.5143332437768622,5899.385490707148
0.98,1.3385070228479077,5900.664362112078
0.984,1.1635174404201534,5894.553482477448
0.988,0.9758492505581473,5904.819380528053
0.992,0.7732227721271645,5894.27869152117
0.996,0.5688983615401169,5896.760693231215
1.0,0.3892158202332712,5903.111493768566
1.004,0.2649323029654866,5892.123244429345
1.008,0.22014570121327356,5895.820754204227
1.012,0.26388206570149997,5904.510898981652
1.016,0.38800222319663474,5898.681862840983
1.02,0.5714840452510566,5902.839472036168
1.024,0.7875563893871784,5901.316394435015
1.028,1.0093456070234181,5896.0516115036135
1.032,1.2121910416290946,5903.032282637586
1.036,1.3739905165749162,5906.587483770621
1.04,1.4758091567347753,5898.4449392147335
1.044,1.5033318301713716,5914.579324231631
1.048,1.4480678654546073,5902.700896379432
1.052,1.3074548182095425,5906.85495329519
1.056,1.084442956806003,5905.888510119674
1.06,0.7879803585560389,5898.954801818742
1.064,0.4352802500921964,5904.098026580764
1.068,0.054957757176512155,5898.978329364485
1.072,-0.3120229479425085,5909.399844960319
1.076,-0.6169970653245072,5893.195716570609
1.08,-0.8143133270950321,5899.635779370971
1.084,-0.8741784299699465,5892.080062044377
1.088,-0.7916285275517165,5909.374877427033
1.092,-0.5876560322564017,5897.268654680665
1.096,-0.3027276570346098,5895.588292257861
1.1,0.013857350316789276,5896.999302760519
1.104,0.3144383588831766,5899.977537587124
1.108,0.5599354458270515,5909.002720677825
1.112,0.7221742696009924,5901.522568078009
1.116,0.7832801136859864,5899.322636437334
1.12,0.7352350085745157,5908.235991808911
1.124,0.5814432190951984,5897.240686026911
1.128,0.33948854265935346,5894.794669784927
1.132,0.04255353839626917,5894.928739044972
1.136,-0.262884094076045,5906.427357450413
1.14,-0.5240348238150716,5896.326190401712
1.144,-0.6924609384730172,5899.752296726545
1.148,-0.735657154434554,5896.283078430057
1.152,-0.646058211026308,5896.890288700833
1.156,-0.4445581985193041,5899.698850979005
1.16,-0.1768384750871088,5906.379434678684
1.164,0.09768747392983644,5899.674669733325
1.168,0.3220316160858414,5906.422635507099
1.172,0.4574887901232971,5908.015325704352
1.176,0.4926127478053205,5904.547010978405
1.18,0.4416283443123233,5904.225244117117
1.184,0.3341235160976547,5895.664144742128
1.188,0.20216209615523242,5896.51412880177
1.192,0.07134155467793243,5895.249153144616
1.196,-0.04096056920455634,5902.16091787334
1.2,-0.12147521208168671,5908.672362711044
1.204,-0.15550808989769704,5896.523327053622
1.208,-0.12451736225908311,5896.635105165552
1.212,-0.008877251337431087,5901.9897269170215
1.216,0.2051164076985621,5895.890236322774
1.22,0.5169524263575702,5895.618965996581
1.224,0.9059714061951936,5900.471694900337
1.228,1.330864005213786,5900.244041783654
1.232,1.7357955613316811,5902.2960995548365
1.236,2.0615939028433785,5895.108802299769
1.24,2.2580315195121368,5899.609049440958
1.244,2.2929697600362937,5906.656095351912
1.248,2.1565087423029214,5893.69192024212
1.252,1.8610986544998263,5900.501836995604
1.256,1.4393528370534008,5899.877448715055
1.26,0.9403929420969144,5894.447522426412
1.264,0.4246905036661951,5896.03564817315
1.268,-0.04294864327295195,5896.068561782777
1.272,-0.40246998348770663,5905.197279371762
1.276,-0.6089429890368251,5896.541813675927
1.28,-0.641858253538017,5896.823685174612
1.284,-0.5102557352217,5896.659907293553
1.288,-0.2516469756511912,5908.527917630411
1.292,0.0752191602990236,5903.072837865592
1.296,0.4020236283447236,5904.921535312286
1.3,0.6644298117813741,5902.251032375518
1.304,0.814538048829984,5906.693553678504
1.308,0.8292293464654945,5902.795948915117
1.312,0.7123405780456307,5903.853726752766
1.316,0.49056181746775057,5899.433688149162
1.32,0.20493465019489873,5901.598346556779
1.324,-0.0992423705930974,5912.501718968133
1.328,-0.3815548747516285,5905.201135952938
1.332,-0.6128383151315195,5905.381778194454
1.336,-0.777866832734444,5908.720446531406
1.34,-0.8747750696137319,5909.504804826759
1.344,-0.9126721747192789,5897.939009797201
1.348,-0.9086935906096658,5904.277360175812
1.352,-0.8846923047234718,5895.040744419094
1.356,-0.8631980471817227,5905.621830955872
1.36,-0.8624943858653802,5904.966754016434
1.364,-0.8913975264304033,5901.061607621549
1.368,-0.9454993048609155,5900.3074566099685
1.372,-1.0073454909788773,5901.295842412977
1.376,-1.0516295675735319,5898.153552065988
1.38,-1.053357813111992,5907.078094048355
1.384,-0.9950724814616385,5904.080725938319
1.388,-0.8705379106129045,5896.019542949631
1.392,-0.684901777279559,5898.420271151222
1.396,-0.45229850541548977,5898.458472694889
1.4,-0.19141240334366347,5901.377565964793
1.404,0.08006433972852525,5897.963460419058
1.408,0.34980566128446516,5893.60001928296
1.412,0.6116167196273236,5904.299446330802
1.416,0.8619100971921373,5905.714462268352
1.42,1.0935556614493145,5907.369689983914
1.424,1.290283398110166,5892.678395687635
1.428,1.4250712905163017,5900.750428249999
1.432,1.4648102972865888,5908.273743078668
1.436,1.38093465971407,5895.26214612256
1.44,1.162403887145623,5902.416277783621
1.444,0.8252145342363848,5908.5365130908285
1.448,0.4132583598465671,5909.180878085342
1.452,-0.0108963982834528,5899.468142983829
1.456,-0.3819003288439288,5904.207962751339
1.46,-0.648052658120227,5892.136538188952
1.464,-0.782745161513679,5897.922100005207
1.468,-0.7880419090578125,5900.883754369175
1.472,-0.6905293870537518,5896.9208456035785
1.476,-0.5322082533220742,5900.304433631637
1.48,-0.3605327366483046,5897.4577458415615
1.484,-0.2206802944497162,5900.186329123594
1.488,-0.150329843232224,5902.108680272681
1.492,-0.17509451509674728,5892.731441848907
1.496,-0.30329545273066294,5894.303285843882
1.5,-0.52139800406171,5904.758457599605
1.504,-0.7935742502622349,5888.426989817261
1.508,-1.0682965002969684,5900.0654465848565
1.512,-1.2915436937645755,5897.55645210083
1.516,-1.4222687861331815,5898.964835609631
1.52,-1.4439524387978968,5894.554127133978
1.524,-1.3674661157150112,5901.631340929227
1.528,-1.2240455991527184,5904.915786721871
1.532,-1.0510736863936876,5896.316815269729
1.536,-0.87622219870269,5911.209663622353
1.54,-0.706581129421463,5899.477697827143
1.544,-0.5280797741411246,5905.303457408246
1.548,-0.3165080317812069,5900.442429411217
1.552,-0.05593972903733707,5900.3502497224845
1.556,0.24405948908773537,5906.302717723311
1.56,0.5417559902227358,5896.329572745959
1.564,0.7723394984395046,5901.794993052056
1.568,0.8708446630570901,5897.684168244836
1.572,0.8004525210250901,5903.064241366456
1.576,0.5749040534748251,5901.762975953748
1.58,0.2652142838544249,5892.531686284507
1.584,-0.014153943657983071,5903.280637985815
1.588,-0.13696544106456696,5903.976112814786
1.592,-0.004297461704649823,5898.189564926789
1.596,0.4231794250466507,5908.045565998129
1.6,1.1110795977054715,5903.525243035001
1.604,1.9591450659239775,5899.092403497034
1.608,2.8270104355377925,5912.091438291925
1.612,3.5686845616003233,5904.018807834954
1.616,4.0650563463250755,5901.695020346735
1.62,4.245906652661593,5902.653215990895
1.624,4.097532583532495,5900.389980751339
1.628,3.657018547323812,5900.581430007307
1.632,2.997772623798806,5902.611251847591
1.636,2.2123471576052545,5897.9122585489295
1.64,1.3972655262504283,5911.759952951692
1.644,0.6413380648657474,5894.654759240637
1.648,0.016313935736174148,5900.160753969647
1.652,-0.4313053269908185,5905.843060334962
1.656,-0.6864984323887727,5895.539842921897
1.66,-0.7673619914516197,5896.517492673949
1.664,-0.7194142182093991,5895.814526300368
1.668,-0.6021902252950817,5901.75773523227
1.672,-0.4718525774786855,5898.731494386222
1.676,-0.3665251660265308,5901.809691899347
1.68,-0.2999181257757025,5905.936104140475
1.684,-0.26410522922254565,5902.080191138101
1.688,-0.2380728779667301,5902.862059628935
1.692,-0.19771381295435447,5898.618607676137
1.696,-0.12437512075459403,5908.114001937197
1.7,-0.010573314423778006,5901.903710520611
1.704,0.13783111843762647,5890.465809354653
1.708,0.3031490999874146,5898.872103684824
1.712,0.46022869435813296,5905.673838487213
1.716,0.58217259966587,5901.486725731783
1.72,0.6463696993087633,5903.507413846461
1.724,0.6405403159268327,5889.47751910547
1.728,0.5680547131264414,5898.870119383162
1.732,0.4502887035939571,5904.5778693651455
1.736,0.32305358751325425,5908.473275265684
1.74,0.22586055675637368,5895.2537479529165
1.744,0.18668775208667973,5902.908201529144
1.748,0.20857868408901387,5901.220565113176
1.752,0.2649717850846248,5901.378999974909
1.756,0.30715666078223847,5902.784969101455
1.76,0.2813678459511275,5906.7355848897
1.764,0.14817470923699927,5894.672731503613
1.768,-0.103921970983317,5902.973975523494
1.772,-0.4549511160374834,5885.092524739817
1.776,-0.8588458678715242,5893.801459564907
1.78,-1.2536691299672371,5903.533723051163
1.784,-1.5732610518313084,5908.803817302642
1.788,-1.7585211728455794,5901.560400689963
1.792,-1.7669435128471391,5898.72231675802
1.796,-1.5788393381235384,5899.101796679467
1.8,-1.1995559105481968,5907.7075270134965
1.804,-0.6587402130184222,5901.002238917411
1.808,-0.008350144310336607,5896.8687653010775
1.812,0.680390752261801,5903.5811779693495
1.816,1.3229916735633829,5908.187295732147
1.82,1.8326999916034843,5903.137587488784
