时间(s),电压(V),幅值(高频80K)
0.0,-1.0595957833504794,5905.2946236415
0.004,0.003004877713110953,5897.097349983365
0.008,0.9157720049981096,5903.452548934923
0.012,1.5516057032366088,5909.667262736856
0.016,1.8374074081394536,5903.556336628061
0.02,1.7685196723644094,5897.225807280692
0.024,1.4075925661202326,5900.102148245601
0.028,0.8683400817389684,5901.17168134789
0.032,0.2877866761586503,5897.00155064095
0.036,-0.20668893799484384,5905.359538582122
0.04,-0.5262898858222802,5908.838789855319
0.044,-0.6359104141661097,5896.464628920762
0.048,-0.5508148599616239,5908.785053142959
0.052,-0.3195843562726623,5898.132075188816
0.056,-0.004353520285178256,5901.541858937854
0.06,0.3326189839829442,5897.578658824451
0.064,0.6350276487649009,5902.043269635874
0.068,0.8566487928035617,5896.686661271972
0.072,0.968292740708835,5899.780737856663
0.076,0.9665959150143356,5903.505517111709
0.08,0.8791831912103691,5909.35155013357
0.084,0.7608979053900896,5897.475640210553
0.088,0.6791558490231004,5896.923341140131
0.092,0.6913208715640959,5900.416802927541
0.096,0.8224231764134972,5890.736037636233
0.1,1.0540301680520416,5903.073698360909
0.104,1.330342886703187,5902.669162395917
0.108,1.5776254563985082,5897.761050573802
0.112,1.726335746133487,5910.113326278069
0.116,1.7271526179284056,5913.257487925903
0.12,1.5586785439470963,5903.056432284567
0.124,1.2288235638110776,5898.0397564212
0.128,0.7717005796398494,5894.194816986287
0.132,0.2405501589583691,5891.505397646629
0.136,-0.30224175950950416,5900.222812411792
0.14,-0.7953676713043231,5894.752412319438
0.144,-1.1863778882201768,5903.4519365669
0.148,-1.4363358696147208,5900.35728700021
0.152,-1.5225154662249603,5896.324322608554
0.156,-1.4403295320155607,5900.3951833775445
0.16,-1.2044821489434103,5897.084052475462
0.164,-0.84844174910577,5906.432925949778
0.168,-0.4214621102831301,5897.68474213441
0.172,0.01690702147740985,5896.863530645809
0.176,0.4043153893818695,5897.870650379018
0.18,0.6841907122507065,5904.620858581562
0.184,0.8139404901026247,5898.391549164575
0.188,0.7712253097537894,5905.393907349691
0.192,0.5575456179924569,5894.325085753166
0.196,0.1992895829877869,5902.3600573572685
0.2,-0.25346004911233133,5906.569450616372
0.204,-0.7307378195376449,5901.422977624305
0.208,-1.15037230266614,5905.32777759219
0.212,-1.4303316720330366,5904.149813828565
0.216,-1.5039496192979154,5901.006465877542
0.22,-1.333608196070609,5899.1581439467145
0.224,-0.9189435533916145,5902.194455049615
0.228,-0.2989224238444734,5908.402922440366
0.232,0.45074295598269415,5897.785151346255
0.236,1.2246623411184618,5901.971353275008
0.24,1.9010894296600398,5900.963081826685
0.244,2.362045231457046,5909.009805738294
0.248,2.5168996820229896,5902.861323816041
0.252,2.323242022577395,5900.049336783864
0.256,1.798976598457995,5895.74136876147
0.26,1.0218287504806913,5898.564392355019
0.264,0.11591062432603967,5901.822368856167
0.268,-0.7714272411500214,5900.43404554525
0.272,-1.4974175706818573,5895.528481761011
0.276,-1.9514820252517102,5898.802421946101
0.28,-2.077635567725457,5902.368232558448
0.284,-1.8857738606061545,5890.453531542211
0.288,-1.4470524065643768,5902.745820866593
0.292,-0.8734504251501959,5907.045142775552
0.296,-0.287509818348857,5896.064172005378
0.3,0.20837170968392857,5892.1241871756
0.304,0.5535237687364729,5890.662228014253
0.308,0.7346686277006163,5902.532281257122
0.312,0.7749833429046344,5886.2253146697
0.316,0.713353275822572,5897.054253601229
0.32,0.5845232012155183,5901.816282460282
0.324,0.40838557093000133,5897.05240402205
0.328,0.1903602129636095,5904.429545723811
0.332,-0.07053899304884592,5902.450854777714
0.336,-0.3714131678934452,5897.032316962571
0.34,-0.697964625959404,5894.924929090055
0.344,-1.0231051599103926,5899.645125883105
0.348,-1.3122989868179087,5902.8394199944505
0.352,-1.5328241388977037,5904.480713007404
0.356,-1.661903828226749,5896.864183117233
0.36,-1.689461972979433,5890.517524289985
0.364,-1.6151245489397237,5899.364603768173
0.368,-1.4438031376676221,5894.90012124878
0.372,-1.1858333005481265,5898.165713214629
0.376,-0.8636093752020989,5900.292598029524
0.38,-0.5194708482706897,5897.352043939538
0.384,-0.2156895819814055,5896.7503844713965
0.388,-0.020950259967002973,5897.044027174316
0.392,0.013664550809599942,5898.782251583638
0.396,-0.12116086205376415,5896.545631077537
0.4,-0.380573535856009,5899.600034354943
0.404,-0.6723279280163551,5910.893901719476
0.408,-0.8819241736967709,5902.831291368706
0.412,-0.9071100388766381,5902.7912502175805
0.416,-0.6888911503772093,5895.547655571442
0.42,-0.22866737885554614,5900.224373775614
0.424,0.41229689824927057,5892.126839960488
0.428,1.1285218569946367,5908.505511350533
0.432,1.7952152319267054,5903.614000892559
0.436,2.2961211699884223,5905.595287739623
0.44,2.5487727153928996,5894.565380015548
0.444,2.5223899971187835,5900.735731018799
0.448,2.244695408492622,5893.260682766969
0.452,1.795837657562078,5906.699772977157
0.456,1.2901918240445358,5893.814881303528
0.46,0.8495692146188871,5896.566440260117
0.464,0.5741674965583766,5904.864796693031
0.468,0.5192444475368848,5894.279020577391
0.472,0.6841802631580178,5902.648491062788
0.476,1.016337691247381,5908.629473370576
0.48,1.4271615936175166,5903.765403501526
0.484,1.8146724476517162,5891.605142471452
0.488,2.0859365611087597,5899.124728153019
0.492,2.1746379051808535,5901.857398642285
0.496,2.0512316429325397,5890.519579488417
0.5,1.7253928149431426,5887.181848830817
0.504,1.241938787141939,5901.219181726855
0.508,0.6717688833463705,5906.500903771163
0.512,0.09922152716164057,5889.9221122508825
0.516,-0.39251171703680493,5901.1605726011685
0.52,-0.7358159170032283,5903.068577453566
0.524,-0.8908701473440445,5894.21758515945
0.528,-0.853907788387103,5894.438054161312
0.532,-0.6597057684740474,5890.270069386363
0.536,-0.3765040373285228,5908.217968586236
0.54,-0.09253475153530248,5888.841652019312
0.544,0.10462312630824205,5888.666913452247
0.548,0.15164902039312922,5899.767001447131
0.552,0.02856388841277049,5899.180348816252
0.556,-0.23493943943965517,5889.598231084497
0.56,-0.5697118409844573,5899.635065651613
0.5640000000000001,-0.8898846734252325,5914.942227414888
0.5680000000000001,-1.1184646052738942,5902.301090110857
0.5720000000000001,-1.206387527821064,5902.8104275829055
0.5760000000000001,-1.140469090162939,5894.5866404179
0.58,-0.9408650126205688,5897.178358101442
0.584,-0.6512869115460641,5890.832806503948
0.588,-0.32571171230227747,5898.43211512963
0.592,-0.015263789251023318,5897.596935629936
0.596,0.2415409628125949,5901.630173226628
0.6,0.423501270572528,5900.3111233897625
0.604,0.526778441471836,5894.462326465143
0.608,0.5623458785317654,5900.116742126018
0.612,0.5532287271033407,5899.861645740431
0.616,0.5323164138742675,5900.915080461372
0.62,0.538976236499371,5897.517292341067
0.624,0.6117842672720355,5895.258512050151
0.628,0.7771046051263579,5896.704253867232
0.632,1.037484029807978,5891.658735302723
0.636,1.366010891552239,5899.745672053493
0.64,1.7105005448327804,5896.884345083383
0.644,2.006348052182742,5896.633315420793
0.648,2.1929563242645678,5895.7167668013
0.652,2.2279326435109694,5898.892740103905
0.656,2.095236769669905,5907.9446582879655
0.66,1.8063647140368648,5895.847687384643
0.664,1.395888120680773,5893.969452502653
0.668,0.9137003109838816,5898.783193659666
0.672,0.41617796507421484,5894.720339966493
0.676,-0.042636943628931244,5897.702860782605
0.68,-0.4196180176904158,5903.8756050311085
0.684,-0.6899485456890222,5901.767333930211
0.6880000000000001,-0.8507880980817462,5894.882548430211
0.6920000000000001,-0.9186780330014983,5889.851768062329
0.6960000000000001,-0.9207067094973188,5898.955699288235
0.7000000000000001,-0.8828704780137042,5900.7346996083215
0.704,-0.8208862532336506,5897.81692903605
0.708,-0.7375886300936797,5900.662728985903
0.712,-0.6273385203764953,5898.168185997355
0.716,-0.4838177249839131,5890.956897696421
0.72,-0.30637098847088806,5900.2332351004525
0.724,-0.10258261408200257,5897.635770641329
0.728,0.11211170894211243,5907.955323509288
0.732,0.316508482030808,5899.824276379494
0.736,0.4873897851005317,5903.721039093761
0.74,0.6050921053099725,5907.848344513709
0.744,0.659627507219919,5905.533857912112
0.748,0.6545902476224549,5900.217500327549
0.752,0.6060192511982351,5897.016512515621
0.756,0.5356048975526596,5904.243893350518
0.76,0.4613349784588757,5895.618746916251
0.764,0.39105982905241504,5889.696284835373
0.768,0.322912779816268,5902.491442195479
0.772,0.25167846604340915,5902.828637191357
0.776,0.17593873847212188,5901.481560250404
0.78,0.10075831870315631,5900.158911278256
0.784,0.03468273750945974,5894.114133246868
0.788,-0.015753194758485755,5889.689135845945
0.792,-0.04954203195327344,5895.828498518853
0.796,-0.07045582158526484,5899.2109868188345
0.8,-0.08290567470024192,5894.544005351377
0.804,-0.08734327709319953,5909.050871124942
0.808,-0.07870910939551057,5904.676130138932
0.812,-0.050302658979059646,5893.598223280136
0.8160000000000001,-0.002184650401338912,5896.464041374316
0.8200000000000001,0.050871332838892724,5898.034232241192
0.8240000000000001,0.0784508755759109,5899.797968679497
0.8280000000000001,0.043961304678677475,5903.702317650495
0.8320000000000001,-0.07854492870225308,5906.471579774336
0.836,-0.2882200219112291,5900.560911117576
0.84,-0.5502692452745532,5891.1686403204985
0.844,-0.8022205262597234,5897.636859284704
0.848,-0.9723934428190968,5890.676027931676
0.852,-1.004018326112783,5899.237072462863
0.856,-0.8754215406556958,5893.29588711864
0.86,-0.607934730363903,5899.577425716371
0.864,-0.2587738916906078,5900.224097195089
0.868,0.09694799114819248,5897.656956241428
0.872,0.3869045520908644,5898.942198412117
0.876,0.5577007300262459,5902.582595855451
0.88,0.583323409768189,5893.734799370573
0.884,0.46639962860000456,5898.587539013127
0.888,0.2341915499020971,5899.672166354869
0.892,-0.06885762083288086,5893.693478477886
0.896,-0.39070571334123133,5898.127507762315
0.9,-0.6821488672857483,5901.163328382668
0.904,-0.9059401464288365,5900.314622173632
0.908,-1.041654598992508,5896.2511162406745
0.912,-1.0847633827957173,5894.308763763373
0.916,-1.0414596279008834,5902.901786071279
0.92,-0.9226166296999117,5907.326076617927
0.924,-0.7396109911321593,5897.93455494195
0.928,-0.5030456821441041,5901.831877360304
0.932,-0.22386964637056095,5900.256651220546
0.936,0.084736037590584,5901.402068352894
0.94,0.4063105555144721,5899.123100622247
0.944,0.7210502466977088,5894.582254876103
0.948,1.0056825723731428,5897.748188601335
0.952,1.2330179253850746,5898.904360462437
0.956,1.3729009576230529,5901.899418480608
0.96,1.3970536728555563,5899.427645442481
0.964,1.288296627507101,5889.795438014779
0.968,1.050727145070667,5895.576934329086
0.972,0.7149234071735566,5896.578047738516
0.976,0.334021649642668,5900.460233118231
0.98,-0.028394826649592614,5893.796632617998
0.984,-0.3133577286087104,5902.199830199578
0.988,-0.478747548881882,5901.22020174319
0.992,-0.5055210092692152,5897.624841409298
0.996,-0.3978445856747756,5909.023948150605
1.0,-0.1788807475600764,5899.379177401205
1.004,0.11533994742076813,5892.162522392361
1.008,0.4416464619961798,5895.494390350977
1.012,0.7539535628653874,5901.268456017815
1.016,1.006750183729033,5896.07179032179
1.02,1.1597019708029088,5906.9110680244
1.024,1.1847184386804428,5895.714756248259
1.028,1.0748391690976191,5898.094512303194
1.032,0.8514472064226211,5900.112723638024
1.036,0.5645378448849845,5895.388596365076
1.04,0.28241310342829873,5906.009142919582
1.044,0.07217587579318603,5903.797664218956
1.048,-0.022240511374813556,5894.676256943102
1.052,0.004615179588599264,5902.875019564123
1.056,0.1180843319805917,5909.379894861751
1.06,0.25662325469297936,5889.801761940909
1.064,0.35412437364422733,5891.41059070412
1.068,0.3614617775522078,5905.89251371235
1.072,0.2588765884172549,5893.442908159492
1.076,0.05677218902968005,5897.435740795507
1.08,-0.21177921194932403,5896.757105674021
1.084,-0.5016074660505819,5893.292535630861
1.088,-0.765179355021447,5899.441187354494
1.092,-0.9596590380435429,5903.762440560574
1.096,-1.0513558134738101,5898.288628266734
1.1,-1.0190767233534426,5898.505945391224
1.104,-0.8577433191702505,5900.082226053099
1.108,-0.5817487602089441,5898.8377940737455
1.112,-0.22617695228501347,5905.0204808210165
1.116,0.15543623468977508,5896.774040009113
1.12,0.4971475468527097,5904.745018084916
1.124,0.730627689155706,5897.546592067814
1.128,0.7985739592991649,5896.458498559586
1.132,0.6685691934529753,5886.180548043636
1.136,0.3425729652739387,5901.942094233184
1.14,-0.14162916293520605,5899.474879534182
1.144,-0.7173262864812119,5897.607037149991
1.148,-1.3016333147740264,5896.174251865422
1.152,-1.8106360888748942,5899.379283518259
1.156,-2.173632836150215,5897.127855626868
1.16,-2.3435457394106023,5895.607637023306
1.164,-2.3014052851136118,5892.116292276964
1.168,-2.0547145581636594,5899.0700005451945
1.172,-1.6318105251424697,5902.732804504391
1.176,-1.0754476988561539,5897.813937454795
1.18,-0.43802940917887473,5905.488447667749
1.184,0.22115677809757228,5901.631948305197
1.188,0.8384612639270395,5894.40058970522
1.192,1.3507733974765657,5906.822247756536
1.196,1.70410506156494,5886.498575872017
1.2,1.864115212289491,5897.672115427419
1.204,1.824350732695723,5894.573247548443
1.208,1.6083652845033034,5900.695344421857
1.212,1.2646593727093134,5887.830762971245
1.216,0.8560501188772471,5898.346061083877
1.22,0.4464943157602242,5897.323257619256
1.224,0.08897257104028237,5896.944120598294
1.228,-0.1823960922653666,5891.5291732241685
1.232,-0.354602741625692,5896.956524833792
1.236,-0.4331463098063142,5893.01283903827
1.24,-0.43678357757385544,5896.378078087558
1.244,-0.39189361326570815,5899.16889437813
1.248,-0.3275789297553951,5901.130705793485
1.252,-0.27143083958099196,5894.497976137633
1.256,-0.24594797295433618,5892.015338164058
1.26,-0.2666308546284677,5891.066107411085
1.264,-0.342904515598706,5897.163253904635
1.268,-0.48108921758916956,5908.933969148849
1.272,-0.6861075814915464,5899.4160707572055
1.276,-0.9585271536525602,5896.481168013854
1.28,-1.28705784402142,5901.7159466623325
1.284,-1.6409630686453212,5903.367583890101
1.288,-1.9679759557868264,5899.394692876557
1.292,-2.200590291609402,5892.903882948218
1.296,-2.269798767905051,5892.817385512903
1.3,-2.1228203321923282,5894.431139175812
1.304,-1.740359737860925,5903.353987633821
1.308,-1.148912032039695,5893.673834716137
1.312,-0.42401417858538903,5892.72281586654
1.316,0.31893437898870364,5901.998720363423
1.32,0.9475207618149789,5907.408639428019
1.324,1.3452311924329632,5896.77985344652
1.328,1.444683426609665,5900.0637591104205
1.332,1.2485631479152202,5898.821690018164
1.336,0.8293842185075172,5901.285435444773
1.34,0.30781503010709427,5893.9532558693145
1.344,-0.182156938685846,5894.473911184392
1.348,-0.5286620548189312,5895.560134622311
1.352,-0.6669310031891449,5898.987759550248
1.356,-0.5886403379321172,5896.487150273079
1.36,-0.3367044907729709,5893.6136001953855
1.364,0.010331250355556135,5899.558910664599
1.368,0.360040005906365,5896.329985157742
1.372,0.629605406047274,5894.584471626465
1.376,0.7653451922374467,5896.959944416988
1.38,0.7522648782139999,5905.960492639153
1.384,0.6104323685690554,5896.8157825775415
1.388,0.38024603571113746,5898.522937255968
1.392,0.10383106317908697,5889.834621579007
1.396,-0.1884511996185806,5906.83255360826
1.4,-0.4808220442318306,5902.344331658145
1.404,-0.765182919793225,5895.646222138184
1.408,-1.0305961765381169,5901.009373564248
1.412,-1.2562815244283552,5897.9155038358285
1.416,-1.4123671493015046,5897.252627300163
1.42,-1.4678627304219811,5895.359469880745
1.424,-1.4015360087012632,5892.22595350782
1.428,-1.2106192875375774,5899.730821392677
1.432,-0.9142044448926852,5894.239500819381
1.436,-0.5508494830071337,5893.226221458212
1.44,-0.1715715947474511,5891.1677103083175
1.444,0.17034731031841235,5900.181549004162
1.448,0.43126046449695843,5894.168750986514
1.452,0.5883037578485275,5907.330913148171
1.456,0.6462821803206351,5901.295554157862
1.46,0.637210280606574,5888.415492335984
1.464,0.6114166048578676,5904.598766743004
1.468,0.6218226750665251,5892.809516349307
1.472,0.7058453928338553,5906.67928362122
1.476,0.8715177379038446,5902.294381907892
1.48,1.093997764157743,5909.650921447062
1.484,1.324314092546488,5896.808253744031
1.488,1.5060326602194576,5890.360340822171
1.492,1.5921379068644232,5903.800628145479
1.496,1.555999414282519,5904.944640804715
1.5,1.3946339890213266,5889.225045281738
1.504,1.1263979537493976,5902.314630855242
1.508,0.7868989200405444,5890.321800477716
1.512,0.42529157188810446,5908.2480240461
1.516,0.09939102097080624,5899.604046170602
1.52,-0.133745390269311,5894.9509850104405
1.524,-0.23230667538054522,5904.614327352536
1.528,-0.18471164197864753,5898.2691423441465
1.532,-0.01758858129357433,5887.182225574677
1.536,0.2088595287113089,5907.259407660311
1.54,0.41761248394975115,5885.252095397488
1.544,0.5367329819542623,5905.914874478326
1.548,0.5172890106839082,5900.050899087823
1.552,0.3416216739598133,5896.352256702481
1.556,0.022156451944959642,5899.617666979184
1.56,-0.4048214050885553,5896.408284504424
1.564,-0.8857191295617348,5896.119372491741
1.568,-1.3550835668142711,5886.704638397632
1.572,-1.742193384945585,5897.29620227218
1.576,-1.9814324144366662,5886.648128486845
1.58,-2.025722098403345,5894.904962240225
1.584,-1.858598658383714,5884.098998605934
1.588,-1.500004382468351,5896.489628007113
1.592,-1.0036467416058208,5898.963223072665
1.596,-0.4471794090877724,5897.846178830101
1.6,0.08183463543908445,5894.935958735381
1.604,0.5012773583863609,5899.101934556428
1.608,0.7487955512457494,5900.895377648332
1.612,0.7929367733156831,5900.759462542584
1.616,0.6389843902873188,5901.939947684256
1.62,0.3278109304074774,5893.1126653717465
1.624,-0.07259370396354503,5897.921766813177
1.628,-0.4810282865675259,5898.8011836322485
1.632,-0.8187457197547013,5897.434561505378
1.636,-1.0235999817427348,5890.8457850076
1.64,-1.0612718730869075,5892.61171545828
1.644,-0.9328360075532428,5902.688159998513
1.648,-0.6767658444865193,5895.946370240939
1.652,-0.3628270082969996,5907.186945299584
1.656,-0.07696247590336411,5900.383388997307
1.66,0.10054785378399259,5894.528913798332
1.664,0.11837464018585321,5897.502382311836
1.668,-0.028147510094822734,5906.763334968648
1.672,-0.2917099410070769,5896.975344034247
1.676,-0.5841109675221217,5898.969173403198
1.68,-0.8021994246894997,5894.150040729957
1.684,-0.8607671399998271,5899.23911688575
1.688,-0.7205613197394172,5889.490919529319
1.692,-0.40087484437461063,5893.00779102834
1.696,0.027448881037643858,5894.973208072951
1.7,0.46468422101881224,5895.739437237115
1.704,0.811286036263821,5890.733625517986
1.708,0.9934656185518633,5895.832348125423
1.712,0.9785378406348819,5900.045549092367
1.716,0.7780659919173609,5889.714995170758
1.72,0.44096731739538725,5896.680447605513
1.724,0.04023268343264632,5905.2618458365305
1.728,-0.3438183452151758,5902.0672622180255
1.732,-0.6409942549198274,5897.699736128029
1.736,-0.805498988893818,5892.869730479342
1.74,-0.8232855427982431,5889.826183076063
1.744,-0.7115964952676913,5895.981333440981
1.748,-0.512667541213314,5903.533541635171
1.752,-0.2839157592336493,5900.519415669486
1.756,-0.08582714135480668,5892.2047302877
1.76,0.031299942480662556,5899.02110272306
1.764,0.03940358023772011,5901.731074312795
1.768,-0.059675870566970726,5891.476600854957
1.772,-0.23363175412213863,5898.301202147317
1.776,-0.4272607472284391,5908.4549909126135
1.78,-0.5765754751248899,5903.054569408515
1.784,-0.6253880127951658,5889.266570335415
1.788,-0.5395114350203754,5897.817876623274
1.792,-0.3150508874582141,5891.286200586788
1.796,0.02038531268123321,5890.994597405214
1.8,0.41283997604677364,5897.425743483506
1.804,0.7922553700340944,5906.983828551394
1.808,1.086634971647033,5893.305716052995
1.812,1.238272796138395,5901.642579783786
1.816,1.2186928330197668,5897.945399923006
1.82,1.0378076599656756,5887.204336590848
1.824,0.7431380525392349,5889.6407269980855
