时间(s),电压(V),幅值(高频80K)
0.0,-3.0573048441517576,5898.423208742835
0.004,-1.4891137855388443,5896.954499787925
0.008,-0.11875517975997431,5890.373270208463
0.012,0.8929311270853838,5895.459978708474
0.016,1.4602604247608746,5891.692356508358
0.02,1.5798380635491105,5898.197494174397
0.024,1.3170926820061166,5892.602824278084
0.028,0.7814860619336738,5901.335326115228
0.032,0.09941639916159722,5896.081065143255
0.036,-0.6088974774441871,5896.472338045479
0.04,-1.2443966681689482,5900.491601184987
0.044,-1.734545207392794,5901.4787872980005
0.048,-2.0320115324923482,5899.205671480948
0.052,-2.112666640804685,5902.306275930034
0.056,-1.9769345071653877,5900.410198389418
0.06,-1.653185482267497,5903.38888563518
0.064,-1.1982192020152809,5899.221203229502
0.068,-0.6904126017453743,5895.0365499650825
0.072,-0.21457605763440382,5895.726326935507
0.076,0.1580409726770078,5908.769657362007
0.08,0.38766273055521716,5899.469111852967
0.084,0.4744791547107475,5900.766877486862
0.088,0.45406143130112886,5894.24202668652
0.092,0.3818874544535344,5898.436202490354
0.096,0.31362252258239204,5902.478858292264
0.1,0.2885937827041743,5901.159540303528
0.104,0.3211189526382483,5897.453613981188
0.108,0.40009559822174073,5893.416480324426
0.112,0.49453839962752033,5905.287341623556
0.116,0.5629483573029798,5899.233206845986
0.12,0.5655359077545472,5888.5326730397655
0.124,0.477555839192494,5905.09631923796
0.128,0.29953108391295724,5895.853617433681
0.132,0.05914779331604837,5901.363824380166
0.136,-0.19734983879739024,5891.769347120679
0.14,-0.42061990208455907,5890.749864293851
0.144,-0.5729168279227441,5908.844019196414
0.148,-0.635779487907888,5896.284539624979
0.152,-0.6097793471349743,5898.3485617094375
0.156,-0.509931744682821,5902.557257726406
0.16,-0.3610160524979085,5899.101045002011
0.164,-0.19451497619548405,5898.970725354408
0.168,-0.04624078226167029,5904.269661724748
0.172,0.04691104558774938,5903.452862276876
0.176,0.051838273967063093,5901.172521062409
0.18,-0.054342500532847775,5900.835886262569
0.184,-0.27719254639173846,5899.7282045222455
0.188,-0.5990639925334909,5894.623278739772
0.192,-0.9769484205903397,5894.650452875544
0.196,-1.3460522737215097,5901.101596778429
0.2,-1.6295560917924512,5891.634318463843
0.204,-1.7532468390375637,5905.334237536715
0.208,-1.662274440467934,5901.509545301113
0.212,-1.3362672740184183,5908.541042977754
0.216,-0.798559687069157,5910.656449986776
0.22,-0.11597751005771405,5897.181597174568
0.224,0.6119039565876936,5899.572918597582
0.228,1.2716606295986967,5900.398878562208
0.232,1.7582981384698915,5902.328258719421
0.236,1.995839437408355,5908.629439452434
0.24,1.9520512842828348,5904.838786894838
0.244,1.6440782633025715,5899.18102854952
0.248,1.1331678407881625,5896.180276434638
0.252,0.5094962351730207,5899.351618679626
0.256,-0.12835714446678737,5905.081191405876
0.26,-0.6928099451128407,5907.576325156389
0.264,-1.120488540141966,5900.876232866535
0.268,-1.3779675970605936,5893.666603114993
0.272,-1.4617975150770892,5902.382670459479
0.276,-1.39506142820471,5900.600200255714
0.28,-1.2217866721633774,5901.875533109688
0.284,-0.9999321711377642,5897.978159814282
0.288,-0.7934341307978066,5899.87199571487
0.292,-0.6634266913674908,5896.229539902988
0.296,-0.6586613574087818,5895.374229411589
0.3,-0.8058846733826268,5897.117682279874
0.304,-1.1022070928449372,5906.034518211682
0.308,-1.5124556676989076,5908.912159863565
0.312,-1.974122072821566,5893.892214583292
0.316,-2.410161377963693,5894.843259933769
0.32,-2.746541554563511,5899.910056767954
0.324,-2.9292138625469186,5902.8444342551975
0.328,-2.9352339360129944,5892.411091706103
0.332,-2.774910740767405,5900.684323667621
0.336,-2.485292346742675,5897.033773631772
0.34,-2.1183410613717197,5900.515647089751
0.344,-1.7280716289686657,5902.657348974966
0.348,-1.3600494811136403,5903.371522443918
0.352,-1.0454217702793727,5903.601213461922
0.356,-0.8000162330881129,5897.644641010404
0.36,-0.626698832515259,5907.900141326255
0.364,-0.5180408798763166,5908.046390558953
0.368,-0.45813761962175664,5902.133212923332
0.372,-0.42514917255985957,5905.109230705779
0.376,-0.39616150518055415,5898.236906713577
0.38,-0.35316477181122613,5894.731601649114
0.384,-0.2870425625347353,5900.304982051651
0.388,-0.19787160560866,5898.753616221606
0.392,-0.0925813756352083,5897.914860581964
0.396,0.01809541000618923,5894.646938344128
0.4,0.1225595508460769,5897.6264213505865
0.404,0.21105104496619778,5902.398943312987
0.408,0.27739461518473696,5905.294192031665
0.412,0.3187892499637468,5906.880708193993
0.416,0.33386347909859787,5899.3892262016
0.42,0.32068979376900403,5906.9476019624335
0.424,0.27651917724688047,5895.810702110922
0.428,0.19966932549879665,5897.175302896517
0.432,0.09247715445403062,5900.475325505519
0.436,-0.036537787501753814,5896.768036805822
0.44,-0.17284514558925895,5897.588653016946
0.444,-0.29869481493850036,5907.819966558799
0.448,-0.3973152328277723,5887.510878001255
0.452,-0.4567211948974356,5899.494738072993
0.456,-0.47202090671925406,5892.7555075032105
0.46,-0.4460751388080673,5904.118811220158
0.464,-0.38856580871359575,5894.894553084378
0.468,-0.31337282724746596,5897.9736649346405
0.472,-0.23472133914677643,5898.078824077708
0.476,-0.1635926768412917,5891.239465717913
0.48,-0.10585482818645098,5897.008319083738
0.484,-0.06216714101981193,5909.533108168366
0.488,-0.02873893792643118,5890.833647649035
0.492,0.0013971980979434052,5897.996816908518
0.496,0.03611979908195955,5900.692124413375
0.5,0.08092327596708479,5903.194796813825
0.504,0.13570385580725114,5900.84832090225
0.508,0.19315329542036627,5902.948786229748
0.512,0.23955510517963746,5899.257308085618
0.516,0.25769234084567,5899.577238854035
0.52,0.23102835394741322,5897.244457172899
0.524,0.14832811308136432,5899.733370940132
0.528,0.007941585352406143,5895.301742479068
0.532,-0.17911140277378038,5897.747821396341
0.536,-0.388345329914008,5904.578475327466
0.54,-0.5847297708980358,5900.451203295996
0.544,-0.7303222475149588,5895.167673840387
0.548,-0.7952771269630831,5907.455316568044
0.552,-0.7677520069237214,5893.120867134601
0.556,-0.6575235517223704,5895.801861276857
0.56,-0.4912286158336542,5905.909154013517
0.5640000000000001,-0.30153773745222495,5898.592591432577
0.5680000000000001,-0.11498821044400465,5903.560427105119
0.5720000000000001,0.05688345630729034,5901.602614987592
0.5760000000000001,0.21964311876996295,5898.82103892432
0.58,0.38968992642980704,5901.762377596449
0.584,0.5815546662713299,5899.433933258642
0.588,0.795149131496951,5903.694469282639
0.592,1.0107967000825988,5896.953777277782
0.596,1.195553062013937,5892.339177799575
0.6,1.3170453746390292,5897.33222119399
0.604,1.356750666038474,5896.286827687915
0.608,1.3160083071516602,5901.427441203004
0.612,1.2128028482490145,5896.272117625298
0.616,1.0718989050313796,5896.827935056933
0.62,0.9135281088791726,5901.876496671545
0.624,0.7460739951296675,5897.745969269155
0.628,0.5659722718428404,5899.26696401172
0.632,0.36425793789443656,5895.14373398315
0.636,0.13595325368594635,5897.814188751882
0.64,-0.11235874283218872,5894.774472050079
0.644,-0.35984779785189297,5905.470023589839
0.648,-0.5743286252989592,5903.381661436482
0.652,-0.719567390746772,5894.701116544572
0.656,-0.7644014664418702,5908.87506854374
0.66,-0.6902312138303808,5895.347579741858
0.664,-0.4945228234008666,5888.099952168394
0.668,-0.19078708004551842,5903.761313946608
0.672,0.19282928122606724,5898.348867244448
0.676,0.6155011131634757,5903.467372347806
0.68,1.0274268308941623,5899.665856694553
0.684,1.376313457478881,5909.419010808916
0.6880000000000001,1.6158683341790996,5899.707499251429
0.6920000000000001,1.7143091116076004,5902.560796790666
0.6960000000000001,1.6607582979145088,5900.887308720034
0.7000000000000001,1.4675806118923975,5899.714139735752
0.704,1.1673874627111092,5902.93370452069
0.708,0.8050769525272358,5893.748933266146
0.712,0.4274865304834833,5898.786891966812
0.716,0.07478410963023722,5901.469104272149
0.72,-0.22281318854821258,5888.19690180304
0.724,-0.4426860424813459,5898.0436906475925
0.728,-0.5658245023044285,5902.515669109432
0.732,-0.5766917050120935,5898.879676357883
0.736,-0.4689809401288577,5902.781442494589
0.74,-0.25371505388378274,5899.044663312287
0.744,0.03643464751248892,5901.337136950279
0.748,0.35032908302920246,5902.211290015497
0.752,0.6281811271368303,5903.919079888137
0.756,0.8143137430446298,5911.258771000177
0.76,0.8693087132593625,5905.298985085708
0.764,0.7794372439412094,5892.204815085715
0.768,0.5618783256663308,5887.974126670713
0.772,0.26385237557240454,5897.410174106739
0.776,-0.0460659539725669,5895.334497432331
0.78,-0.2944101144841157,5896.743532327557
0.784,-0.42395545125979583,5906.890219421744
0.788,-0.4132807464565997,5900.541450792655
0.792,-0.2868509643043418,5898.43172066451
0.796,-0.10964705620436732,5908.146576437482
0.8,0.033463507460051396,5906.575776476935
0.804,0.06642685436804745,5905.698232512133
0.808,-0.05157398241219371,5897.433523829663
0.812,-0.3108262667198636,5900.072059367517
0.8160000000000001,-0.6519162812822816,5901.663061883528
0.8200000000000001,-0.9828155750359102,5888.597341984436
0.8240000000000001,-1.2070273613181866,5901.854604967482
0.8280000000000001,-1.2536174494617112,5903.633866805635
0.8320000000000001,-1.0994624504476904,5904.396408474672
0.836,-0.7769798359923813,5898.789464899583
0.84,-0.36527073819647,5890.268090637242
0.844,0.032284458777073685,5903.2737457575495
0.848,0.31666627245087303,5893.555888742461
0.852,0.41915542829547286,5906.188704288343
0.856,0.3172403582255759,5896.947418151347
0.86,0.03681390970780928,5906.842934852716
0.864,-0.35865568396085307,5905.666279795065
0.868,-0.7874396167788995,5898.891350251924
0.872,-1.171014162252505,5900.396345421106
0.876,-1.4521405974839887,5897.215459775496
0.88,-1.606018666719829,5900.205707823135
0.884,-1.6425607070560184,5898.28847882915
0.888,-1.5991731026963207,5901.054534615753
0.892,-1.525841764034993,5902.63373905656
0.896,-1.4676746882415257,5905.203175880765
0.9,-1.4517472181486042,5904.520949853621
0.904,-1.4828340585294286,5907.199930405546
0.908,-1.5476463922426287,5896.793890358482
0.912,-1.6232240088369414,5898.313188597401
0.916,-1.6845900086339913,5903.209536604899
0.92,-1.7091804132478965,5894.14126118405
0.924,-1.6785968002962213,5894.763478393094
0.928,-1.5796151406569856,5900.290747579598
0.932,-1.4055922524334923,5896.247570347887
0.936,-1.157973429795974,5896.130235065072
0.94,-0.8470951721947295,5904.045026774966
0.944,-0.4917642320677532,5891.033762352958
0.948,-0.11741997305663887,5905.577947788487
0.952,0.24693993700593223,5899.417755802736
0.956,0.5724450881215816,5899.8348009308
0.96,0.83396940557131,5900.8650210561045
0.964,1.0133238283276313,5903.285533036385
0.968,1.101755215110861,5901.996602462943
0.972,1.1011334968586837,5900.156346172056
0.976,1.0230031218368731,5896.4142030115
0.98,0.8853314749912002,5898.172839892728
0.984,0.7083240467192478,5905.153376414116
0.988,0.5118568187361703,5901.642160522497
0.992,0.31600612079860735,5900.6253403637
0.996,0.14275714104480094,5903.124336118056
1.0,0.014552145654845708,5894.172489535159
1.004,-0.05269003963762922,5900.086435019648
1.008,-0.059257396664474,5897.800812629247
1.012,-0.02751309302815441,5898.602260597681
1.016,0.0015315057914716255,5902.257819494272
1.02,-0.018697318763169865,5894.0666537816505
1.024,-0.1230454684526454,5906.085078616099
1.028,-0.3212788341953637,5900.689371585212
1.032,-0.5945817776893438,5901.8247884782095
1.036,-0.9022765015577091,5894.840128521061
1.04,-1.1941163636659922,5904.516448474372
1.044,-1.4221174165840806,5900.7844347228565
1.048,-1.5481453711740718,5892.786912222532
1.052,-1.546857733467859,5903.725064245179
1.056,-1.4057668225037183,5895.24761113996
1.06,-1.124606415341867,5899.096503209946
1.064,-0.7155200927136481,5893.911657748282
1.068,-0.20447591704223247,5901.903766960743
1.072,0.36698498972919275,5890.599629511979
1.076,0.9418102751773162,5899.678789708371
1.08,1.452018283748188,5901.431960346282
1.084,1.829279631584473,5888.902988586288
1.088,2.0196066014675007,5895.223341218165
1.092,1.9966581958029468,5899.588478794994
1.096,1.7675814682064928,5890.614548917439
1.1,1.369056477158134,5896.93622021872
1.104,0.8567528019780766,5894.207181701755
1.108,0.2943601738854226,5897.27935579818
1.112,-0.2533966465659422,5905.853043206572
1.116,-0.7239082555413806,5899.599162451793
1.12,-1.0597165824419255,5900.2705612952905
1.124,-1.2152157969715502,5896.925844783495
1.128,-1.16744532541402,5904.196345317964
1.132,-0.9269512001989788,5892.8397876744375
1.136,-0.5423055983507041,5904.2310005440295
1.14,-0.09354670725997881,5903.650558532172
1.144,0.3251755827105341,5906.192915709644
1.148,0.6281146950742136,5895.900002457474
1.152,0.757545810903329,5898.349419293756
1.156,0.6942168046907908,5902.27562429189
1.16,0.45691448868565254,5905.320084020327
1.164,0.09377277039572082,5903.109744902352
1.168,-0.3301731486354474,5896.821212987425
1.172,-0.7455073754796655,5898.984322056525
1.176,-1.0894823952741661,5901.717390770589
1.18,-1.3155042953774103,5901.676227714423
1.184,-1.4005576545635556,5897.382073685081
1.188,-1.3487112673433155,5901.238487365866
1.192,-1.188689336679149,5897.847163173496
1.196,-0.965339916128554,5893.385917791307
1.2,-0.7271135176600729,5901.495957430448
1.204,-0.5127298515344771,5893.453953691778
1.208,-0.34045261334991833,5904.72543629003
1.212,-0.20354536202101078,5897.140702212977
1.216,-0.07452348339626857,5895.788964412196
1.22,0.08211985065093332,5894.003213703343
1.224,0.2926430759249426,5893.076956497673
1.228,0.5585640623708548,5891.084155576848
1.232,0.8494467196091637,5898.325124657445
1.236,1.1078581399112357,5896.705722923313
1.24,1.2655327918748753,5889.953886195175
1.244,1.2651073573449982,5887.85285444037
1.248,1.0797091539319634,5905.111582719804
1.252,0.7237064350298998,5899.015967572325
1.256,0.2511750613133707,5908.098982648618
1.26,-0.2573800850366185,5903.508571312896
1.264,-0.7160541289871794,5896.748077285995
1.268,-1.0557955933728165,5898.328141508065
1.272,-1.2405954873450078,5896.186835154522
1.276,-1.2727276319763092,5893.941623246767
1.28,-1.1868367431462299,5893.605678730597
1.284,-1.0365435021340847,5898.305947161413
1.288,-0.8785162097625001,5893.586917264417
1.292,-0.7580616752650197,5899.530902198858
1.296,-0.6984960574984348,5895.566808183541
1.3,-0.695334893022962,5900.927443418395
1.304,-0.7164049524247478,5906.773493181326
1.308,-0.7094127298650535,5891.854323412353
1.312,-0.6174844529252691,5902.597520790421
1.316,-0.39989514033791096,5900.590330502342
1.32,-0.05130011104822155,5899.403556374448
1.324,0.38845084401676255,5898.645555348689
1.328,0.8388419112738423,5896.904100089523
1.332,1.197192819206713,5900.609410667331
1.336,1.3661779046991804,5906.3521129496885
1.34,1.2827147088268513,5899.660766100672
1.344,0.9395506251325416,5900.588796891633
1.348,0.39177544640103795,5900.3745969465135
1.352,-0.2557551049137128,5900.112053157853
1.356,-0.877428289723946,5895.490726680854
1.36,-1.3624527298277118,5908.03528453552
1.364,-1.643740310334805,5895.948344058955
1.368,-1.7101899418230322,5892.8940691780845
1.372,-1.6007185121982392,5899.051620698004
1.376,-1.3858353718407963,5899.218320180805
1.38,-1.1450795271959644,5898.762630531527
1.384,-0.9468118326526292,5896.851623064362
1.388,-0.833745414749899,5899.488085343977
1.392,-0.8153906461927395,5896.640308337174
1.396,-0.8677265769071805,5896.561468970423
1.4,-0.9402718252506019,5902.37896801942
1.404,-0.9702636427867518,5888.144356188827
1.408,-0.9019155024276934,5901.833950589051
1.412,-0.7058524465786163,5893.900405969447
1.416,-0.3917081576280964,5894.095170945789
1.42,-0.007950160318850041,5889.684064709336
1.424,0.37211652637281395,5892.962937502797
1.428,0.6729156487926642,5890.737366459916
1.432,0.838616856256925,5897.782144270169
1.436,0.8463716471751445,5890.169647993116
1.44,0.7073607728993305,5892.621725186184
1.444,0.45801249764879526,5902.197351524386
1.448,0.14742778733655168,5903.632016316781
1.452,-0.17287293281746471,5899.889089016154
1.456,-0.45395975906428176,5888.63813377917
1.46,-0.6508184255601926,5900.771339748473
1.464,-0.724198591251778,5905.532956279966
1.468,-0.6459309444088827,5887.944340501972
1.472,-0.4068330259484159,5901.203566144397
1.476,-0.023465909246369435,5896.201939051439
1.48,0.4599822222493468,5893.859178055855
1.484,0.9763617970544309,5893.200504166284
1.488,1.4460739344771265,5895.797083535396
1.492,1.7912582379385549,5897.198136025323
1.496,1.9511825386666812,5901.898493867411
1.5,1.8963020537577127,5902.984781661771
1.504,1.6378247386100209,5896.749527805333
1.508,1.2290831379482006,5897.630105566563
1.512,0.756132813975009,5895.357308255555
1.516,0.3184520846518195,5903.736113129688
1.52,0.004952072990424208,5901.386699344987
1.524,-0.12710468673293693,5911.726364542422
1.528,-0.06381534265692188,5896.74817187166
1.532,0.16575162187746972,5894.450960169248
1.536,0.5004979801173836,5902.1935320850525
1.54,0.8641877638286534,5911.108616209631
1.544,1.1828235449393425,5904.598234381756
1.548,1.3981810331067837,5887.564868999412
1.552,1.4753968045041526,5897.163870105664
1.556,1.4049375369455783,5897.732385468
1.56,1.2008924554128328,5901.723421129768
1.564,0.8973518731456832,5900.039434168843
1.568,0.5431580047716104,5901.782776640077
1.572,0.19434949765530063,5897.614854134569
1.576,-0.09575578387435683,5893.891042031074
1.58,-0.28726556015788385,5898.112584919137
1.584,-0.36229988192520995,5902.954779170094
1.588,-0.32841790103002255,5889.355077373429
1.592,-0.21505319713123114,5902.748030066833
1.596,-0.06336888320368401,5896.922894186559
1.6,0.08738629493879291,5894.437165031152
1.604,0.211914879106939,5901.990794132946
1.608,0.30422593309259893,5885.157269394232
1.612,0.374011129991697,5897.5412826812
1.616,0.43615936389454996,5898.68980375335
1.62,0.4991734195562025,5898.662502243184
1.624,0.5588869231810335,5891.976164636444
1.628,0.6005598187987181,5889.980756605867
1.632,0.6068661650667432,5891.327788989521
1.636,0.5659405135803455,5894.8829495712325
1.64,0.4755677289192449,5890.962704562405
1.644,0.34413251237884235,5902.108905733269
1.648,0.1907590607640857,5898.271417945979
1.652,0.04499051961171478,5900.686790499665
1.656,-0.056085696676753775,5895.715929652156
1.66,-0.07517800558565366,5889.957063372803
1.664,0.014103500034371889,5896.739948694563
1.668,0.21620917206931797,5892.168507413975
1.672,0.5080741630339325,5899.142432967723
1.676,0.8429129099989536,5902.245154620489
1.68,1.1629875587223393,5885.237576600795
1.684,1.4162617245346234,5902.022133245815
1.688,1.5700701657151503,5898.096032645702
1.692,1.6172587118701722,5902.1164495295325
1.696,1.5742481803395474,5900.877267882388
1.7,1.4729537454971076,5891.878741735102
1.704,1.3492388103127755,5898.6993292421885
1.708,1.2314288008001957,5901.431145061024
1.712,1.1333839988065597,5896.979529474115
1.716,1.055507310926185,5896.344257942793
1.72,0.9929551254079043,5894.6863195637925
1.724,0.945896379801902,5888.466251720402
1.728,0.9255796109560273,5893.51506081175
1.732,0.9527359337119495,5898.863054960951
1.736,1.0486964292097154,5890.217284285237
1.74,1.2222457745763584,5893.747874559142
1.744,1.4568888396758999,5900.014926586478
1.748,1.7043664164300527,5898.003610134125
1.752,1.8895851247236721,5900.160276418518
1.756,1.9281932821259589,5900.772957195205
1.76,1.752152300319443,5910.856257075906
1.764,1.3344537932357812,5901.371292627074
1.768,0.7041141711477398,5904.67067089332
1.772,-0.05400238756588128,5895.132998002265
1.776,-0.8154037845768809,5890.211432328266
1.78,-1.4446917538438677,5903.673998261073
1.784,-1.8294677502567707,5896.940017230751
1.788,-1.9098031804771722,5896.347172777359
1.792,-1.6939692286190284,5898.473426530999
1.796,-1.2547187291033703,5893.799035905254
1.8,-0.7068134162768829,5899.156865437688
1.804,-0.1734323206387289,5895.609420421086
1.808,0.24679671738451775,5895.984415440206
1.812,0.5012230011100132,5892.309285755448
1.816,0.5872820240043666,5899.4357044089
1.82,0.5405056418093049,5899.199680189345
