时间(s),电压(V),幅值(高频80K)
0.0,-1.5133865936031674,5890.632763319244
0.004,-0.5629412157252763,5903.446891570176
0.008,0.279452818812795,5895.185423872338
0.012,0.9275579031701097,5897.857659439111
0.016,1.3295131381464367,5908.9150830728895
0.02,1.4724871903415544,5903.760146888907
0.024,1.3784303354675838,5897.902726647643
0.028,1.0952064412571327,5899.720782785249
0.032,0.6867897491503075,5897.73880309795
0.036,0.2248017938281276,5900.868547626885
0.04,-0.21794931389832592,5905.584954580669
0.044,-0.5732151186291329,5904.308341287252
0.048,-0.784840402845243,5894.2770188427085
0.052,-0.8192722719613483,5907.178739843683
0.056,-0.6764675771577284,5901.253100798798
0.06,-0.3952123073224814,5904.558538584812
0.064,-0.04710856226242459,5902.051553521225
0.068,0.28163495972398594,5899.96404089059
0.072,0.5146503390503128,5897.6209256415
0.076,0.6064878862185249,5902.821007605373
0.08,0.5530797985803144,5894.646994903511
0.084,0.3898665431455493,5905.053221629366
0.088,0.17972110330358823,5899.303912006238
0.092,-0.005702987354704825,5897.582837351083
0.096,-0.10605179154119367,5894.449302845186
0.1,-0.08721584313496399,5898.002393694759
0.104,0.053776265693687916,5893.423116848872
0.108,0.29364038264568415,5899.130218532812
0.112,0.5924736296599005,5906.538460071013
0.116,0.9028979076073962,5898.942068938857
0.12,1.1772212677256375,5904.561006088298
0.124,1.3743778304793044,5904.75686428461
0.128,1.4677048494925242,5893.456547807935
0.132,1.4513682986128598,5902.662646193372
0.136,1.3419016610664387,5894.822862605089
0.14,1.1737024383415922,5908.1696062565225
0.144,0.9903798415848546,5906.69400886186
0.148,0.8343207443161792,5898.070114085141
0.152,0.7359272431695201,5901.779925666686
0.156,0.7044640841887063,5899.110720487766
0.16,0.7237610113899358,5902.637356652128
0.164,0.7555033561133956,5901.435416818447
0.168,0.7500488950741561,5891.829978367076
0.172,0.6616025358057149,5901.191574372875
0.176,0.4630198525497118,5906.748738996681
0.18,0.15576201998512543,5899.182391921336
0.184,-0.22816819677955844,5898.33287920872
0.188,-0.6333457647087485,5894.016461914235
0.192,-0.9950942066167677,5893.367862370026
0.196,-1.2560745937167292,5901.428802318021
0.2,-1.3801737536414105,5901.7181891775845
0.204,-1.3599545001053908,5908.555614284885
0.208,-1.215818105207883,5895.3669122561205
0.212,-0.9871795943832825,5895.045817138092
0.216,-0.7186371151150797,5900.462807643599
0.22,-0.4465433250491275,5897.629725795722
0.224,-0.1918168673776858,5905.189424823314
0.228,0.03794616234133582,5891.935863995319
0.232,0.2389075203574581,5903.235300558313
0.236,0.3999015290918769,5905.880550579996
0.24,0.49689254230211916,5897.981600421442
0.244,0.4978123576633812,5909.295357272349
0.248,0.37751993335497713,5900.455156702622
0.252,0.13652726658838185,5902.449824964289
0.256,-0.186581723846217,5902.169737836263
0.26,-0.5175653693116906,5891.551473559874
0.264,-0.7654343253509733,5900.52468507505
0.268,-0.8511279244374969,5905.375818139651
0.272,-0.7346558450398951,5896.89029320583
0.276,-0.4306025871865867,5902.452137224632
0.28,-0.006494544141208833,5900.524128401489
0.284,0.43573929042224097,5903.515677937243
0.288,0.7889716534313856,5904.183426964729
0.292,0.9704640437183497,5897.170003176148
0.296,0.9421871852180246,5896.345811092267
0.3,0.7167917845935345,5907.107795086251
0.304,0.3492853828992254,5901.609711246636
0.308,-0.08169738888319536,5900.872249429732
0.312,-0.4965526451059996,5902.500424538284
0.316,-0.8337734603778378,5900.668528937645
0.32,-1.0594401765537946,5891.433089424672
0.324,-1.1655118292235065,5891.494013419207
0.328,-1.160714456617212,5894.760298143305
0.332,-1.0607855051387165,5896.793699946827
0.336,-0.8831044820928539,5900.231921006644
0.34,-0.6462448326446363,5906.831479510088
0.344,-0.3716808051314233,5902.553135061515
0.348,-0.08438695308951792,5895.370064388139
0.352,0.18952790542129788,5899.2169156391765
0.356,0.427727602799354,5900.087588237488
0.36,0.6165457811535695,5901.430481671837
0.364,0.7528496394092603,5899.191131776466
0.368,0.8416214025274639,5894.646556669126
0.372,0.890876228840474,5895.757646542762
0.376,0.9073802401240212,5900.017279542255
0.38,0.8958428448881971,5898.951409963877
0.384,0.8613543179022417,5904.505218483718
0.388,0.8123301275539421,5897.002054919996
0.392,0.7610211762986985,5906.28855054083
0.396,0.720562129881374,5897.131247665838
0.4,0.7001861111496918,5900.0851348108845
0.404,0.7018541832208428,5895.315267684656
0.408,0.7206143838671354,5887.252983635447
0.412,0.7480514620468129,5905.342263169332
0.416,0.7759706572719168,5897.683703142019
0.42,0.7980009929393879,5899.1706677804505
0.424,0.8092113646290666,5906.7506664617085
0.428,0.805660302345656,5902.0707381944485
0.432,0.7856144128505468,5895.588214124193
0.436,0.7523468891883556,5893.942745729247
0.44,0.7164340703681151,5898.051657954499
0.444,0.6949530295297902,5903.159613675717
0.448,0.7066068184138862,5912.233257615618
0.452,0.7643947441332816,5909.980642142751
0.456,0.8689601112081456,5898.146235245273
0.46,1.0053488265994135,5893.429493475067
0.464,1.1446238614657525,5908.145615877867
0.468,1.250625063072622,5891.244418212444
0.472,1.2905843200263794,5907.476290294898
0.476,1.2460502736992307,5905.973351091751
0.48,1.1195808743529427,5895.435619220288
0.484,0.934536329491816,5905.326957581759
0.488,0.7286862432325825,5896.92077292889
0.492,0.5447480263688969,5898.692426062834
0.496,0.42133026475853247,5901.515850678149
0.5,0.38629311306691455,5897.672315309769
0.504,0.45239841322541724,5909.925477949348
0.508,0.6142149412051677,5896.739236705017
0.512,0.8465016777190707,5895.766860871989
0.516,1.1061565893075194,5901.6938490775865
0.52,1.3396985181115022,5906.391133746507
0.524,1.4955408502810108,5905.438756386517
0.528,1.5373229421447532,5899.9878891556045
0.532,1.4539363343288327,5887.631018909548
0.536,1.2635742504940997,5893.228261713802
0.54,1.0108923263274443,5903.080968759046
0.544,0.757089803687781,5902.0974558736525
0.548,0.563880819364906,5896.792149520055
0.552,0.47515059331430054,5900.015197302126
0.556,0.5027895435735633,5892.516273466399
0.56,0.6228772373342544,5906.728354605443
0.5640000000000001,0.7845105806173921,5890.393313132028
0.5680000000000001,0.9281681160510575,5895.531735234131
0.5720000000000001,1.0063620564126798,5899.832659797169
0.5760000000000001,0.9984916265140972,5904.028363030126
0.58,0.914595420402651,5905.531523283876
0.584,0.7876659117662826,5900.184706135808
0.588,0.6588874957984212,5894.699404626282
0.592,0.5623099189048915,5906.801203764329
0.596,0.5144362156480883,5893.819682151788
0.6,0.5113192612175566,5890.3401962819735
0.604,0.5328433214871224,5902.21227118973
0.608,0.5518301451709778,5902.595843846935
0.612,0.544510394755399,5900.099418348853
0.616,0.4987452948614158,5895.3865874688845
0.62,0.4173698696877325,5896.430978258869
0.624,0.31597131818262786,5896.371495816401
0.628,0.2164469160349521,5894.080600670693
0.632,0.1389082177860089,5901.657766541446
0.636,0.0947179237412118,5901.586944422423
0.64,0.08292844885847787,5909.157358303576
0.644,0.09113996834897095,5894.73116958282
0.648,0.09993891653547228,5903.446530768785
0.652,0.08872527353431348,5893.289442479748
0.656,0.04096904334442288,5907.17569597073
0.66,-0.05189701862164929,5907.458385961424
0.664,-0.18823150730357854,5902.6218492587805
0.668,-0.3562378344673283,5898.315821469822
0.672,-0.536809054133583,5899.196890577447
0.676,-0.7081340833465976,5900.202070705782
0.68,-0.8494558598290719,5899.619919803264
0.684,-0.9417896234405141,5899.064851087567
0.6880000000000001,-0.96605079978749,5898.913591451615
0.6920000000000001,-0.9017820041582639,5890.051805151706
0.6960000000000001,-0.7299510971882375,5898.613474057951
0.7000000000000001,-0.4404409086287422,5901.052095641162
0.704,-0.04093931676596704,5897.078712367848
0.708,0.4377434728722765,5899.437298198972
0.712,0.9430025488604691,5903.959387715764
0.716,1.4079615888904446,5907.748782754041
0.72,1.762468750308128,5904.941775793145
0.724,1.9447123444707402,5899.664448144352
0.728,1.9116306176652775,5898.179366078118
0.732,1.647243441757613,5889.998948896633
0.736,1.1683907081438267,5887.487058206226
0.74,0.5272015824523532,5893.51283349148
0.744,-0.19102479595451552,5899.410198649251
0.748,-0.8767181087534666,5904.028825394002
0.752,-1.413553130429467,5907.083696077195
0.756,-1.7032844474379674,5903.421756024918
0.76,-1.6917493461528474,5898.924173515095
0.764,-1.386963194742588,5896.345347517033
0.768,-0.8618538260547989,5883.812729120579
0.772,-0.23944766546012758,5894.399955847394
0.776,0.3357976131393556,5892.345123401305
0.78,0.7326232469874794,5896.265355705144
0.784,0.8639792668240867,5904.444425665497
0.788,0.7059788094491877,5909.491272502941
0.792,0.30022858931196933,5897.404781655561
0.796,-0.25985800271584925,5902.483001693866
0.8,-0.853723475665664,5902.548709614454
0.804,-1.3617377566114823,5898.594463881548
0.808,-1.688899291158415,5893.169107277468
0.812,-1.77884167271996,5891.446092274751
0.8160000000000001,-1.617255513597559,5902.899567284625
0.8200000000000001,-1.2277214774502099,5906.150146801976
0.8240000000000001,-0.6639780904219085,5898.048184326976
0.8280000000000001,-0.001085314780698345,5890.794632731966
0.8320000000000001,0.6741230712019027,5898.510841452519
0.836,1.2737938790719052,5895.248584294459
0.84,1.7206983268347575,5906.935820078381
0.844,1.958735979827183,5897.309506027097
0.848,1.959800691154451,5896.050905889111
0.852,1.7264809875777347,5901.454486021005
0.856,1.292238436233641,5897.366171168926
0.86,0.7199433477656436,5901.229249870427
0.864,0.096770067173371,5904.960260874626
0.868,-0.4774731257760046,5895.680805257557
0.872,-0.9085168772354956,5900.579552323558
0.876,-1.1276739662134239,5896.762374585415
0.88,-1.1068145156267293,5892.41924751502
0.884,-0.8630282930123264,5901.242689988989
0.888,-0.45191475960581534,5900.499791080122
0.892,0.04770884561531541,5898.907980167349
0.896,0.5529216362623185,5903.925070970583
0.9,0.9945716538371648,5901.781197278163
0.904,1.3294909885714878,5896.709631191015
0.908,1.5440520650590837,5905.03600363359
0.912,1.6485281178523432,5901.630549485805
0.916,1.6649960135651083,5897.2360421591
0.92,1.6141647777804948,5894.63363475832
0.924,1.5068022890423853,5897.636324713596
0.928,1.343015183655811,5899.025970524376
0.932,1.1188465564669923,5901.487167785845
0.936,0.8362792706284492,5897.298296610231
0.94,0.5111687017270676,5898.540354363511
0.944,0.17481039779928628,5902.028950987599
0.948,-0.13164183566655213,5906.538617938131
0.952,-0.3671942818865577,5901.11442455807
0.956,-0.5014254652603714,5892.256249363591
0.96,-0.5219356635031666,5897.475301236664
0.964,-0.43702474643024675,5896.96356670559
0.968,-0.2737207484875126,5899.011718113258
0.972,-0.0728336648414158,5904.367450343625
0.976,0.11743382820589245,5897.286303430572
0.98,0.2492985015315372,5896.616592648958
0.984,0.285223064019943,5899.245976406625
0.988,0.20886940057893036,5893.500042808183
0.992,0.033981239696922905,5898.679292297196
0.996,-0.19332700315663004,5905.807172072295
1.0,-0.4025978140007009,5896.415361913816
1.004,-0.5176976069930823,5889.708591286276
1.008,-0.4815537151979771,5894.09181323611
1.012,-0.27868739723285824,5899.79023028523
1.016,0.05321523347599167,5891.906134065543
1.02,0.4285469883938913,5900.243693334111
1.024,0.7362250371350871,5896.889856105827
1.028,0.8732532305416943,5898.835365040157
1.032,0.7784031158397534,5904.446190697091
1.036,0.4541871338982285,5902.610742296804
1.04,-0.030642458816432162,5896.470937727131
1.044,-0.5586511106899001,5892.044375109855
1.048,-0.9951045641810364,5895.457946570227
1.052,-1.22330647436939,5903.909032957708
1.056,-1.1741287867995893,5897.511354108964
1.06,-0.8427983206330643,5911.330830847811
1.064,-0.28991119037170904,5889.274032063211
1.068,0.37276555451288423,5892.4537633601685
1.072,1.0081190513078653,5898.479339446275
1.076,1.4847816674377647,5895.87760250601
1.08,1.7054857405745143,5895.359938464884
1.084,1.6257438663081007,5891.922065423829
1.088,1.2594456422258922,5903.368255217633
1.092,0.6717846301471909,5903.768702610723
1.096,-0.037458954582691106,5898.202122328992
1.1,-0.755702163193087,5897.128508942848
1.104,-1.379106520999275,5894.142599195344
1.108,-1.829297967330348,5899.230970078518
1.112,-2.0629678459724055,5894.656366378583
1.116,-2.074449382337563,5901.8037490965335
1.12,-1.8923137039809854,5905.467008553866
1.124,-1.5710605559070943,5899.063036123496
1.128,-1.179323330765281,5894.562993339518
1.132,-0.786559032824855,5910.040791371102
1.136,-0.45049161804675136,5899.022026388318
1.14,-0.20781630534305226,5898.702137764604
1.144,-0.07052258668458125,5888.275380813939
1.148,-0.028689296274283363,5904.785327433102
1.152,-0.05792856318172003,5903.991017822984
1.156,-0.12777119751396768,5893.135729008586
1.16,-0.2079565209876769,5902.9329639913685
1.164,-0.2720895382498928,5902.155299838814
1.168,-0.3001445838833743,5902.733442206667
1.172,-0.28150843741582837,5888.899181285526
1.176,-0.21872547432755268,5897.2581921748015
1.18,-0.1297821334063037,5894.736018207725
1.184,-0.04565841351726074,5898.500043464708
1.188,-0.0017206069553334974,5894.919248715295
1.192,-0.02561859786922563,5899.7255697682485
1.196,-0.12749738277495304,5898.316742872683
1.2,-0.29738751611431574,5902.99192544784
1.204,-0.5096651516196813,5897.445290165492
1.208,-0.7296408586230059,5900.325454350513
1.212,-0.9174321023473767,5899.494837594167
1.216,-1.0293821802643037,5900.5256931779
1.22,-1.0219004312106625,5906.84294543429
1.224,-0.8613101553767221,5893.763834780117
1.228,-0.5370132555348098,5902.468601744151
1.232,-0.07043969396419572,5898.83527383896
1.236,0.4863201177862063,5897.142615160004
1.24,1.0621652756043964,5887.428481642463
1.244,1.5833339313941222,5904.80822108983
1.248,1.9875653286580597,5894.6537205196055
1.252,2.2321608243625493,5901.180931980116
1.256,2.2966932759173044,5891.824510259175
1.26,2.1839766152225426,5893.085014062997
1.264,1.9217516068953255,5895.825360958188
1.268,1.5633891684962438,5892.851431218306
1.272,1.1828407488014674,5893.035558462526
1.276,0.8607501115007891,5903.601909481285
1.28,0.6644205925577097,5888.358605717894
1.284,0.6294975544518098,5902.978774875404
1.288,0.751285923189325,5895.531062037177
1.292,0.9883636977917654,5900.694403376903
1.296,1.275022613898083,5902.058387449203
1.3,1.5368113829742454,5899.219862841432
1.304,1.7053147923080132,5906.006384032567
1.308,1.7308324445876462,5896.431938785888
1.312,1.5923947135486036,5896.142754447918
1.316,1.30392371180972,5903.079728922035
1.32,0.9145073636745411,5901.396815498501
1.324,0.5006115079707439,5903.431860374455
1.328,0.14958626366838085,5901.407471141723
1.332,-0.06276698244904032,5895.083384799875
1.336,-0.09421559411246423,5896.3978186443865
1.34,0.04985118311443998,5895.038769779761
1.344,0.3155662732848246,5899.984176877769
1.348,0.6136888929442011,5891.014358085917
1.352,0.8433606000240942,5895.493505702148
1.356,0.9206180205932408,5889.0537038028
1.36,0.8040665561249668,5892.621177579307
1.364,0.5094975066764382,5905.761090605327
1.368,0.10744231853190579,5890.35333255775
1.372,-0.29657444746831335,5899.200641739672
1.376,-0.5925226671463206,5896.477097594715
1.38,-0.6967870405996538,5895.762249946745
1.384,-0.5742447401751543,5896.403141351909
1.388,-0.2462812514058054,5899.5185399533
1.392,0.2160263279864149,5896.775032908648
1.396,0.7108417448789744,5895.843833280825
1.4,1.131663563398711,5892.569981364727
1.404,1.3944295341514952,5891.571448341333
1.408,1.458871964719559,5888.430275753975
1.412,1.3376996580719667,5897.824950839447
1.416,1.0898763421869302,5902.043313926386
1.42,0.7995266233335683,5896.974455502743
1.424,0.5475326336675234,5894.583251208586
1.428,0.3859828288072691,5897.386889997779
1.432,0.3248661006735401,5901.534977478184
1.436,0.3355130967684395,5903.218930794505
1.44,0.36793239328723065,5893.076134370215
1.444,0.3731089558494222,5899.343586396383
1.448,0.3198776236823772,5904.490626435663
1.452,0.19984973447632323,5889.499619578891
1.456,0.02092094326693021,5902.385160831001
1.46,-0.2039590036960866,5903.410941712429
1.464,-0.46456844301149514,5891.713463767485
1.468,-0.7531909641324316,5900.902788014503
1.472,-1.0577064804621887,5896.110111255876
1.476,-1.3538689485813757,5907.473444851937
1.48,-1.6035577071918476,5894.397088064809
1.484,-1.7625407320204252,5896.045473983876
1.488,-1.795585896436866,5891.288282973834
1.492,-1.6920232278299139,5896.888457986232
1.496,-1.4740623062369027,5902.374355718997
1.5,-1.1936184458615597,5901.738463669694
1.504,-0.9185618652617484,5902.156429427088
1.508,-0.7131578858742467,5895.835592974589
1.512,-0.6190954967465081,5900.992045119591
1.516,-0.6435120652688485,5894.460810155767
1.52,-0.7587153738956581,5900.602008398418
1.524,-0.9143927172054086,5902.728255002468
1.528,-1.0580566090467907,5898.334916763162
1.532,-1.1558158789676438,5895.108498188391
1.536,-1.205167042787925,5909.096943262003
1.54,-1.2344996727720354,5893.674720043427
1.544,-1.289243830797488,5902.717679273478
1.548,-1.410102422036664,5893.24396957111
1.552,-1.612143156657141,5895.956107111982
1.556,-1.8730208110405893,5895.093216534212
1.56,-2.134745154491187,5899.847908840424
1.564,-2.318260717871316,5901.863638770306
1.568,-2.3457894041599343,5899.252007667442
1.572,-2.1638981623482842,5898.9225300084245
1.576,-1.7610094312668032,5897.102265858111
1.58,-1.1753321912407422,5909.390184799244
1.584,-0.491128715517108,5901.695561982771
1.588,0.17712717247221096,5895.058023289583
1.592,0.7103096217994774,5901.852876152931
1.596,1.0138424377696693,5897.229087437568
1.6,1.0423625239201058,5900.668492649628
1.604,0.8123895506910013,5899.60833302148
1.608,0.398456515075911,5898.300990704644
1.612,-0.08729080082119121,5898.27899327712
1.616,-0.5264456545237228,5899.885891986723
1.62,-0.8266808795872775,5903.236542410945
1.624,-0.944582260359961,5901.7375096256255
1.628,-0.8923157238138841,5896.47239523973
1.632,-0.7275066647374309,5895.917316934755
1.636,-0.5310262433078952,5900.368982174334
1.64,-0.38044562091293943,5897.192154282616
1.644,-0.3274734872540264,5897.751928385044
1.648,-0.3854433001378987,5898.796881150788
1.652,-0.5284608051114993,5901.575989910728
1.656,-0.6999323954344412,5893.883343801695
1.66,-0.8272373627839552,5902.302582651522
1.664,-0.8400973965892587,5898.64689603559
1.668,-0.6899071670649604,5899.251565947564
1.672,-0.3655452500840038,5898.012526018016
1.676,0.09972956591253461,5901.877542802276
1.68,0.633886876922123,5898.008521182445
1.684,1.143617203164603,5901.725832507313
1.688,1.5383808631967444,5889.252559710169
1.692,1.7528276358120851,5904.708774383011
1.696,1.7601760954091112,5892.0898814944285
1.7,1.5735097799634656,5898.120770041257
1.704,1.2374205087082617,5894.182747628569
1.708,0.8155747842889632,5896.59311227385
1.712,0.37902424762658393,5898.560649640677
1.716,-0.002991360971282418,5897.98291442722
1.72,-0.27043327710806847,5902.790059186009
1.724,-0.37917872919443246,5891.115571046177
1.728,-0.3074326438339237,5904.178760930504
1.732,-0.06107698631824109,5891.339078543709
1.736,0.32405043094020386,5892.272439826817
1.74,0.7855340163661029,5891.795274027876
1.744,1.244869298082151,5899.16816361874
1.748,1.6237323908614734,5899.47669943378
1.752,1.8616234723645844,5897.19674575284
1.756,1.9291167710911106,5892.0067589498585
1.76,1.8324426877423303,5896.968649785688
1.764,1.6084105683615166,5911.657946736786
1.768,1.311897914603252,5897.401765650555
1.772,1.0004893395608345,5892.4698769914
1.776,0.7216840970613355,5896.800027164901
1.78,0.5063950708156126,5883.68754432693
1.784,0.3688129012988402,5897.126435243158
1.788,0.3096008422100605,5895.716168728544
1.792,0.318880301284477,5897.356302364704
1.796,0.37753374924885236,5893.35588613138
1.8,0.4580598439280483,5898.872299588465
1.804,0.5272402190868299,5897.699601016289
1.808,0.5516076461892184,5886.115672935803
1.812,0.5045616773490004,5897.39568812256
1.816,0.3725391881276411,5898.063263105129
1.82,0.15763310179717477,5897.224110626402
1.824,-0.12438387323277837,5899.7659892304255
1.828,-0.4492775108242797,5903.635654581823
