时间(s),电压(V),幅值(高频80K)
0.0,0.9533127282298285,5895.691346181246
0.004,0.37062424179729075,5900.359672983152
0.008,-0.1475900820164556,5901.500826340053
0.012,-0.5397364726294138,5909.648516012413
0.016,-0.7580533612329868,5893.046797736905
0.02,-0.7759312510613793,5895.024912183599
0.024,-0.5931645520866021,5906.365451942774
0.028,-0.2382028018849794,5897.528802026975
0.032,0.23249215835552417,5893.146369667479
0.036,0.7386623499122194,5900.811576894815
0.04,1.1862180896709469,5898.080946622581
0.044,1.4842696361671255,5902.674968760612
0.048,1.5663959844711062,5900.626091137707
0.052,1.4087870693841422,5899.543450484486
0.056,1.0372808668994575,5898.77659270947
0.06,0.5200925937457909,5900.773924747418
0.064,-0.050218581224866526,5896.535293104952
0.068,-0.5784410847343266,5886.949037741461
0.072,-0.9859929111749212,5894.051498404056
0.076,-1.2243446836839484,5891.337856941409
0.08,-1.280722085780318,5899.141913053533
0.084,-1.1755186758045377,5897.741974604818
0.088,-0.9531961491419458,5907.080089274223
0.092,-0.6704982751102102,5901.141996692206
0.096,-0.3853158675691024,5906.811627921122
0.1,-0.14736081279047986,5901.936348747121
0.104,0.009032548382739614,5911.867986931916
0.108,0.06878832436544419,5897.885071666966
0.112,0.03572181920347785,5900.400824632832
0.116,-0.07070340583007041,5906.855633971712
0.12,-0.2188235146519993,5899.716869327362
0.124,-0.36766289785665446,5891.44194052283
0.128,-0.4714262060642398,5898.097397174537
0.132,-0.48799460648574994,5897.813245888568
0.136,-0.3905163807823703,5908.996253854925
0.14,-0.1772212308553793,5900.498381041651
0.144,0.12624195410281067,5905.93702217106
0.148,0.47428008598180516,5901.680850881182
0.152,0.8157779352492248,5896.627207431387
0.156,1.1092311021786108,5899.398819161976
0.16,1.3328963395561926,5902.489762969026
0.164,1.4873737640856206,5897.546260438437
0.168,1.5908085693996037,5904.368356457875
0.172,1.6686137139533554,5908.783785083168
0.176,1.741449653097319,5893.988014679382
0.18,1.816779994536585,5899.771091809424
0.184,1.8883030800568745,5904.212877874991
0.188,1.9431025253274725,5899.783738316653
0.192,1.971371960496343,5901.93820933881
0.196,1.9721669980624654,5900.902251340684
0.2,1.9519145044615867,5899.673085866927
0.204,1.9176416213193574,5897.168616309014
0.208,1.8702102302868728,5895.790528796425
0.212,1.8022305697530339,5902.8037481685615
0.216,1.7018527529936316,5907.556645070112
0.22,1.5601324854392795,5903.078900529167
0.224,1.3781233786327312,5905.987203905253
0.228,1.1702827161881917,5890.998537042699
0.232,0.962277338401483,5895.084598014981
0.236,0.7835047441844634,5904.601725047077
0.24,0.6574465882454964,5895.504972641941
0.244,0.5945303661173275,5898.347380371773
0.248,0.590300162656717,5910.226578429664
0.252,0.627796723821583,5894.146477805656
0.256,0.6812695224464155,5899.329066226194
0.26,0.7199229360834792,5894.02528281179
0.264,0.7122860235572845,5908.845441816643
0.268,0.6313920095400087,5903.803972544578
0.272,0.45932038292772653,5899.964919022291
0.276,0.1893781207795834,5899.418330345576
0.28,-0.17418613638633273,5900.6369278423945
0.284,-0.6174394985200155,5904.009685728672
0.288,-1.117428396998963,5900.54482967668
0.292,-1.641539364333456,5898.730283041034
0.296,-2.145756474404348,5890.004341279704
0.3,-2.573348242384368,5901.18114522469
0.304,-2.8571587426393936,5901.265940198254
0.308,-2.92874927695764,5901.538298079316
0.312,-2.734613263989442,5901.923411741882
0.316,-2.2549443072494375,5896.882672876068
0.32,-1.5174599444249937,5905.3665949070655
0.324,-0.5997732827379219,5904.997779369889
0.328,0.3821050488505056,5891.569792185818
0.332,1.296716537094539,5899.555570352592
0.336,2.02530539592759,5901.214397926819
0.34,2.4870060415062047,5896.112105076094
0.344,2.6535361162099624,5897.116817792906
0.348,2.5491628229653127,5908.342502114205
0.352,2.2366905266381454,5902.349546102825
0.356,1.794946314356238,5893.328286174836
0.36,1.2958717495800594,5910.4126898925015
0.364,0.7889591721687307,5907.995879963138
0.368,0.2975205213080153,5903.0686392669295
0.372,-0.1736690127790786,5906.554656624511
0.376,-0.6241888136416383,5893.330623143669
0.38,-1.0438083672297729,5901.093792450439
0.384,-1.4038315709357942,5894.251205199115
0.388,-1.657147053900705,5903.501943837481
0.392,-1.747710712760012,5899.41444003392
0.396,-1.6273425250472877,5907.85814414911
0.4,-1.2746747675281171,5898.08766377353
0.404,-0.7093609079894454,5900.010173036194
0.408,0.004177229570412008,5902.716710313099
0.412,0.7652946460054533,5897.685301739027
0.416,1.455389347187802,5894.534953451551
0.42,1.9608597782694317,5897.233745443486
0.424,2.1956848091088528,5912.875689035182
0.428,2.119445056560387,5895.496539368862
0.432,1.7471537555458247,5904.726843360419
0.436,1.147918560308147,5894.447034189237
0.44,0.4313370672731915,5894.665478100355
0.444,-0.27629064055405145,5902.739676062547
0.448,-0.8604207837158246,5893.0989777612895
0.452,-1.2435998855081878,5897.734183205459
0.456,-1.4001615269359182,5890.281474643643
0.46,-1.356227524158622,5902.375410724095
0.464,-1.176160095166412,5903.145183223716
0.468,-0.9407794448165003,5904.383094448399
0.472,-0.7240253650072812,5902.88346439117
0.476,-0.5739746230229673,5905.731154255223
0.48,-0.5028567084615649,5902.991953292524
0.484,-0.48888347846857555,5894.852870593943
0.488,-0.4891874911915926,5899.255042926109
0.492,-0.45892267033193307,5895.455616028784
0.496,-0.36937976253380606,5903.93825423298
0.5,-0.21887272116668818,5904.613176741975
0.504,-0.03310155846626939,5897.144838049648
0.508,0.14441762949797507,5902.22132243604
0.512,0.26750537050387796,5890.551115118182
0.516,0.30175410836373795,5905.975003795425
0.52,0.23303826525353966,5893.82796734792
0.524,0.06844239982233599,5904.267937152937
0.528,-0.16840613569324395,5899.16748514819
0.532,-0.44431841514583964,5898.357839946541
0.536,-0.7236108839982602,5895.093922902974
0.54,-0.9740678216220208,5902.557583853998
0.544,-1.1704952279466418,5909.936585548153
0.548,-1.2950208647683932,5908.119224914155
0.552,-1.3355266183627537,5903.899472775979
0.556,-1.2853990025359152,5898.006923864784
0.56,-1.1464007633402005,5898.566932357087
0.5640000000000001,-0.9329962426002063,5899.735044372585
0.5680000000000001,-0.6744902607390416,5908.215511227845
0.5720000000000001,-0.4122114183214822,5902.141806300078
0.5760000000000001,-0.19134262088724502,5899.592709715947
0.58,-0.04960796138385591,5904.38669670734
0.584,-0.007020255107800233,5906.3202597853415
0.588,-0.06095152082369428,5905.352808067648
0.592,-0.18834438626423272,5901.359887814233
0.596,-0.3535360226175611,5894.115745765513
0.6,-0.518268749698011,5901.496915289882
0.604,-0.6505721704053952,5904.667129128507
0.608,-0.7302250111138863,5896.00057468148
0.612,-0.7499333520642568,5907.502768484077
0.616,-0.7132524143307319,5900.670385240662
0.62,-0.6315471053931851,5903.438363635816
0.624,-0.521766841833317,5902.8994654997
0.628,-0.40524558271534933,5895.830401515447
0.632,-0.306626339654874,5901.621889063894
0.636,-0.2517671758687052,5906.264078972309
0.64,-0.2638496982283869,5897.436335773245
0.644,-0.3577830260193211,5896.325044536697
0.648,-0.5342107389406338,5891.639759045542
0.652,-0.7753888091033614,5893.778955029818
0.656,-1.045309943496277,5903.407865125641
0.66,-1.2955653044394257,5905.417422180376
0.664,-1.4765463485775243,5902.876622495043
0.668,-1.5510074045985753,5902.80107788488
0.672,-1.5051712836931586,5911.593894223471
0.676,-1.3530562321697304,5893.657985564872
0.68,-1.1324195375609583,5912.868744283647
0.684,-0.8940188007298595,5902.46505380128
0.6880000000000001,-0.6880875173309922,5905.074993446373
0.6920000000000001,-0.5521985780701488,5908.29748048114
0.6960000000000001,-0.5035278577599093,5899.548064150962
0.7000000000000001,-0.5370294284327561,5902.4297054648205
0.704,-0.6294982592182887,5890.309861619516
0.708,-0.7476141259572323,5904.86544551004
0.712,-0.8565434302818379,5895.354498088621
0.716,-0.9260320007174281,5909.07803887451
0.72,-0.9332742428923967,5909.989983792903
0.724,-0.8642784768283349,5895.739279007127
0.728,-0.7157719036878886,5905.844738895255
0.732,-0.497522144503946,5904.881445094384
0.736,-0.23235155136645785,5901.074509983654
0.74,0.04898424179411701,5895.746559889415
0.744,0.31750061463685353,5896.668409903076
0.748,0.5554337343903227,5907.64677760531
0.752,0.7597168713377981,5901.510477006519
0.756,0.9377111118091305,5902.59449609632
0.76,1.0985929273388755,5897.927401007834
0.764,1.2455154146832925,5904.970433009625
0.768,1.3714058046359663,5911.8864458507005
0.772,1.4584539734246174,5897.243087735322
0.776,1.4808061016780445,5899.585365836624
0.78,1.4110606958421514,5894.227620413672
0.784,1.2308572983003743,5900.797989928135
0.788,0.9425982048855762,5906.51124667874
0.792,0.5758963228293367,5898.368543754802
0.796,0.18319725415522622,5907.55153118924
0.8,-0.17518445831023474,5900.139023963515
0.804,-0.4499682172320545,5897.877560854407
0.808,-0.6168731017224198,5910.66302113082
0.812,-0.6799280586321909,5903.744016951991
0.8160000000000001,-0.664359406013667,5900.580511588331
0.8200000000000001,-0.6040617986536806,5904.100622428356
0.8240000000000001,-0.5297884807472384,5887.2010379566345
0.8280000000000001,-0.4621107747963167,5901.880859809101
0.8320000000000001,-0.4101475332468402,5901.46393914066
0.836,-0.37471715711679077,5899.799512366705
0.84,-0.35307593544200067,5896.947800552308
0.844,-0.3419901946471935,5905.205859525342
0.848,-0.33749866076941426,5897.950643881478
0.852,-0.33287511351965027,5895.213334769257
0.856,-0.31828898033395986,5893.597445141589
0.86,-0.2845978351373387,5906.970727768568
0.864,-0.23053730687359408,5907.905156131104
0.868,-0.16940697625174395,5900.861949931995
0.872,-0.13005504924146963,5901.363425166447
0.876,-0.14905033827511294,5900.172772461118
0.88,-0.256003200363259,5915.088785015038
0.884,-0.45868978871921456,5902.817670299335
0.888,-0.7353971818459131,5897.863533054994
0.892,-1.0385071013613092,5898.970100246728
0.896,-1.308261825532968,5907.532417454691
0.9,-1.4913399516059207,5906.424632993785
0.904,-1.5567505260448955,5908.023621228676
0.908,-1.5024858528036331,5902.14840483368
0.912,-1.3504870623462482,5902.554863544765
0.916,-1.1333211703630264,5905.744845453659
0.92,-0.8802063788275963,5908.264603254172
0.924,-0.609588338606817,5899.455507956939
0.928,-0.33068922310887394,5906.291311373912
0.932,-0.05084619620019086,5899.946846520204
0.936,0.21740918248925384,5903.612317353747
0.94,0.45429226712191856,5894.8600037765855
0.944,0.6363530590273809,5900.679072749952
0.948,0.7427648929488108,5897.560608083848
0.952,0.7610657021505342,5905.759885955013
0.956,0.6911896915091601,5891.548251478767
0.96,0.5479286070354806,5903.250874444256
0.964,0.3611617860988954,5900.790895194256
0.968,0.17221771246163,5899.936214473535
0.972,0.02570963186883185,5902.268983235997
0.976,-0.04141041032022827,5896.973123969115
0.98,-0.01011379064539811,5897.051389326069
0.984,0.11464516610219799,5892.900931757357
0.988,0.30446021026378745,5894.570172487488
0.992,0.515162399520346,5901.742194047742
0.996,0.6997553733132349,5898.41827334727
1.0,0.8220464592076593,5900.049205956822
1.004,0.8652654170861478,5899.656526088704
1.008,0.8320918445325594,5904.369831277092
1.012,0.737445143516479,5900.965016953693
1.016,0.5994191384271169,5902.153574846502
1.02,0.43352461717806123,5896.225284080376
1.024,0.25194102789883166,5897.50141848163
1.028,0.06624561427019547,5896.8321550936025
1.032,-0.10929883083153437,5904.097933713875
1.036,-0.2566812940903782,5903.736358082902
1.04,-0.35669497229444064,5897.143932764601
1.044,-0.39427073700730547,5906.48380717871
1.048,-0.36387451028542833,5890.903202772276
1.052,-0.271840664761537,5896.35152243571
1.056,-0.13405497494266858,5904.0909612964815
1.06,0.029739339849545715,5894.633975556708
1.064,0.20166290578427476,5901.1506494859
1.068,0.3687042445638455,5905.795496732378
1.072,0.5228164568346955,5910.464848222011
1.076,0.6598664126336913,5905.040497934589
1.08,0.7792272975664121,5894.156335525505
1.084,0.884541296617282,5900.581848507527
1.088,0.9846096812493824,5905.03544641374
1.092,1.09242384423544,5905.678613725243
1.096,1.2210245955178938,5896.838186455119
1.1,1.3769838533446523,5895.570812922156
1.104,1.5542303798115435,5900.007318962729
1.108,1.731466561199413,5899.639639996659
1.112,1.8753367503405152,5904.813484935368
1.116,1.9489921861173924,5910.248963136556
1.12,1.9230357894827224,5902.292303752275
1.124,1.7850855633970026,5898.728372703888
1.128,1.545384271032848,5908.732255375384
1.132,1.2369551820678966,5898.813984110003
1.136,0.9093001788842862,5899.709393025961
1.14,0.6161320199597341,5898.177116852462
1.144,0.40034927445346924,5907.344844466122
1.148,0.28134994759208404,5894.586323292192
1.152,0.24912187140130257,5907.306168397115
1.156,0.26698855278278016,5898.888426773445
1.16,0.2823587293429535,5912.947227458199
1.164,0.24299791206803278,5899.673685936836
1.168,0.11463537778639275,5894.768838842862
1.172,-0.10542718385712196,5905.753349812441
1.176,-0.38344460811194525,5903.820168933328
1.18,-0.6557566169247908,5902.952089856302
1.184,-0.8466569870227919,5906.464997589959
1.188,-0.8935937206031609,5899.948349909995
1.192,-0.7708846639145663,5904.036403327005
1.196,-0.501468961349589,5897.861865401912
1.2,-0.15100703604587365,5900.558151146439
1.204,0.1928796298030312,5899.291374058376
1.208,0.4473833208972465,5906.557742030607
1.212,0.5578900624331912,5900.667203798999
1.216,0.5120294841553957,5893.355045011481
1.22,0.34268590206577904,5897.824613113685
1.224,0.12081410198836046,5906.370715210848
1.228,-0.06048296494511042,5900.345339211515
1.232,-0.10882830213557174,5913.471912781117
1.236,0.04142713278751754,5896.801843910631
1.24,0.4074505511668702,5899.559097772251
1.244,0.9491800919691611,5905.713095216832
1.248,1.5780324144136695,5904.7862096252
1.252,2.179718578167501,5899.430414654865
1.256,2.642661942607748,5896.254912502514
1.26,2.883373096635894,5902.586178401597
1.264,2.8625193033591363,5902.320148904119
1.268,2.5884827309183094,5896.640215943236
1.272,2.10906347803314,5904.869049790038
1.276,1.4957433679480399,5903.340020442582
1.28,0.8266109409243535,5909.982139398674
1.284,0.17296752279191643,5893.514673812014
1.288,-0.4080930366701427,5893.14767966239
1.292,-0.8755424716682961,5907.702439107491
1.296,-1.2027651199085865,5893.372594231825
1.3,-1.3748275219511148,5901.360357409728
1.304,-1.3864871431530006,5891.564528845636
1.308,-1.2416599970326,5898.269314387168
1.312,-0.9541365325628752,5902.71091821644
1.316,-0.5487784722973374,5899.042328169945
1.32,-0.06185853861247279,5904.991154629119
1.324,0.46131882683135667,5905.420545564071
1.328,0.9726749990744848,5910.995949608604
1.332,1.430087196650017,5900.781928033472
1.336,1.8045777411041841,5898.810280701838
1.34,2.081999396526763,5900.12173537125
1.344,2.258292635706413,5907.649505312073
1.348,2.3312504964408056,5905.665255210455
1.352,2.2940305001427115,5892.17119487151
1.356,2.135025745749705,5903.320277532608
1.36,1.8451903690151066,5897.761235810759
1.364,1.4294651760518333,5901.0519233272935
1.368,0.9163728583727738,5901.856286825438
1.372,0.36045521290819493,5906.362209578929
1.376,-0.16479090184164893,5909.584823126796
1.38,-0.5820329253471187,5898.370416749206
1.384,-0.8286966423046533,5896.90033406148
1.388,-0.8730236068017518,5905.015550927457
1.392,-0.7222563612794325,5898.679562241254
1.396,-0.42030519245415726,5897.425111178014
1.4,-0.03606010234053747,5896.860846994482
1.404,0.3535482968958546,5901.496192526111
1.408,0.6809146362112616,5894.263486493976
1.412,0.9014092437851945,5892.999792118996
1.416,1.0001343413464467,5908.115664337239
1.42,0.9903031190403584,5901.250433534508
1.424,0.9045349457187942,5903.729486820876
1.428,0.7827409732402582,5900.346649367888
1.432,0.6606025303667361,5906.284676532993
1.436,0.5612341776407753,5903.720954465724
1.44,0.4911691156779987,5907.372666933031
1.444,0.4412095137344728,5903.383827270501
1.448,0.39214522621237896,5902.128234200834
1.452,0.3237210785770942,5903.297310542483
1.456,0.22310738153734216,5907.181708733269
1.46,0.08878241471594298,5900.304121940973
1.464,-0.07159158904693465,5906.606875278536
1.468,-0.24689994037491714,5902.6713653104825
1.472,-0.4276699709133608,5909.146777551263
1.476,-0.6074386726033927,5900.423018953629
1.48,-0.7800937920352234,5904.273290880669
1.484,-0.9355258224100977,5898.275996588471
1.488,-1.0572542447969377,5900.6393063729065
1.492,-1.1250731488377654,5897.133806541571
1.496,-1.1231105103938759,5895.1518986325655
1.5,-1.0500667060839588,5906.742998422642
1.504,-0.9261085941022106,5897.519181726143
1.508,-0.7918303388641097,5899.364656762741
1.512,-0.6983574156093593,5905.238795128278
1.516,-0.6917881959505844,5904.386554723022
1.52,-0.7977380916607657,5902.365553185747
1.524,-1.011688800987673,5903.818820907094
1.528,-1.2980427601211815,5902.710231370957
1.532,-1.5970234541970054,5912.0730290933
1.536,-1.8366627436148861,5902.1032050871945
1.54,-1.9477043040319668,5898.670444873535
1.544,-1.8800425474965794,5911.180149390791
1.548,-1.6184068976951609,5901.380675364154
1.552,-1.1931520134658873,5904.228260518005
1.556,-0.6812404041466723,5899.618049489388
1.56,-0.1939988088953348,5907.518225188141
1.564,0.14802912980641186,5900.981388041536
1.568,0.24777519480511925,5903.731146063605
1.572,0.06210128428967684,5894.861030792104
1.576,-0.3810230747142071,5900.623852506955
1.58,-0.9860541048433445,5895.62125399486
1.584,-1.6141693404305526,5902.95602739168
1.588,-2.120880734952017,5904.932364439019
1.592,-2.395178960066708,5902.984631676179
1.596,-2.3881110706397,5898.297134155333
1.6,-2.1220924734892495,5906.413859932087
1.604,-1.6787234094179886,5899.237027068741
1.608,-1.1703336554196122,5900.51179343265
1.612,-0.7056658529286004,5901.176799448559
1.616,-0.36094172004014713,5898.021266867946
1.62,-0.1643200149953573,5899.62818891101
1.624,-0.09637265501531485,5902.277341793061
1.628,-0.10406016042065977,5899.975289175033
1.632,-0.12252523133996152,5902.802257121634
1.636,-0.0980661902724018,5897.368145512707
1.64,-0.00597303064432599,5902.615762210722
1.644,0.14196822300405235,5897.765587378515
1.648,0.3030084887833241,5912.615582050743
1.652,0.4206472857734145,5904.660275404704
1.656,0.44778014591386195,5904.6453068500405
1.66,0.3672037083137237,5898.275323010341
1.664,0.20086684081915823,5908.440624851322
1.668,0.0026318188052041006,5903.34264773012
1.672,-0.16403315752692219,5903.5778998889145
1.676,-0.2542280076274424,5903.20888045973
1.68,-0.2621097033739048,5907.9093480238425
1.684,-0.2231498635939441,5907.824735502246
1.688,-0.19706295749829567,5907.516221297756
1.692,-0.24031402808402064,5899.260640431338
1.696,-0.3816041222995176,5904.752063063183
1.7,-0.6109567598951664,5899.687812202
1.704,-0.8856109368265138,5900.009193782556
1.708,-1.1479639933918193,5902.808074476944
1.712,-1.3458992276261375,5897.541977905207
1.716,-1.4462702486880994,5902.110374601102
1.72,-1.4376107449686533,5900.8575203802175
1.724,-1.3245188506324894,5895.954906595052
1.728,-1.1194542481385465,5904.631496267185
1.732,-0.8368477574561087,5899.251649890382
1.736,-0.49144842424301644,5904.630637458932
1.74,-0.09997818398055466,5898.656141227281
1.744,0.31644648236254486,5904.614756933797
1.748,0.7315586595621071,5903.876383027205
1.752,1.1157381948326814,5903.121385038273
1.756,1.4397905860485027,5901.821720866693
1.76,1.680004025875718,5903.441816947426
1.764,1.824031449932034,5903.0799424423685
1.768,1.876200224751696,5895.460731314543
1.772,1.8593692209273447,5900.952226564558
1.776,1.8106183446614068,5905.187623724007
1.78,1.770621131795533,5903.169309138853
1.784,1.7699184011741464,5902.367057241257
1.788,1.8171989137824363,5900.0940241814005
1.792,1.8941986342936155,5896.523220532449
1.796,1.9596313238772007,5894.777210018124
1.8,1.9615326598677898,5900.280042301541
1.804,1.8543282135695212,5899.429960318998
1.808,1.6150665218949822,5899.629429153665
1.812,1.253477588490884,5904.8957704064605
1.816,0.8124996656985611,5901.963128642212
1.82,0.35881346584905555,5903.1403634539
1.824,-0.03395847558583581,5897.88098403696
