时间(s),电压(V),幅值(高频80K)
0.0,-0.9286956738845151,5901.513657984323
0.004,-1.1531269675974585,5902.164831122555
0.008,-1.3447932474186193,5900.268002445645
0.012,-1.468625947895157,5901.767272619218
0.016,-1.4913647127673026,5903.611731542036
0.02,-1.3893598029089431,5902.901381825465
0.024,-1.1572247922190473,5900.467674174309
0.028,-0.8126498961484075,5893.015623953963
0.032,-0.3948120143101462,5907.007054974452
0.036,0.04325207411131166,5896.417467754159
0.04,0.44599600382708027,5891.540175545003
0.044,0.7669614638632315,5891.4104702730965
0.048,0.9768322859260458,5893.898605140732
0.052,1.065801572261047,5897.714033677208
0.056,1.041233417856279,5891.3153814015095
0.06,0.9234341242506934,5893.728985455303
0.064,0.7414811927649779,5900.37363758997
0.068,0.5293477019204481,5892.891744312094
0.072,0.32200511023799544,5900.850738814438
0.076,0.15152788622831898,5905.220898070009
0.08,0.04357492598544175,5903.769820930836
0.084,0.014664233502510664,5898.304599227984
0.088,0.06995841511137296,5905.4815397865805
0.092,0.20028903580551347,5904.36980482588
0.096,0.3780144181181835,5895.168304290412
0.1,0.5546988908835925,5905.459557742321
0.104,0.6660438412433973,5900.492555547162
0.108,0.6469508949614088,5902.725699928468
0.112,0.4530006503713355,5895.42338749933
0.116,0.07950119685932847,5895.573484700142
0.12,-0.4303193068865666,5905.745205402212
0.124,-0.9917588867657432,5896.200570323609
0.128,-1.4985985186355788,5892.005516855463
0.132,-1.8516727689328354,5896.878692441308
0.136,-1.987532555773346,5899.09835185431
0.14,-1.8964801750588045,5894.430827376263
0.144,-1.6223690782359466,5900.557344123574
0.148,-1.2451850712876538,5895.956431679801
0.152,-0.8554346543571237,5901.10122213941
0.156,-0.5308818752361467,5899.921310157267
0.16,-0.3217276699576574,5898.91795505166
0.164,-0.24478468360579286,5894.0192504426695
0.168,-0.28453909737254013,5889.155357219365
0.172,-0.39963742367435223,5897.604923783613
0.176,-0.5346038493282878,5896.747613994349
0.18,-0.6357011413661547,5901.507278225544
0.184,-0.6670261404182761,5898.175275274841
0.188,-0.6210306974478398,5910.253743378234
0.192,-0.5188480985778721,5900.125320105928
0.196,-0.399583374403928,5897.574411316125
0.2,-0.3022432500847974,5903.814429023812
0.204,-0.2476958913875324,5907.137705394604
0.208,-0.2292677891810683,5906.669107561068
0.212,-0.21743197545825757,5895.302534904863
0.216,-0.17685405621178624,5902.154846156899
0.22,-0.08689235201055874,5898.174377594366
0.224,0.045427992458172826,5901.656186404498
0.228,0.18644731990259455,5896.299447909749
0.232,0.2896708264477546,5894.558474759456
0.236,0.31502924564480533,5901.489718523826
0.24,0.24472405945862347,5900.347321074504
0.244,0.08966622851102761,5901.657275601188
0.248,-0.11446090358887306,5902.816070770448
0.252,-0.31845279349057515,5908.275836074408
0.256,-0.47363397105051797,5892.880121115832
0.26,-0.5446219087567328,5893.471247195758
0.264,-0.517801766084836,5897.356051231146
0.268,-0.4037820542850873,5896.241208094213
0.272,-0.23348745533384435,5890.176168050646
0.276,-0.0490828679250475,5897.767017551511
0.28,0.107367485601123,5896.469739013573
0.284,0.20355990378556915,5892.391560216538
0.288,0.22197039001099095,5893.563856803625
0.292,0.16006677206676803,5905.25186901668
0.296,0.027978679017319267,5905.667829845564
0.3,-0.15386488915083846,5891.603043924115
0.304,-0.3564760251464336,5892.217953739185
0.308,-0.5449981636990484,5900.59093726293
0.312,-0.6843117369155376,5900.640473375373
0.316,-0.747403721364526,5898.043567540128
0.32,-0.7235765011943043,5893.533108914236
0.324,-0.6226346131907023,5896.725089941396
0.328,-0.47269041385218846,5894.642079937975
0.332,-0.3117943840794352,5899.94739460248
0.336,-0.17570766615353936,5903.36079392016
0.34,-0.08552583820479295,5899.911505220352
0.344,-0.039842589832886556,5899.934332746014
0.348,-0.01582511529610779,5896.784800876664
0.352,0.019658455234517504,5892.648787462309
0.356,0.09316311969437181,5899.481380243857
0.36,0.21022538033204938,5903.506353703956
0.364,0.35068321914513995,5893.8127262214775
0.368,0.4760433112739302,5900.4829138733685
0.372,0.5451933949614296,5898.528865610753
0.376,0.531150242167276,5894.803822714941
0.38,0.4318208037390227,5903.507179345759
0.384,0.27091575035641907,5899.758426205795
0.388,0.08910421942059361,5898.819705684837
0.392,-0.07105452762031449,5895.338986554661
0.396,-0.18070969829603245,5894.838551646387
0.4,-0.23502137891642272,5896.912354304766
0.404,-0.2542232221017783,5913.050258370912
0.408,-0.27477904850370516,5903.3184795437455
0.412,-0.3338411256895923,5895.425124418821
0.416,-0.45325139537651027,5893.093152825335
0.42,-0.6297331731951944,5895.609911123091
0.424,-0.8351608712022066,5904.712671248837
0.428,-1.026306034652241,5898.101710481269
0.432,-1.1595018737026916,5901.682601406988
0.436,-1.2039897336682073,5908.563739137866
0.44,-1.1490973154012898,5902.242764724755
0.444,-1.004053919772967,5903.319199145516
0.448,-0.7926587961575843,5899.750003338214
0.452,-0.5461941953056817,5907.959514590994
0.456,-0.2972779465492749,5901.631549076582
0.46,-0.07585520435847692,5897.393284262392
0.464,0.0934005233534615,5895.425027365087
0.468,0.1941759546296571,5892.647967376216
0.472,0.22251093376698042,5904.061661011844
0.476,0.1889300337646284,5904.67329824338
0.48,0.11518647755546836,5904.788001950074
0.484,0.025676669220957495,5899.679911718126
0.488,-0.06185385000980926,5901.473917479172
0.492,-0.14076462957987448,5898.695096755988
0.496,-0.21300069434329566,5910.884477685414
0.5,-0.28219729402494265,5897.369510064129
0.504,-0.3476272478074249,5896.265991069292
0.508,-0.40295620839320156,5902.349158680056
0.512,-0.4395708547271238,5898.110023354661
0.516,-0.45065562502940876,5900.768771599712
0.52,-0.43239682889046865,5896.190038384671
0.524,-0.382169087256329,5910.388498838769
0.528,-0.29687624799457146,5897.075704757764
0.532,-0.1748826099617067,5897.9184838466745
0.536,-0.02193198538731796,5904.700215004597
0.54,0.14253989113193105,5902.258898553686
0.544,0.28393234692087693,5898.315234448872
0.548,0.35885020047056065,5897.946947639799
0.552,0.3281089984451394,5901.351536061316
0.556,0.1722186110953717,5899.940095607476
0.56,-0.09557682252722487,5898.34527235828
0.5640000000000001,-0.4237290920872367,5901.417011945957
0.5680000000000001,-0.7289579568762824,5904.7284021258565
0.5720000000000001,-0.9165344481682709,5897.728502363775
0.5760000000000001,-0.9092673042226272,5902.923336199011
0.58,-0.6740944726178145,5898.736078393318
0.584,-0.2350151923431057,5896.698461967343
0.588,0.3322928333946425,5894.848831429106
0.592,0.9202978535016102,5894.312262899365
0.596,1.4152764287400896,5901.584164392004
0.6,1.7211481602456502,5893.085310939339
0.604,1.7775918423715875,5896.814943700615
0.608,1.5708476183290374,5895.524967861812
0.612,1.1356117506879913,5897.327464348941
0.616,0.5469997250598182,5905.446526577496
0.62,-0.09593648346882445,5899.326166923957
0.624,-0.6910223752749884,5893.835368949764
0.628,-1.1529978306871964,5894.551129153597
0.632,-1.4284950265138885,5898.148398105765
0.636,-1.503627211879182,5891.1628108210725
0.64,-1.4035757395847643,5899.841012789179
0.644,-1.184317420127861,5901.037563794571
0.648,-0.9175800832651585,5899.618161272164
0.652,-0.6722509455065282,5904.38540658093
0.656,-0.4974365496052244,5904.070042121527
0.66,-0.4121299601609168,5898.58627705653
0.664,-0.4038731247797378,5898.6033515109
0.668,-0.4356444559491818,5896.613187197383
0.672,-0.4582071333482621,5898.882612848797
0.676,-0.424826213029222,5902.120317879965
0.68,-0.3056570540051318,5901.35076639065
0.684,-0.09889842500886512,5895.727369831592
0.6880000000000001,0.16489567946918876,5902.345725605216
0.6920000000000001,0.42843713088835633,5893.51963234406
0.6960000000000001,0.6234413873618833,5898.287013084226
0.7000000000000001,0.6922889436029238,5897.426250496707
0.704,0.6080555284278472,5896.923073959473
0.708,0.3852564409087573,5895.87717472022
0.712,0.07709464248012471,5898.718279309165
0.716,-0.23989432567938948,5898.870485517444
0.72,-0.48860370817024273,5905.735326138269
0.724,-0.6142300200109049,5907.641734088149
0.728,-0.6002061136806652,5897.46261196664
0.732,-0.47229145509426895,5900.1951354439625
0.736,-0.28950403079176007,5891.832998126432
0.74,-0.1248453592680843,5895.872983646482
0.744,-0.04237225131974678,5896.366396846231
0.748,-0.07844606395602134,5901.504650964484
0.752,-0.23297173940066018,5895.518188779901
0.756,-0.47195841290529444,5900.460975003954
0.76,-0.7384086855930003,5899.034771657776
0.764,-0.9669037412976439,5898.30511415846
0.768,-1.098465256116984,5901.111505288743
0.772,-1.093964500803353,5896.15444507264
0.776,-0.9441721090681793,5893.880208103531
0.78,-0.6731659692585922,5896.046344033436
0.784,-0.3323166930420042,5894.7537543097
0.788,0.01428317031776086,5896.153708900549
0.792,0.30783763995007907,5895.939551246801
0.796,0.5096175261176296,5900.730402847914
0.8,0.6075541238487409,5896.535456427692
0.804,0.6134647128160619,5907.733166189554
0.808,0.5536111819439152,5895.068333599282
0.812,0.4576654823207715,5903.310776018046
0.8160000000000001,0.3509370838268196,5901.725804107953
0.8200000000000001,0.25221673269663214,5901.184579966655
0.8240000000000001,0.17641869972866614,5898.401196391975
0.8280000000000001,0.13902619237688865,5913.138907648412
0.8320000000000001,0.15868576974615115,5905.678430761423
0.836,0.2548744298610058,5889.111572870894
0.84,0.4395516078304155,5898.823591859611
0.844,0.7053839327049577,5901.618855640153
0.848,1.0169359016095667,5894.876513963252
0.852,1.3118425589334874,5898.6078989426605
0.856,1.5146246455199686,5908.282208465312
0.86,1.5587960904718936,5900.155641148806
0.864,1.408120292387429,5897.483333585586
0.868,1.0684546137275863,5902.278485678359
0.872,0.5865784542322569,5898.200865290585
0.876,0.038116516900556306,5900.378282142892
0.88,-0.48994076987859336,5893.760183110231
0.884,-0.9165227990565679,5895.8251333237
0.888,-1.180085256049582,5899.682213615454
0.892,-1.2473237705316154,5890.739284468949
0.896,-1.117033055580431,5901.774509253904
0.9,-0.8195736508370997,5895.875918164229
0.904,-0.4122966323971186,5892.059363378683
0.908,0.02921535138352666,5901.017163987654
0.912,0.42424503305381495,5890.562076323666
0.916,0.7031188885767199,5896.352158026281
0.92,0.822774892137766,5885.953102136331
0.924,0.776365460202973,5899.749694946203
0.928,0.5925222348971269,5903.862567299745
0.932,0.32380829024506697,5893.35270592887
0.936,0.02871355681849087,5904.144833747943
0.94,-0.24556467129998452,5892.365696185948
0.944,-0.47304252138024117,5900.237332876213
0.948,-0.6489832331431805,5901.996606389945
0.952,-0.7822627313110034,5888.8963018148615
0.956,-0.8850078030934225,5898.245572257963
0.96,-0.9638840240555122,5896.590480590417
0.964,-1.0151982508975756,5899.001721430109
0.968,-1.0244669950493968,5896.105996705522
0.972,-0.9706975788743465,5899.7441590331455
0.976,-0.8349597560547651,5893.102538379271
0.98,-0.6110240596116904,5889.170566370061
0.984,-0.31386927228717226,5898.042834769984
0.988,0.018440352429620985,5890.162467270288
0.992,0.33170564742387015,5896.7373882382535
0.996,0.5696097803514972,5902.354232151454
1.0,0.6897531548564656,5900.920902151225
1.004,0.6760067656792286,5888.38667623291
1.008,0.5434663906878053,5893.066977526211
1.012,0.33520330217006455,5890.596815296055
1.016,0.11226097084425783,5899.115991674401
1.02,-0.06055343861025518,5902.350894088601
1.024,-0.13034611013317476,5891.6655664000655
1.028,-0.07047811469003074,5901.242705263744
1.032,0.11001906696390888,5895.091062999048
1.036,0.3662042280549731,5904.077297333445
1.04,0.6284958739740305,5895.207767855135
1.044,0.8228435974179099,5895.782216992567
1.048,0.8925930497178851,5900.738525967526
1.052,0.814082899531819,5895.539314585432
1.056,0.6010359325617175,5901.523283747028
1.06,0.297154572870156,5898.805019693278
1.064,-0.039691551932470634,5906.865526081117
1.068,-0.3552490278106716,5916.743050387405
1.072,-0.6113376309580025,5895.107008542651
1.076,-0.7886694351211477,5902.8198928725005
1.08,-0.8815021909897167,5895.797462280055
1.084,-0.8900461369214294,5897.053835893327
1.088,-0.8165748196949907,5890.956508418363
1.092,-0.6674912485346657,5908.2083738268175
1.096,-0.45893682719818457,5893.336559731654
1.1,-0.2205163977321601,5902.799699483667
1.104,0.007794792812796007,5903.576837753914
1.108,0.18626581074359194,5902.700468098177
1.112,0.2888223981124554,5900.019171116783
1.116,0.31193610789494897,5894.532538107648
1.12,0.273946570743584,5902.648718185255
1.124,0.20529154986723502,5895.682201041402
1.128,0.13524531563229977,5894.889025136878
1.132,0.08237567931503231,5902.180968264786
1.136,0.05294521575409969,5891.550799896043
1.14,0.045784670533160654,5890.822236225201
1.144,0.05804634920924156,5897.895178415982
1.148,0.08706537272941707,5902.463346176352
1.152,0.12826102655881064,5901.332501772112
1.156,0.17293322004258654,5894.55663909372
1.16,0.20944309173020143,5910.105541875578
1.164,0.22774331619797775,5893.620242688147
1.168,0.22443843448670656,5901.0588946516455
1.172,0.20543870267676254,5887.086643340959
1.176,0.184691083754719,5901.484498648301
1.18,0.1791987692410087,5901.779113371092
1.184,0.20241307987712523,5895.433313991075
1.188,0.2593772778644211,5898.029971123964
1.192,0.3463726502992407,5900.225460359419
1.196,0.45517600085588034,5899.994584073886
1.2,0.5790590934107144,5900.762567775235
1.204,0.7163981588654095,5895.8357101753945
1.208,0.8692097234745234,5901.664171854497
1.212,1.0372168029113682,5898.971524045662
1.216,1.21089737384149,5905.6587426582655
1.22,1.3676752948802247,5904.753039948378
1.224,1.4740854883994408,5904.911106631881
1.228,1.4942786499390515,5895.769671848028
1.232,1.4023127260191595,5888.408557233717
1.236,1.1933076132020626,5895.348050465274
1.24,0.8882963240476891,5894.437218271352
1.244,0.5302744385319753,5898.070949264196
1.248,0.17308157143144454,5897.782639312161
1.252,-0.13241607159975677,5897.777345430969
1.256,-0.35012399598861044,5899.778762373326
1.26,-0.46506790548975296,5898.836040317793
1.264,-0.4827092642712685,5901.422466170538
1.268,-0.4223315058721964,5897.4244526165485
1.272,-0.3082894084906825,5898.48650298291
1.276,-0.16325423820443338,5892.205390535437
1.28,-0.0053588763007392515,5897.561518681887
1.284,0.15109438817390514,5896.982001454518
1.288,0.29269280069125225,5897.926598814969
1.292,0.4039249130954352,5899.07966729126
1.296,0.46711035543450163,5901.030695346982
1.3,0.4670626721752431,5902.531540067581
1.304,0.3988675036984532,5909.179171452256
1.308,0.274176017620321,5901.141005915904
1.312,0.12170444643681468,5898.444082597257
1.316,-0.01902143768738426,5895.07511902204
1.32,-0.10786257093127846,5891.907471718096
1.324,-0.11378226125353497,5896.473799814115
1.328,-0.021138888781847758,5894.571342483365
1.332,0.16753973233075412,5896.492735315027
1.336,0.43133693141463947,5903.209133145228
1.34,0.7336784903983603,5895.5145611172
1.344,1.029226859170644,5898.7133097565775
1.348,1.2743332753254846,5900.291762108152
1.352,1.4376600846294705,5904.986012896899
1.356,1.506642246067504,5899.792053465564
1.36,1.4872686596364553,5895.075562975023
1.364,1.3980195478943584,5889.278434775275
1.368,1.261449134280184,5895.243854917131
1.372,1.0972876531894737,5895.739565514834
1.376,0.9193691869693523,5897.082722664401
1.38,0.7364433657549345,5897.7427924256135
1.384,0.5549438500880505,5904.630599891279
1.388,0.3810006928332402,5898.75818656554
1.392,0.22016976998704088,5898.641475503203
1.396,0.07561768509599864,5892.838370456408
1.4,-0.05328120804365351,5906.764656719724
1.404,-0.1706012020854962,5887.777067278736
1.408,-0.28182918061369744,5892.039125652923
1.412,-0.3912119138090136,5903.609839198289
1.416,-0.49981814403397073,5893.920715696215
1.42,-0.6050413232180433,5887.98972994275
1.424,-0.7011297872702862,5892.977316400141
1.428,-0.7797324598209467,5896.739852461466
1.432,-0.8303181749404177,5887.935103229925
1.436,-0.8417585052959639,5893.523554669974
1.44,-0.80602943979291,5892.828977035696
1.444,-0.7224902698272773,5885.039377524008
1.448,-0.5995313733646627,5897.496061991127
1.452,-0.45217657824170593,5893.368264672958
1.456,-0.29783395547346925,5890.578937286468
1.46,-0.15364652114670926,5895.426368105542
1.464,-0.036328736295273875,5906.533452067603
1.468,0.03786657996279218,5897.973756432184
1.472,0.05555318219295337,5898.947273082576
1.476,0.010879030924978052,5901.01990557583
1.48,-0.08969029080383074,5904.612975771073
1.484,-0.22459565658115185,5897.434593010102
1.488,-0.35792742847808534,5892.183137554222
1.492,-0.4449885504146964,5897.270259646541
1.496,-0.44290479908362135,5901.467367034471
1.5,-0.3237640099704771,5891.7488510004105
1.504,-0.0852460001121953,5899.572102566245
1.508,0.24614695255345043,5889.334107489332
1.512,0.6211618136537455,5898.349377492604
1.516,0.9809751207095493,5890.204114541257
1.52,1.2721859029349807,5895.689572377524
1.524,1.4579411246137937,5893.374131106884
1.528,1.5221897169364869,5900.940655556184
1.532,1.467881931004793,5885.733681829238
1.536,1.3120804259401302,5904.357718977836
1.54,1.0806042721180127,5889.997074845698
1.544,0.8035615454878098,5897.512759814743
1.548,0.5122388468542295,5902.021468482842
1.552,0.23721421732067163,5895.620930028325
1.556,0.007142111932650044,5888.664781739292
1.56,-0.15241134922129776,5891.203498969336
1.564,-0.22056285481675544,5892.927665043516
1.568,-0.18328619654163672,5902.493102607945
1.572,-0.03576495357002966,5890.920786354302
1.576,0.2157460700330447,5899.487722151131
1.58,0.5528064013991016,5896.947541916494
1.584,0.9442555896393147,5891.198033946251
1.588,1.3466247467275514,5890.02210189323
1.592,1.7069166592756768,5894.801709520858
1.596,1.9691534522620724,5897.000148256802
1.6,2.084368215560749,5898.385150779513
1.604,2.0215964761831593,5897.681921807149
1.608,1.7766523115928599,5895.767259116499
1.612,1.376307245527484,5896.866786122683
1.616,0.8765533470773316,5887.355930622027
1.62,0.3541678936171352,5891.179875100424
1.624,-0.10805286075816954,5899.135811673277
1.628,-0.43952105284252474,5895.926314415466
1.632,-0.5982639009144873,5900.7428058989735
1.636,-0.579777436222755,5893.862215139131
1.64,-0.41480568669216633,5900.486291564198
1.644,-0.15701172692666757,5901.628485489915
1.648,0.1338155684445988,5894.891428604828
1.652,0.40598593789210835,5905.959758877246
1.656,0.6235918588836209,5903.920827401868
1.66,0.7679783058828691,5891.727149654646
1.664,0.8352525721888724,5897.737371241585
1.668,0.8316977789308445,5898.163841075279
1.672,0.7683494176205601,5898.190259984455
1.676,0.6560822781657784,5889.605673231098
1.68,0.5026925452073011,5894.841657839659
1.684,0.31290505114209727,5889.753797932535
1.688,0.09106189102798393,5893.652881635693
1.692,-0.1548461534436598,5901.999794408167
1.696,-0.40950250381795633,5898.274665985755
1.7,-0.6482340781207453,5904.8384827173895
1.704,-0.8375039542390993,5896.237474775882
1.708,-0.9389925325313088,5895.707168782436
1.712,-0.9183569411670102,5892.526911856128
1.716,-0.7581238329072532,5898.030102635354
1.72,-0.47092246219907813,5906.479156973899
1.724,-0.10660339524349821,5906.275970589694
1.728,0.2528367733028507,5895.944279403023
1.732,0.5122902131410322,5904.428069848597
1.736,0.5914880637355824,5902.394955833818
1.74,0.45136475368680157,5899.916767954452
1.744,0.10810507242817027,5888.832835357207
1.748,-0.3705403384888283,5894.73099959537
1.752,-0.8846529645865477,5904.67296400126
1.756,-1.329691841738583,5886.089206117096
1.76,-1.622927395936741,5901.083225674198
1.764,-1.7212669944841683,5904.863320570961
1.768,-1.6265836963373248,5897.043742207435
1.772,-1.3786186958326596,5901.1689294645485
1.776,-1.038973528475948,5893.722004908569
1.78,-0.6721164699223615,5895.400165959759
1.784,-0.33000312075692934,5896.759055952585
1.788,-0.04516114190937287,5905.1385297053175
1.792,0.16686768417024142,5891.159874936169
1.796,0.2993859323695436,5900.219420784392
1.8,0.3469597670608097,5890.026218637444
1.804,0.3034024830519711,5893.159714882716
1.808,0.1660257594934941,5898.403751274518
1.812,-0.05724803225205736,5896.925669916863
