时间(s),电压(V),幅值(高频80K)
0.0,-4.71522628246698,5903.496948687057
0.004,-3.528021576263393,5886.926510494873
0.008,-2.437909723741277,5893.895059210289
0.012,-1.5165553617495158,5899.2481091639975
0.016,-0.8038713385923216,5891.060621206362
0.02,-0.30773200024003694,5894.580430375406
0.024,-0.01086638868936054,5910.673647338168
0.028,0.12059882665175399,5904.546526569791
0.032,0.12963730494106115,5899.235259212765
0.036,0.062087672979902,5899.566090988087
0.04,-0.038153537125395334,5898.485662541032
0.044,-0.13209798117005137,5905.571186294023
0.048,-0.18766959740555286,5908.405617016598
0.052,-0.18280530727682084,5900.142997790909
0.056,-0.10997478795295057,5895.940152687099
0.06,0.021167708680544402,5899.390697692808
0.064,0.18709889015841702,5897.293670497902
0.068,0.35972975065708357,5901.584254047059
0.072,0.5166069952783527,5899.890880721795
0.076,0.6462669514209921,5902.718172781868
0.08,0.7473772978362639,5901.003993006479
0.084,0.8247208136351459,5902.057198590538
0.088,0.8852005050771288,5902.623708742433
0.092,0.9344503722444288,5902.865692614573
0.096,0.9738274898734958,5901.153981649865
0.1,0.9992072025448608,5900.035783161579
0.104,1.003461018697557,5893.077917907539
0.108,0.9818938402949976,5900.34832724194
0.112,0.937085593371126,5894.346227143739
0.116,0.879833427929216,5895.9205154303545
0.12,0.8256634010370795,5900.511441569372
0.124,0.7887707554582278,5912.296707673547
0.128,0.7760008935005392,5898.7979282858005
0.132,0.7833946525532223,5912.537214756863
0.136,0.797195778218037,5901.914343868002
0.14,0.7993845598064896,5900.165809103101
0.144,0.7752385071323612,5895.655794334512
0.148,0.7192001008385505,5893.298747520511
0.152,0.6365864607465149,5898.221305327984
0.156,0.5411674591313442,5892.791817785424
0.16,0.4504785340416482,5907.489797788972
0.164,0.3810608678002518,5902.383158633657
0.168,0.3448706360911202,5898.732049648945
0.172,0.34707099769359073,5894.622448477919
0.176,0.38534195468971755,5899.910544533691
0.18,0.45090857174623195,5896.537303454799
0.184,0.5305147601322765,5897.802426124364
0.188,0.6077148604384435,5900.776116531045
0.192,0.6630200750852218,5909.353785802545
0.196,0.6746634308391545,5902.476879052455
0.2,0.6221390137074384,5906.779486292001
0.204,0.4924706641843466,5887.4099665250005
0.208,0.2865169414871648,5895.781584109902
0.212,0.021690748857108366,5902.657515567928
0.216,-0.2712165891716025,5897.889277952053
0.22,-0.5565492984730078,5898.731049481607
0.224,-0.8042140024010375,5900.349280756524
0.228,-0.9975526866943986,5903.81826094743
0.232,-1.135622940107134,5899.470313863795
0.236,-1.2295657205145927,5902.863198398011
0.24,-1.2948734041172485,5885.69049658133
0.244,-1.3421700465397661,5895.91630157533
0.248,-1.3693583777959315,5896.110936784276
0.252,-1.35826072651896,5896.949970575785
0.256,-1.2783329321771362,5907.201722648457
0.26,-1.097547447969954,5908.516041878524
0.264,-0.7967349802849667,5895.905943813694
0.268,-0.3811172036428046,5894.404973945852
0.272,0.11621232214303853,5903.33987315732
0.276,0.6399515789461986,5889.308446947198
0.28,1.1242819806804216,5906.09184622306
0.284,1.5059935815191012,5898.828796057328
0.288,1.735811400217112,5909.590685966176
0.292,1.7867670321433913,5901.057480497288
0.296,1.659295980479358,5896.176775195703
0.3,1.3823120494742094,5904.045680362904
0.304,1.009196791084846,5903.420157214207
0.308,0.6084308974849432,5904.240956253987
0.312,0.2501289744388693,5901.098862330049
0.316,-0.008918654742250011,5911.658557958587
0.32,-0.1382754584010941,5902.296754135421
0.324,-0.1411907866645137,5893.642017412112
0.328,-0.05313816653213226,5896.967984900956
0.332,0.06912156031932128,5892.340928525743
0.336,0.16499671822074374,5909.311412354502
0.34,0.18815325304839464,5896.240253172327
0.344,0.11895770101567592,5896.2574511080975
0.348,-0.03266017090765728,5891.890517228991
0.352,-0.2341005140901882,5910.920282658049
0.356,-0.443232853119586,5904.7822387076285
0.36,-0.6221171211050964,5916.921333656676
0.364,-0.7463853802357469,5903.884492174438
0.368,-0.808441001328678,5898.4969608039
0.372,-0.8153513918064581,5896.073018048942
0.376,-0.7831639074955837,5899.371654331587
0.38,-0.7294171373082898,5899.60681176803
0.384,-0.665940163367395,5902.272710208437
0.388,-0.5941858459798626,5893.04116018931
0.392,-0.5045957086769944,5908.688707472556
0.396,-0.3801502629311966,5901.811736591918
0.4,-0.20315180177894468,5898.124756667422
0.404,0.03648529172921962,5898.199765454599
0.408,0.33384490850681814,5903.056528520084
0.412,0.6650458572428962,5896.004686243599
0.416,0.9883597698149054,5903.933795710751
0.42,1.2507665087501159,5899.514027940508
0.424,1.3991322060488316,5899.706996369234
0.428,1.3938448709712288,5894.904467425088
0.432,1.2210487940147043,5898.768833910249
0.436,0.8987969019446708,5903.360052964721
0.44,0.47411439543818845,5906.939259554525
0.444,0.011731975586342622,5901.282286105234
0.448,-0.42135320694292244,5897.711487134497
0.452,-0.7700983110781204,5896.054273054029
0.456,-1.0000033775983166,5900.28569402551
0.46,-1.0982536629837527,5894.583906032492
0.464,-1.0689644781260763,5905.58446571976
0.468,-0.9266659532792907,5900.217837003909
0.472,-0.6922904326416769,5904.838175244875
0.476,-0.39321077175582114,5887.865131434105
0.48,-0.06528913667056997,5891.0255932953205
0.484,0.24662122209709564,5907.031598456825
0.488,0.49187400987638713,5899.713256867737
0.492,0.6208014809918331,5906.760918962307
0.496,0.5938770684935072,5892.725566117822
0.5,0.39186495554377293,5900.309101974936
0.504,0.02460272539939195,5893.411084567037
0.508,-0.46539644090645843,5899.763204471022
0.512,-1.0081065764504924,5900.755919296312
0.516,-1.520204578676033,5903.248160333532
0.52,-1.923985480589095,5897.95635978513
0.524,-2.1642770190716702,5898.600595748999
0.528,-2.2183031933527273,5897.802317675481
0.532,-2.0970879814051187,5902.23481174013
0.536,-1.839696849544899,5898.579260447741
0.54,-1.5026942920329411,5895.371336198028
0.544,-1.1476421259633613,5902.608856195444
0.548,-0.8297336025341807,5904.69266357792
0.552,-0.5902058636598081,5905.046746810639
0.556,-0.45362859541877737,5904.634803103382
0.56,-0.42913534830093536,5905.692473903548
0.5640000000000001,-0.513212843148796,5892.410450700544
0.5680000000000001,-0.6915529884158773,5892.934610076298
0.5720000000000001,-0.9389019839409747,5898.087116981432
0.5760000000000001,-1.2181225718146989,5898.358127238796
0.58,-1.4812621414871459,5903.640593458246
0.584,-1.675028174185504,5895.844437870479
0.588,-1.750814520641233,5899.789985511777
0.592,-1.6765762870056249,5898.152854272724
0.596,-1.4461195451731923,5902.490285615289
0.6,-1.0820161496373601,5897.113978690579
0.604,-0.6311669630278447,5902.391969167229
0.608,-0.15512245816090775,5896.214874356799
0.612,0.28146491081106567,5917.354778644079
0.616,0.6217096904361028,5889.888217168341
0.62,0.8254389117478191,5889.784430600503
0.624,0.875403212617828,5904.132432695768
0.628,0.7798476566073619,5897.994123713212
0.632,0.5707347367654755,5900.263663827085
0.636,0.29737709928816275,5895.165088098812
0.64,0.015948962095408865,5901.3931825387945
0.644,-0.22300839858755656,5895.6201780794445
0.648,-0.3848319159683562,5902.724788636729
0.652,-0.4543885748073703,5900.671407248648
0.656,-0.432261613481249,5895.467179537828
0.66,-0.3272563198501902,5910.469955845098
0.664,-0.1508928388181157,5904.504818124761
0.668,0.0826745384704147,5899.687751917232
0.672,0.3521673766011843,5895.693258533123
0.676,0.6242997089773391,5908.985557349571
0.68,0.8531647439800131,5895.849934319813
0.684,0.9862502240188303,5900.661526760517
0.6880000000000001,0.9760069625757851,5898.666787809372
0.6920000000000001,0.7933383984113075,5901.122239641479
0.6960000000000001,0.43856229926798257,5899.366023969592
0.7000000000000001,-0.05391075778643102,5901.494608043669
0.704,-0.6191271718589934,5907.687835443107
0.708,-1.172959055162829,5907.4752119565055
0.712,-1.628688346410792,5905.539742336007
0.716,-1.9145158364059605,5895.9927362160815
0.72,-1.9871843033445105,5907.037953702699
0.724,-1.8385883023305154,5899.724612174565
0.728,-1.4954433354042505,5892.112235193358
0.732,-1.0142131806037054,5903.205496693396
0.736,-0.4732030620145697,5900.184150395889
0.74,0.0378212041424148,5895.316311064527
0.744,0.43115251147320865,5901.4203709588
0.748,0.637695020007207,5907.338634662817
0.752,0.6236181563737293,5894.429474513293
0.756,0.4012273313685247,5906.360168597638
0.76,0.02827668736918966,5900.189431575668
0.764,-0.40584484582668623,5903.423331598811
0.768,-0.8028785101248944,5901.998648354968
0.772,-1.079672796721193,5907.196495644721
0.776,-1.185911537487887,5901.067614589808
0.78,-1.1112068396435857,5897.290911724534
0.784,-0.8811560368037177,5903.32208315906
0.788,-0.545608169956803,5898.878565950268
0.792,-0.1646526527913953,5905.148910348216
0.796,0.20253573413681508,5896.366717839565
0.8,0.5040150346459797,5899.033138951483
0.804,0.6982235543982863,5903.209268305237
0.808,0.7568391786068492,5892.760104403164
0.812,0.6686577401446963,5900.767092599136
0.8160000000000001,0.44353805691220943,5901.734801718252
0.8200000000000001,0.11410030917083272,5896.286343315444
0.8240000000000001,-0.26735461097182656,5909.395462205073
0.8280000000000001,-0.6379339975770968,5895.977220401807
0.8320000000000001,-0.9376398693160221,5894.4309551884
0.836,-1.1231342428551991,5907.846960893471
0.84,-1.1775527748801007,5901.731766375714
0.844,-1.1138710580496136,5895.174795628306
0.848,-0.9709876012757417,5899.074000202074
0.852,-0.8031282263408054,5902.338689416671
0.856,-0.6652373789986967,5901.867367248887
0.86,-0.5987413308437929,5901.23214675968
0.864,-0.6216617989244513,5906.2824817344745
0.868,-0.7248769601493017,5898.077982336678
0.872,-0.8744797297599491,5891.850780319735
0.876,-1.0196534986036787,5898.527215267794
0.88,-1.105174520800848,5895.400146353684
0.884,-1.0863657852570623,5898.429748871252
0.888,-0.9426378545337286,5901.733733644852
0.892,-0.6851402401484559,5897.581689907335
0.896,-0.35524135056899914,5908.4450469449785
0.9,-0.013501155038498618,5910.432283082575
0.904,0.2773352894697344,5900.992821063112
0.908,0.46914242668567924,5909.359321475753
0.912,0.5393179359537696,5899.33072628593
0.916,0.49317068858394375,5890.958984003082
0.92,0.35862775053537954,5893.757278518355
0.924,0.17640565888971585,5903.6573415221965
0.928,-0.010428246331793681,5890.6851302824425
0.932,-0.1644950880947514,5898.713642303887
0.936,-0.25882731356796346,5909.749015087158
0.94,-0.27901938345524085,5906.027859806802
0.944,-0.22374389302353218,5902.166420178262
0.948,-0.1039876675009281,5889.334773295635
0.952,0.059014711968127555,5885.112134221684
0.956,0.23740042760899863,5900.295515099608
0.96,0.402347678263839,5893.380624088517
0.964,0.5318188249267141,5899.721878451809
0.968,0.618662221920823,5904.523375085485
0.972,0.6755042839625843,5894.606629969903
0.976,0.7328973647640272,5906.080414862947
0.98,0.8296281644760894,5899.612233415925
0.984,0.9975497120392806,5894.193507894653
0.988,1.2461358260428235,5894.586686348366
0.992,1.5529976072574074,5896.408142100248
0.996,1.8649151748041315,5899.587242366336
1.0,2.109773600613787,5903.88735099266
1.004,2.2153216706284886,5902.29415518331
1.008,2.1284243097474107,5907.011227892315
1.012,1.8292552267275668,5905.086299519505
1.016,1.3375395569090698,5901.402923872989
1.02,0.7106630051357603,5906.97684012708
1.024,0.03488412000827575,5894.295515555044
1.028,-0.5890809487322386,5902.807544115879
1.032,-1.0649754226776313,5896.458649073038
1.036,-1.322095792615214,5893.673058616923
1.04,-1.3337161866931064,5899.539369157044
1.044,-1.1264060787411085,5898.743614062115
1.048,-0.7755154817024406,5894.598209422615
1.052,-0.3868168576450979,5899.618740248321
1.056,-0.06931612560258037,5898.014342363507
1.06,0.0928316525468751,5905.3714777584055
1.064,0.06126419577317946,5893.421036265612
1.068,-0.14848264283528748,5893.712535920237
1.072,-0.4734511198503348,5890.848262224668
1.076,-0.8218217744356241,5902.404520448829
1.08,-1.0980572290210548,5893.821836068159
1.084,-1.2280579064352906,5896.200141648615
1.088,-1.1779498229250773,5897.611613670594
1.092,-0.9611383150451015,5903.501248210115
1.096,-0.6311673884181205,5892.991507475036
1.1,-0.26315638571754846,5893.846322190853
1.104,0.06849442613758401,5910.431680538801
1.108,0.3075992492474177,5898.388557347331
1.112,0.424328402682512,5903.866001177128
1.116,0.41493225975591025,5912.457477522051
1.12,0.29705567548475664,5905.937987654174
1.124,0.10431085225890958,5896.765359723738
1.128,-0.11841324313209069,5898.937366535679
1.132,-0.31971031113341736,5904.917815381688
1.136,-0.44839653759123155,5898.4252368249845
1.14,-0.4632377926889245,5897.9979921809
1.144,-0.3440624906928852,5898.636643324917
1.148,-0.10018802971277689,5904.349223175846
1.152,0.22807277470754317,5907.821831666725
1.156,0.5768025214293195,5897.532983269
1.16,0.8740048183225672,5904.977788937384
1.164,1.060032447770238,5905.307085046748
1.168,1.106828310047173,5900.538340181472
1.172,1.028222889628287,5906.618569093299
1.176,0.8761349664711198,5908.463916560179
1.18,0.7237452557535908,5894.294392158354
1.184,0.64207562693909,5895.455745727554
1.188,0.6779441930124745,5899.648631184848
1.192,0.8396254130981897,5897.069980567997
1.196,1.0935515072156752,5900.158547932388
1.2,1.3723303876839863,5900.914494098334
1.204,1.591956779623028,5902.360062853552
1.208,1.6743084753641078,5902.313900480688
1.212,1.5692694026858434,5902.126228555751
1.216,1.269552773728095,5902.243452304499
1.22,0.8124737224555676,5910.766773041088
1.224,0.26775256986124585,5896.097055887135
1.228,-0.28309530535526095,5899.775992413756
1.232,-0.76649600852517,5898.12795788744
1.236,-1.1282565642000948,5902.183337374533
1.24,-1.3352619830201669,5905.934525224706
1.244,-1.3716059065780164,5903.507728685916
1.248,-1.2349947314805454,5891.178019871035
1.252,-0.936827015457168,5903.225064829504
1.256,-0.5053370505714839,5892.70830159915
1.26,0.011729382177391457,5901.966209231669
1.264,0.548858431179458,5904.700651973245
1.268,1.0307817948041589,5905.314295064163
1.272,1.3853363803148502,5906.80222301212
1.276,1.5573831279551726,5903.594327494291
1.28,1.519885384232027,5894.443730656973
1.284,1.279837832497028,5905.884642841135
1.288,0.8781515227266458,5899.4033647320175
1.292,0.38280884595954096,5902.42963353362
1.296,-0.12503243123922628,5901.57844527784
1.3,-0.5698690210760377,5901.8799886514735
1.304,-0.8999383303997566,5889.782589070119
1.308,-1.0976174575389934,5907.92052970843
1.312,-1.1779241167807817,5910.364802988816
1.316,-1.1758627364371421,5904.335054190525
1.32,-1.1278710420804778,5900.447801751392
1.324,-1.0552232757929696,5900.526645707706
1.328,-0.956827231621742,5901.230398204771
1.332,-0.8145220969752052,5896.9654746249125
1.336,-0.6072177613641301,5907.810558346703
1.34,-0.3254174501281812,5900.943674140093
1.344,0.021306870678453774,5896.451888959026
1.348,0.4054281202614717,5903.0370014426735
1.352,0.7875056648263032,5904.093147401802
1.356,1.1232676372120307,5899.140051754125
1.36,1.3707943183399383,5909.483776280812
1.364,1.4981070251384745,5901.800086970709
1.368,1.4898285203118904,5899.964909993874
1.372,1.3502688017876114,5896.5214559079
1.376,1.1015766017125306,5895.621281145851
1.38,0.778215017881331,5901.395338663971
1.384,0.4206823741630621,5895.595983235022
1.388,0.07114981795845704,5897.981847944525
1.392,-0.22823190187915537,5904.413292060231
1.396,-0.4361814506838406,5907.308074733088
1.4,-0.5155249178488419,5910.354604087888
1.404,-0.44068708596986755,5901.731158957394
1.408,-0.20764555836026238,5906.689487967716
1.412,0.1587193696271432,5903.189570746739
1.416,0.6050583141194075,5891.944007430746
1.42,1.059251720244966,5901.564415820798
1.424,1.445978612914556,5897.199993220004
1.428,1.7025542349771368,5906.278091406044
1.432,1.790739646560571,5897.578099440702
1.436,1.7025204022379778,5900.103284564749
1.44,1.4593327875105533,5902.02980779308
1.444,1.1054277903002276,5905.191000909835
1.448,0.6975819728767925,5902.415142286704
1.452,0.2943773960518571,5901.908675726403
1.456,-0.05224090820140351,5903.554036531033
1.46,-0.3021221901557142,5903.05798848765
1.464,-0.42926974352563835,5900.369077570827
1.468,-0.42257764200530934,5904.747542722801
1.472,-0.2863992522194535,5900.520685574445
1.476,-0.041910812502990176,5900.651634041071
1.48,0.2717854937825206,5902.402633636875
1.484,0.6000628860576455,5895.070686510956
1.488,0.8815791401549469,5891.218349831905
1.492,1.0629592071972598,5907.574109542416
1.496,1.1144204097335155,5905.374733189967
1.5,1.039146749830333,5901.496826874952
1.504,0.871463313052966,5893.057326621687
1.508,0.6647579568559177,5903.83180868432
1.512,0.4751790536377976,5902.119550795193
1.516,0.3477924739756293,5906.227779104654
1.52,0.3088878104562831,5900.074453836923
1.524,0.3645692895995905,5900.084297524731
1.528,0.5035166876760191,5895.150553782329
1.532,0.701225336861842,5905.272633833673
1.536,0.9241527225017777,5902.742448215426
1.54,1.134084025878662,5895.462006615453
1.544,1.2936866042139485,5901.002267616152
1.548,1.3730787189858127,5898.760312367247
1.552,1.355934232175483,5899.574075028887
1.556,1.2434135403241249,5901.133063500787
1.56,1.054744248656542,5909.879777539238
1.564,0.8240631385151058,5902.601694334812
1.568,0.5938918066850479,5894.968583815625
1.572,0.40616433871806823,5902.499282465715
1.576,0.292291115040747,5910.912878744782
1.58,0.2645006933610106,5901.513122421315
1.584,0.311141912151263,5902.767592119834
1.588,0.3981813503467861,5890.937420241158
1.592,0.47767563710303546,5902.683203478833
1.596,0.501540313205394,5900.608464719427
1.6,0.4361029760810631,5903.410239307101
1.604,0.2717671396275769,5893.927363129724
1.608,0.024428444791648043,5892.087281750438
1.612,-0.27027602451430766,5901.222674400628
1.616,-0.5659723692508358,5906.046910977111
1.62,-0.8144569683459795,5901.694975899507
1.624,-0.973318271888492,5907.07164137479
1.628,-1.012519574424092,5911.526098373202
1.632,-0.9203165084055637,5897.308019910453
1.636,-0.7078320917603029,5906.413792115886
1.64,-0.4098553069386217,5894.449906884258
1.644,-0.07900872754644518,5913.6657710352165
1.648,0.22675020606248744,5894.888861673549
1.652,0.45907811699737305,5903.364924780107
1.656,0.590798784210261,5902.824940052722
1.66,0.6202365977073843,5903.692996216709
1.664,0.5676187455031897,5897.561989021827
1.668,0.46510384415471323,5899.339304848338
1.672,0.34370691435375655,5898.479957835534
1.676,0.22179589531872806,5902.9567311136125
1.68,0.09988441710222914,5906.926721031227
1.684,-0.03582719450705447,5900.889185038229
1.688,-0.202713423951399,5907.082171028779
1.692,-0.4090947360715536,5896.906536311844
1.696,-0.6462874307768306,5907.478166886388
1.7,-0.8894500976333088,5900.891997162244
1.704,-1.1063472192353758,5897.222130637422
1.708,-1.2689615066221405,5901.871999140563
1.712,-1.362168986689207,5898.280191085518
1.716,-1.3861050832353976,5899.844084383267
1.72,-1.352346525502438,5909.122878033873
1.724,-1.2769122509811328,5904.281367322708
1.728,-1.1740397155379452,5899.830642326155
1.732,-1.0531869313002187,5905.588988182169
1.736,-0.9193221219565867,5902.377019132405
1.74,-0.7754844221469659,5901.463399595353
1.744,-0.6264014249265653,5904.1492681371565
1.748,-0.48089464584929775,5897.146195783246
1.752,-0.3500099817287783,5902.806635785119
1.756,-0.24006890036608555,5905.356292321231
1.76,-0.14447168097499707,5901.715803337211
1.764,-0.0406622010443618,5900.60045121456
1.768,0.10384908607026738,5896.165748695449
1.772,0.31828358904171755,5895.28318612764
1.776,0.6144855942934997,5908.784516806814
1.78,0.9783441013441497,5896.844287459672
1.784,1.3700152105012122,5897.433528991338
1.788,1.7323062437892713,5894.0084648395305
1.792,2.0038843097651347,5892.684029414682
1.796,2.133194994798569,5888.657742573091
1.8,2.0897166111691514,5897.067919554113
1.804,1.8705011741187885,5901.100877806049
1.808,1.5012362400237433,5904.201977315335
1.812,1.031952261204772,5896.161981000301
1.816,0.5279640026133053,5902.574658919539
1.82,0.05743985450998526,5906.798869696546
1.824,-0.3214971136924446,5903.090630074706
