时间(s),电压(V),幅值(高频80K)
0.0,2.702615195994145,5905.989760843921
0.004,2.0478169231821206,5899.742344914861
0.008,1.460985529650727,5888.945845698481
0.012,0.9898505543314199,5902.537701270513
0.016,0.6537434634966935,5898.687493700344
0.02,0.43836727698320216,5905.924637553602
0.024,0.30066735715633863,5897.485213067777
0.028,0.1841308479782082,5894.148292352241
0.032,0.039611722190067436,5897.691530884387
0.036,-0.1566836708813266,5899.716847088694
0.04,-0.39494000410768604,5896.865365092987
0.044,-0.6349328089357009,5900.205467209531
0.048,-0.8181885036622477,5893.28554009913
0.052,-0.8857269135103618,5897.505624819938
0.056,-0.7978745442434538,5903.1304089378045
0.06,-0.5507474447821741,5895.448694289121
0.064,-0.18280684054576204,5905.887514166015
0.068,0.2323162900470849,5899.460639387377
0.072,0.6052361087801023,5896.736684481904
0.076,0.8568115045191422,5902.748444965704
0.08,0.9427983393813066,5900.991043481531
0.084,0.8682658574541003,5905.901561674456
0.088,0.6850124008016978,5899.109152229495
0.092,0.4719891955831363,5898.196317880745
0.096,0.30688413804522924,5898.9374927200015
0.1,0.2406045733883208,5899.1773065231855
0.104,0.28341012820351064,5907.637213436909
0.108,0.4052058984844819,5906.549042803848
0.112,0.5472818931160558,5900.565356865219
0.116,0.6403683879954001,5894.880014403334
0.12,0.6237917566229777,5908.372578737539
0.124,0.4614215665955651,5902.845378164531
0.128,0.15105826143435208,5896.863397068982
0.132,-0.2747776578106997,5901.510981633978
0.136,-0.7563913776561265,5904.5999988593085
0.14,-1.22005760112235,5899.953906399837
0.144,-1.5932085757231513,5900.591746247494
0.148,-1.8191756776956394,5904.111766933939
0.152,-1.869781296962414,5900.636376218378
0.156,-1.753038306603932,5900.7871111637405
0.16,-1.512074307145772,5899.960752255267
0.164,-1.213114199760868,5898.827299587317
0.168,-0.9251923650920456,5905.436062619926
0.172,-0.6991573509113319,5896.341557268259
0.176,-0.5546425017851306,5900.132430618526
0.18,-0.47960400414135146,5903.349146763658
0.184,-0.4404452547068619,5905.87887620668
0.188,-0.39640205788369826,5896.473120169044
0.192,-0.3122232772159386,5900.113228866148
0.196,-0.1664940717626799,5897.791507931204
0.2,0.04427530829044598,5903.7272082228665
0.204,0.305063949460461,5904.3806823891455
0.208,0.5850759859097607,5905.090884259773
0.212,0.8437573217711695,5897.098267277674
0.216,1.0394493853227957,5892.044749688087
0.22,1.1391840189538527,5902.169400771036
0.224,1.1273450575060677,5900.249046696207
0.228,1.0104461120123482,5896.436429438664
0.232,0.8157545962923283,5898.099610904334
0.236,0.5835782759951625,5900.263126167059
0.24,0.35608337078605073,5898.431384032893
0.244,0.16732664560837324,5889.282855639463
0.248,0.03801299707678117,5904.620906106233
0.252,-0.02476369319762437,5892.92648700573
0.256,-0.025155957970368886,5898.646893932513
0.26,0.023815825588447467,5894.027637898259
0.264,0.1015816389214331,5897.764249118054
0.268,0.18078210440641512,5895.973942995649
0.272,0.22879806898603972,5891.989437149778
0.276,0.21182411635853024,5901.96108436604
0.28,0.1027578935670231,5898.705714986723
0.284,-0.10848656047789874,5903.95253666402
0.288,-0.4069337623767479,5891.585985076668
0.292,-0.7516920540636337,5895.88359578835
0.296,-1.083566991458237,5902.985654667166
0.3,-1.338336194137558,5908.082461165674
0.304,-1.4615073673880776,5898.861569572673
0.308,-1.4213282228335438,5900.895503818071
0.312,-1.2178788369496345,5895.240847798516
0.316,-0.8861621383861698,5904.144901348436
0.32,-0.49101427155576116,5894.410300253955
0.324,-0.11306638631993195,5897.081431805384
0.328,0.17150378852466347,5892.225635761284
0.332,0.3110082821062672,5899.169519966418
0.336,0.29085175021638304,5887.408371787816
0.34,0.1345967168104952,5907.7462128402885
0.344,-0.10562425858518201,5896.152930133026
0.348,-0.36459906521319296,5903.604729098724
0.352,-0.5795559870191481,5911.649949735001
0.356,-0.7012541691789885,5896.669460599812
0.36,-0.6988922469853039,5896.065639251853
0.364,-0.5597747165092979,5892.241436573945
0.368,-0.2865590316189221,5904.002459892582
0.372,0.10458415956348191,5904.213786279768
0.376,0.5832074191998876,5897.66885469798
0.38,1.103033060415471,5896.731005099874
0.384,1.6038205601453663,5896.823565603075
0.388,2.0191399391803726,5902.184710599211
0.392,2.2882010099767096,5890.267741681486
0.396,2.367418450873292,5903.816584569308
0.4,2.238343297918193,5898.898441325187
0.404,1.9107555894630825,5897.548425540362
0.408,1.4210400974745916,5893.522400107907
0.412,0.8264330585875133,5902.750932146758
0.416,0.19618648971522581,5897.808292294064
0.42,-0.3986284131500492,5904.257206673876
0.424,-0.8947297825762648,5894.082191810955
0.428,-1.2442517055217288,5903.091490872318
0.432,-1.4197222230968651,5896.425637074003
0.436,-1.4161089067947865,5902.110612806797
0.44,-1.2498571673320067,5904.241006933441
0.444,-0.9551404755580664,5896.14577858367
0.448,-0.5779339196412893,5899.210430213762
0.452,-0.16898104050567536,5904.541611430647
0.456,0.2228311455408992,5891.226572024683
0.46,0.5552218249423304,5897.617732389427
0.464,0.7950868249829944,5902.301029564345
0.468,0.9203295366495643,5892.975201448617
0.472,0.922769682961537,5899.681387897736
0.476,0.8118442470584951,5898.848314861368
0.48,0.6160152555381783,5904.449729820758
0.484,0.3785846194956757,5895.762490083087
0.488,0.14794561112038127,5890.702650296365
0.492,-0.033728879009341066,5896.25560822575
0.496,-0.1384411764614395,5903.95517283449
0.5,-0.15474709180502572,5896.561412595679
0.504,-0.08588705651168943,5900.830014974963
0.508,0.0536876953420963,5907.614918953485
0.512,0.24203567583258837,5900.43840944895
0.516,0.45380286149145205,5909.488465617789
0.52,0.6645556511427537,5894.125780055632
0.524,0.8542555216790152,5901.75546741876
0.528,1.0085924608571104,5897.822467771595
0.532,1.117732316663823,5891.962323537663
0.536,1.173244979641673,5898.055972184033
0.54,1.1652090936042958,5899.8962822512685
0.544,1.082228974890727,5894.047690843042
0.548,0.916169718981061,5901.12149215197
0.552,0.6701894214172689,5895.913333914248
0.556,0.3651074916728325,5895.765752516791
0.56,0.03877483810066715,5892.217633803442
0.5640000000000001,-0.26329557085680927,5897.366363156959
0.5680000000000001,-0.5030141164030704,5896.805428792219
0.5720000000000001,-0.6642777135162669,5905.550641554532
0.5760000000000001,-0.75996088484634,5907.98643073711
0.58,-0.8265272277994056,5902.265955073916
0.584,-0.9069892684944049,5900.355233370884
0.588,-1.0292581946131292,5891.187467333915
0.592,-1.1897226357998807,5906.6766835101525
0.596,-1.3493816696590215,5897.175212618192
0.6,-1.444280035870731,5894.7083817245175
0.604,-1.4065205210670786,5905.340922824701
0.608,-1.1882919294709542,5906.186086646314
0.612,-0.7801601347511169,5899.08438925876
0.616,-0.21733827904435213,5899.740722102957
0.62,0.4272056769868358,5899.465491839431
0.624,1.0591289135290434,5899.873419602058
0.628,1.5826602962762013,5894.229473282355
0.632,1.918823334082292,5903.023189844
0.636,2.019192820059343,5902.270595909905
0.64,1.874841088312992,5904.589695429487
0.644,1.520286018328014,5898.061017521889
0.648,1.030563625936267,5902.993757275388
0.652,0.5089398877687688,5895.842089438677
0.656,0.06542970442399212,5895.841666439734
0.66,-0.20888783074608513,5898.528603334117
0.664,-0.2634429999314653,5893.458076727112
0.668,-0.09837583778558781,5888.551365858804
0.672,0.2392569818342053,5904.504650197048
0.676,0.6708604801693627,5891.1558736703655
0.68,1.1076221710198735,5899.724446871319
0.684,1.4711263410674136,5895.9699125948455
0.6880000000000001,1.7077012264886866,5903.746273980967
0.6920000000000001,1.7936376455817693,5900.349037545603
0.6960000000000001,1.7317852344968148,5904.453699954753
0.7000000000000001,1.5429539604569211,5898.075691657978
0.704,1.2569635225981393,5903.404230298131
0.708,0.9073745554310199,5909.736237514519
0.712,0.5309643832589939,5901.977435651626
0.716,0.16921515920631744,5902.608882604051
0.72,-0.13291234319826348,5909.570417882549
0.724,-0.3337713590442556,5904.620559038864
0.728,-0.4056332048953714,5896.11717605265
0.732,-0.3438778524578967,5898.290387224555
0.736,-0.1699337221244978,5896.653878700752
0.74,0.07348609887916387,5900.388667182743
0.744,0.3327601942692163,5898.855888933321
0.748,0.5554108346696728,5906.249654711205
0.752,0.6998042367151858,5902.553328975537
0.756,0.7397807347928164,5890.022538992072
0.76,0.6641239288957048,5902.909191964241
0.764,0.47379121893569615,5899.495167579988
0.768,0.18101334091138552,5893.067118451078
0.772,-0.1878998917373624,5902.831187897272
0.776,-0.5887720621877669,5901.04486447633
0.78,-0.9605803876879911,5908.198782391608
0.784,-1.2354306625081726,5908.261625444812
0.788,-1.3560712972118174,5897.34858248819
0.792,-1.2941571170583055,5901.087306246251
0.796,-1.0608983981489295,5910.278240584575
0.8,-0.7049773914036794,5899.642065107367
0.804,-0.2989428502213748,5892.326514654014
0.808,0.07935812553193533,5900.586294390603
0.812,0.3629036219686357,5898.682337685651
0.8160000000000001,0.5050880296920175,5906.17566207735
0.8200000000000001,0.4828783358947118,5901.321604714735
0.8240000000000001,0.295981047043409,5905.110335510734
0.8280000000000001,-0.03554697025400908,5888.94914219027
0.8320000000000001,-0.4742192088114517,5906.250510288463
0.836,-0.9688804164285757,5896.814156701359
0.84,-1.459912543457243,5901.803111627189
0.844,-1.8860359678918852,5900.67339446742
0.848,-2.192430416454862,5906.271313611604
0.852,-2.3394683716712565,5904.585916284762
0.856,-2.31043683858516,5908.197636962428
0.86,-2.1157255803067216,5904.888321596909
0.864,-1.791413345889225,5895.165424035499
0.868,-1.3922624276238655,5893.055106402034
0.872,-0.9812713106758993,5897.766973858354
0.876,-0.6185445618330933,5898.670211938345
0.88,-0.35153749383856925,5901.173922925257
0.884,-0.20799883038377345,5899.239381250428
0.888,-0.19277973180757266,5896.47461534095
0.892,-0.2894995571723862,5895.757100136517
0.896,-0.4667294208352547,5902.989533821776
0.9,-0.6860657203605668,5898.006623876147
0.904,-0.9084910655528741,5900.674574973059
0.908,-1.0973729658786733,5901.642752949351
0.912,-1.2197434953902375,5900.662992572418
0.916,-1.249037516501863,5898.137104146069
0.92,-1.1708128545750764,5892.93607644717
0.924,-0.9894698265422949,5884.509796086592
0.928,-0.7315171367902409,5900.166794386029
0.932,-0.4414622305792199,5893.156140299226
0.936,-0.16965529510184948,5898.787335196126
0.94,0.04421010355821108,5902.140408485604
0.944,0.18488408432853573,5901.157072815071
0.948,0.26578548844059285,5887.456937444865
0.952,0.3214791485409051,5906.534082991125
0.956,0.3924841956895338,5905.226607129756
0.96,0.5098629919730893,5902.432593738276
0.964,0.6857399544787222,5896.430023472996
0.968,0.9118682332721462,5899.039874814772
0.972,1.1646536764980469,5893.517193237924
0.976,1.4133929268770322,5894.805793129824
0.98,1.6287156346053162,5895.216885643252
0.984,1.7890204983361313,5904.515913289366
0.988,1.8832171385728727,5895.149568002065
0.992,1.9090876740304341,5901.566453759382
0.996,1.8688996929597415,5902.858082610716
1.0,1.7659444693745736,5896.848008980478
1.004,1.6047999748997956,5901.563577345264
1.008,1.3947667458411983,5896.6652913101
1.012,1.153517203719634,5910.209290465679
1.016,0.9083606398009377,5906.616620858799
1.02,0.6941209045049005,5903.621655677396
1.024,0.5476330722224347,5901.493532920716
1.028,0.49956200808203066,5901.494863808058
1.032,0.5655406854454502,5898.01627729736
1.036,0.7398567555445554,5905.991676514187
1.04,0.9943702529686816,5905.422973075902
1.044,1.282856561404424,5900.101316581252
1.048,1.5488680207979975,5900.630661811094
1.052,1.735456806307699,5896.432624573928
1.056,1.7962568752929684,5899.094492852947
1.06,1.7067402211740204,5905.2149585773
1.064,1.472315420554466,5899.31090796326
1.068,1.1291997263870015,5905.111973395751
1.072,0.7358797126882293,5897.735902049367
1.076,0.3564350831855081,5907.273124127507
1.08,0.04088874449791765,5894.915943953716
1.084,-0.18952717154842674,5902.611339228391
1.088,-0.34538120477413903,5900.462170793666
1.092,-0.4590671225655696,5900.704185810571
1.096,-0.5670843622655146,5904.711932643911
1.1,-0.6928546339961132,5903.735881864553
1.104,-0.8367674259744281,5903.086873611351
1.108,-0.9760237673345564,5904.538152647968
1.112,-1.073022320883755,5892.110760748327
1.116,-1.0889403041502386,5892.433864367382
1.12,-0.9982131965440463,5901.383391984355
1.124,-0.7990444695828767,5901.38243107985
1.128,-0.5159149173853783,5906.666474142862
1.132,-0.1933038444971062,5907.299037623929
1.136,0.11634034441867558,5895.473894926734
1.14,0.36579825409984085,5900.057581190503
1.144,0.5239374104963974,5898.933064330621
1.148,0.582416111183854,5903.586930305338
1.152,0.5571948524737358,5905.785641734018
1.156,0.4839892902864687,5909.201978570537
1.16,0.40769066485027716,5896.401068298629
1.164,0.36799912195700046,5902.377167024077
1.168,0.3860223753646836,5895.071462179065
1.172,0.45737450175777566,5908.668634243273
1.176,0.5550537912687407,5901.254901267255
1.18,0.640880312364425,5901.037836460324
1.184,0.6803615917308512,5896.351517002564
1.188,0.6550667447853544,5898.74315934656
1.192,0.5686276931113762,5903.933176288721
1.196,0.4451322675587285,5897.117603424156
1.2,0.32085117337240426,5906.152636429292
1.204,0.23217559930939374,5903.958096289326
1.208,0.2038103201683511,5907.449059859995
1.212,0.2407780151595441,5896.084828144431
1.216,0.32615806965702576,5902.453199303154
1.22,0.4249184507309452,5903.210987627524
1.224,0.492993354918107,5902.201350113732
1.228,0.48969598787745894,5895.562189819286
1.232,0.3906842727140709,5894.065352690166
1.236,0.19794695592467224,5898.494666201474
1.24,-0.0572260395287403,5890.299626682919
1.244,-0.32129158056691576,5892.902008215764
1.248,-0.5346685655534072,5900.96629716049
1.252,-0.6511270115538876,5899.886327099598
1.256,-0.6521620666992157,5898.072239609862
1.26,-0.5512561873460844,5897.08151020098
1.264,-0.3883628127957348,5900.692178469573
1.268,-0.21791723084787948,5903.76773300649
1.272,-0.09346726842849414,5898.632915526378
1.276,-0.05171435841727693,5903.598568719553
1.28,-0.09991379682237306,5905.843603636611
1.284,-0.21125332837345695,5905.398920574441
1.288,-0.3310631402573058,5896.914450678066
1.292,-0.3931795044127628,5896.019367465804
1.296,-0.3422402887502393,5900.986461827021
1.3,-0.15502578249418855,5904.737200886393
1.304,0.1471696094837206,5897.598819834709
1.308,0.5012629484356041,5902.174673871272
1.312,0.8206275466743181,5893.712848515696
1.316,1.0222165229144233,5899.423696834133
1.32,1.052113846999278,5900.512518498799
1.324,0.9005628470821061,5903.534049974851
1.328,0.6022952027259889,5901.434789840752
1.332,0.22329156006250825,5901.265354848564
1.336,-0.16032996517248008,5903.104710233375
1.34,-0.48311656876867504,5900.15608666343
1.344,-0.7039116305144764,5896.962770851388
1.348,-0.8100163209189266,5898.270514338891
1.352,-0.8138294800281802,5891.376764597609
1.356,-0.7450061004693213,5893.027044903684
1.36,-0.6402472774116376,5901.135888832483
1.364,-0.5326849197018758,5898.346123784571
1.368,-0.443620028062956,5895.415633936278
1.372,-0.37904028884832086,5910.8395413750295
1.376,-0.33130361781084083,5889.91652913763
1.38,-0.2843032697165617,5909.869771180131
1.384,-0.21978419649867564,5894.789287514207
1.388,-0.12304390185983709,5896.064359496446
1.392,0.012989886543647307,5899.498292462034
1.396,0.1857063659625407,5907.336406848633
1.4,0.38260474852370924,5903.407461820049
1.404,0.5827123336265231,5905.788414305151
1.408,0.760041676219489,5903.705460690527
1.412,0.8893023488308934,5900.049420886774
1.416,0.9522628773753885,5902.822487952408
1.42,0.9418566290252552,5898.487947502542
1.424,0.8623911833655069,5905.498094696044
1.428,0.7265870452845293,5895.148287473379
1.432,0.551053245516821,5901.139797252091
1.436,0.3514527364299777,5894.823719985541
1.44,0.13884356343206947,5908.227596388403
1.444,-0.08079045904861361,5895.541284207196
1.448,-0.3029554192843808,5903.88427418042
1.452,-0.5190129662218017,5902.193098950863
1.456,-0.7124968932795865,5889.197307825969
1.46,-0.8605527061288719,5896.846386955695
1.464,-0.9408169550894928,5899.346683395629
1.468,-0.9410341656415706,5904.523446901612
1.472,-0.8665720305567266,5892.7508254270215
1.476,-0.7407985141984907,5892.498964462367
1.48,-0.5964343098108431,5896.385950969348
1.484,-0.4616363117825316,5900.91092899819
1.488,-0.34851442982304565,5901.320465915321
1.492,-0.2504799577712963,5893.3774023003
1.496,-0.1493881554478566,5899.0067736522815
1.5,-0.028151743697880014,5901.140898564436
1.504,0.11761041683715348,5898.712886204729
1.508,0.2741538185770449,5886.73908714162
1.512,0.4125916212748112,5897.0695345711
1.516,0.4988341960449781,5903.663852403973
1.52,0.5061446596176535,5906.1801174464845
1.524,0.42509220302948264,5903.651459682034
1.528,0.2674095853082602,5899.395991727861
1.532,0.06346391637114603,5899.619625559135
1.536,-0.14445367705613607,5901.89290650036
1.54,-0.3102253369654408,5903.812368809348
1.544,-0.3913462578385636,5891.179092819862
1.548,-0.35474170800137933,5893.536905086869
1.552,-0.18110822433214074,5906.173663581297
1.556,0.13120820964581154,5898.158705376534
1.56,0.5621319943108505,5900.641225275571
1.564,1.0668228914207525,5901.429080923709
1.568,1.5768344445412918,5897.1567487906805
1.572,2.008377703502117,5904.314800023241
1.576,2.2779252792992595,5890.008900556177
1.58,2.3219747384382123,5902.32053437884
1.584,2.115419702234021,5898.684399951577
1.588,1.6822354245476443,5903.959982929561
1.592,1.0933390000927898,5898.150082918008
1.596,0.4501951896860471,5899.883986240817
1.6,-0.14159922755210685,5898.04467808079
1.604,-0.5998618668859268,5901.414472842766
1.608,-0.8850170590934195,5898.034698622006
1.612,-1.0052309964671953,5898.597691195702
1.616,-1.0073454302743725,5902.020298103702
1.62,-0.957846506569446,5895.1318137701
1.624,-0.9203213301069164,5889.269036612048
1.628,-0.9361673249451273,5901.252141530563
1.632,-1.013775377677516,5903.793367835238
1.636,-1.1284853653969473,5895.112060982698
1.64,-1.2324768289000854,5898.538763968456
1.644,-1.2710903880709055,5898.319644774313
1.648,-1.2003246059868065,5903.873570896523
1.652,-1.0004220595300692,5888.472061648281
1.656,-0.6827220259692572,5899.834268750547
1.66,-0.28952804404716326,5894.522857862757
1.664,0.11213221547164803,5905.401132544176
1.668,0.44189523648286316,5897.415836869357
1.672,0.6212005489648361,5897.267432367854
1.676,0.5897334593836745,5898.822477604513
1.68,0.3198675280317802,5906.231277187872
1.684,-0.17435187138705815,5892.255665337782
1.688,-0.8364007442053004,5900.238123355244
1.692,-1.57536013995157,5899.329366270024
1.696,-2.2807779080259416,5901.311043580502
1.7,-2.840452819016928,5901.283601725143
1.704,-3.1580148136989923,5894.330135341674
1.708,-3.1690096426972305,5907.628402839463
1.712,-2.854224445172554,5909.431816688817
1.716,-2.246758645182234,5897.41989533002
1.72,-1.4283632110031224,5902.3104465452325
1.724,-0.5139681428904133,5902.246633460089
1.728,0.37100269369296746,5903.645946078713
1.732,1.1130509275146114,5899.878478268491
1.736,1.6271024079513787,5900.865747397416
1.74,1.865305094566763,5891.391019952303
1.744,1.8189088296992835,5898.571782774318
1.748,1.5145515877358782,5902.522159549188
1.752,1.0064259043098243,5899.556329574112
1.756,0.36659010710740925,5899.998295771728
1.76,-0.3239383320790958,5903.127080635889
1.764,-0.9819049625000069,5901.108494909764
1.768,-1.5271038135194928,5904.461549568872
1.772,-1.8882933161404474,5896.206343967036
1.776,-2.0113109708944084,5907.770657461393
1.78,-1.8690300405785578,5906.5488633633
1.784,-1.4706005071087438,5904.697727031067
1.788,-0.8658903912842346,5894.634772656302
1.792,-0.1410311647696823,5909.6760229104
1.796,0.5964716975571219,5898.774044775926
1.8,1.2399475387699348,5892.096561925015
1.804,1.706415078905209,5903.402957783519
1.808,1.9535421209785906,5894.794725466985
1.812,1.9866987620534657,5894.041061630544
1.816,1.8544869004822873,5904.783597807604
1.82,1.6334882626059144,5903.77196759059
1.824,1.4062468215693316,5892.4894869208
