时间(s),电压(V),幅值(高频80K)
0.0,-0.33700635844542803,5895.478288257845
0.004,0.4407289992638233,5896.623371531561
0.008,1.1172829683337386,5900.225457907236
0.012,1.6174327582671268,5902.309900677826
0.016,1.8976895392910162,5903.400655333587
0.02,1.9515372586955173,5903.096142754799
0.024,1.8070569302077863,5902.184405307987
0.028,1.5174596373845117,5899.790901151426
0.032,1.146461861400841,5901.015723644689
0.036,0.752881640076972,5893.206842763152
0.04,0.3800663792902739,5895.472876497677
0.044,0.053151490665667274,5890.878841222557
0.048,-0.21780151008697557,5904.547540121939
0.052,-0.4333745681556003,5897.794589199168
0.056,-0.6015780554018559,5907.709823206601
0.06,-0.7343454207739905,5904.953039041603
0.064,-0.8413079441041087,5899.341088161317
0.068,-0.9218731812339324,5901.505756325289
0.072,-0.9602927764075303,5899.306660631123
0.076,-0.9278999062578691,5914.325646343505
0.08,-0.7924946833998326,5900.827942592579
0.084,-0.5309759468391594,5898.176695222078
0.088,-0.14055179495348094,5904.402393978224
0.092,0.3546148261692386,5901.910945173951
0.096,0.9030449545080755,5901.007505116405
0.1,1.4328770600634677,5899.534109419946
0.104,1.865761296294666,5902.007343385761
0.108,2.1347755236827846,5900.8209462615205
0.112,2.201034030889519,5900.281953693064
0.116,2.063394039203673,5899.276217773465
0.12,1.757832902587246,5900.885981540299
0.124,1.3465464794261788,5902.596004569316
0.128,0.9003706052706929,5892.444960965468
0.132,0.4807128612137249,5902.46832987945
0.136,0.12755495157942098,5899.147844671568
0.14,-0.14261625272470987,5899.467091758688
0.144,-0.3300722247144648,5899.1014611657865
0.148,-0.44197369738702974,5905.468797570186
0.152,-0.4859746279351224,5908.369375241524
0.156,-0.4703002659340698,5902.995158907765
0.16,-0.408084387372341,5903.820267496816
0.164,-0.32106867660741045,5905.906962733713
0.168,-0.238775230765606,5902.24112236002
0.172,-0.19217397747951073,5896.048344902823
0.176,-0.20410218064991156,5904.057602726102
0.18,-0.2812354869102327,5894.756433260514
0.184,-0.41228226476884783,5904.858809649401
0.188,-0.5733568139205137,5898.970727770464
0.192,-0.7371156647163838,5905.593708926673
0.196,-0.8810122930351125,5900.581618623143
0.2,-0.991874325335839,5908.236794833852
0.204,-1.0662874059880054,5894.688168535381
0.208,-1.1077516043828752,5901.220225898445
0.212,-1.1224508224229843,5894.292016338986
0.216,-1.115454231589614,5896.369251368761
0.22,-1.088077789403973,5896.007464440486
0.224,-1.0361935314206534,5892.047836957834
0.228,-0.9497734470660614,5894.055491277301
0.232,-0.8149800783137667,5896.965996905499
0.236,-0.619401912708722,5891.83800749668
0.24,-0.35849891762066194,5895.189188089692
0.244,-0.03981349070183531,5906.730584195674
0.248,0.3170940718122018,5899.351215809767
0.252,0.6843932257242767,5899.504381713669
0.256,1.031592190320706,5902.843404997809
0.26,1.331505852293331,5896.820694929574
0.264,1.5653806266484842,5907.903411104704
0.268,1.725677421783012,5905.247141060205
0.272,1.8149246889504493,5900.641401483474
0.276,1.8402117304142604,5894.690336660064
0.28,1.8055640710323018,5905.305394832081
0.284,1.7070028958571586,5902.322935752598
0.288,1.5346499396433897,5905.478790150184
0.292,1.2820037957914248,5902.921528482143
0.296,0.9574662024059379,5898.004101019168
0.3,0.5911719427180541,5895.207919913151
0.304,0.2323078378474288,5905.766971510726
0.308,-0.06315729864219634,5905.3417364594425
0.312,-0.24944160243971586,5900.415638589448
0.316,-0.3050269372896504,5898.6739840228165
0.32,-0.23766740319869908,5906.113980112155
0.324,-0.07900467537405327,5899.916336687592
0.328,0.12735803104886978,5900.5414009876085
0.332,0.33790117646478374,5902.777971597802
0.336,0.5160762244088736,5900.42390169773
0.34,0.6327990273484928,5894.102127070276
0.344,0.6637546312691434,5897.533304931319
0.348,0.5886728932664604,5905.5585645213005
0.352,0.3958547165657634,5894.172317417082
0.356,0.09073258937774219,5897.691006680341
0.36,-0.29671530649514377,5902.079209464823
0.364,-0.7115722139710298,5898.507706937002
0.368,-1.0836991702822933,5899.247845766496
0.372,-1.3461588736101902,5905.220125486188
0.376,-1.4566409929388826,5895.949999708026
0.38,-1.4135808381405073,5895.864654353014
0.384,-1.259295601474517,5894.029620482413
0.388,-1.0671996583103687,5895.646449068135
0.392,-0.9174753817971756,5903.09489728223
0.396,-0.8711509058193819,5898.161193236851
0.4,-0.95249599357988,5895.967624205389
0.404,-1.1445596305047614,5893.328107012046
0.408,-1.3967237383436086,5893.391230025713
0.412,-1.6395654796541075,5903.179169002348
0.416,-1.8014431501236856,5906.969598572864
0.42,-1.8223929955792186,5896.474457601103
0.424,-1.6635758272631553,5891.811411597077
0.428,-1.3130304058459437,5903.300355185796
0.432,-0.78878913699902,5897.111177881711
0.436,-0.1386987281766477,5908.08480396358
0.44,0.564892577309991,5899.070540963884
0.444,1.2364609085035547,5897.143354616587
0.448,1.793065495919248,5907.980223057146
0.452,2.1704354735640727,5899.971678342857
0.456,2.334368272410745,5901.771098427085
0.46,2.2844544264463043,5902.246953668839
0.464,2.0508768184291553,5893.416385063468
0.468,1.687096236548002,5897.431001489211
0.472,1.2604745717771937,5902.461663112876
0.476,0.8417338563412108,5904.925590352161
0.48,0.49440403718795584,5894.781355485594
0.484,0.2657304812802604,5903.819572250971
0.488,0.17975977604985793,5895.843512513297
0.492,0.23308920446610354,5904.7162295033495
0.496,0.39496904821707357,5896.058332278421
0.5,0.6136495783880608,5902.909755099726
0.504,0.8282290310081596,5890.749992739801
0.508,0.9822976139861579,5900.256956492944
0.512,1.0356392945474964,5894.979167039064
0.516,0.972284780321895,5895.098718576445
0.52,0.8042001168656646,5894.872828663119
0.524,0.5693442849462038,5897.397821580311
0.528,0.3231388084615652,5907.348467597694
0.532,0.1250189898227994,5903.455256261551
0.536,0.024781158216435725,5898.298927943918
0.54,0.05356778143119238,5901.492000377325
0.544,0.22079533493294567,5904.839668249416
0.548,0.5143591022047752,5906.837296134589
0.552,0.9008735079220342,5903.818529451516
0.556,1.3257167025172878,5906.501995489876
0.56,1.7159860726609486,5887.8279396374055
0.5640000000000001,1.9899907363361027,5893.695086344967
0.5680000000000001,2.073859409795103,5898.023742535632
0.5720000000000001,1.9211149878604095,5903.6602875738245
0.5760000000000001,1.5281682081491288,5898.422386920663
0.58,0.9398690361173019,5905.875819974594
0.584,0.2432563470072854,5893.20102284067
0.588,-0.4485026254157893,5905.236786349558
0.592,-1.0176900096700825,5896.29676058452
0.596,-1.3639229482324684,5896.733754731643
0.6,-1.4216587904861087,5889.777170432831
0.604,-1.1705516060605212,5900.720409292878
0.608,-0.6379969720938727,5900.008270293061
0.612,0.10572800570783408,5900.781924986713
0.616,0.9589557285409198,5894.972919810088
0.62,1.8053554718046774,5898.146274641678
0.624,2.533484328658923,5900.90807107481
0.628,3.055674814149577,5906.32391325232
0.632,3.321996748701886,5902.74772155003
0.636,3.325404489349537,5897.767901739826
0.64,3.09662913633472,5899.735051797724
0.644,2.691149635702453,5900.677302545427
0.648,2.173144777757436,5901.1308957459405
0.652,1.6011654590253375,5900.655563129066
0.656,1.0186119374833753,5902.853402746476
0.66,0.45080205654279537,5904.425590641458
0.664,-0.09062462109513246,5895.603455356639
0.668,-0.5972716580177285,5904.031668040349
0.672,-1.0519012996978978,5899.524526573907
0.676,-1.4211431666199201,5890.5145880351065
0.68,-1.6580696642874706,5891.713938029338
0.684,-1.7148291823501869,5897.329469928623
0.6880000000000001,-1.560056693622038,5901.157305061815
0.6920000000000001,-1.1932243563094822,5904.0648044835
0.6960000000000001,-0.6497972702238333,5897.74629729998
0.7000000000000001,0.004372384891332351,5901.289575712801
0.704,0.6864826814043726,5900.220564619772
0.708,1.313052958262144,5889.84957064733
0.712,1.8145345475504289,5900.482652416068
0.716,2.145390801916957,5899.301840740653
0.72,2.288290189991757,5898.070638364786
0.724,2.2521877665524452,5894.235893448781
0.728,2.065172325825876,5909.239796999778
0.732,1.7643265025431116,5902.789880169747
0.736,1.3859891986595805,5899.446489209649
0.74,0.9596447044687686,5901.021147188035
0.744,0.5068891196385699,5894.704745591668
0.748,0.04466583225097908,5903.926600291696
0.752,-0.4094035515982032,5901.520013296728
0.756,-0.8319864914394874,5907.942209513037
0.76,-1.191548841891764,5893.63902462124
0.764,-1.4505721548856614,5892.763127197049
0.768,-1.5736456625112227,5899.1977798008265
0.772,-1.5395105259354818,5895.135109039756
0.776,-1.3515093002181808,5896.342210222312
0.78,-1.0405341470471217,5894.584184569378
0.784,-0.6586873868551786,5904.36540589206
0.788,-0.2669194214842932,5904.115489322714
0.792,0.0782474867666244,5898.849230107902
0.796,0.3353915111426129,5897.804239029812
0.8,0.4849439983689293,5900.884514536119
0.804,0.5314960462083184,5905.704105929887
0.808,0.501004077671432,5892.784853952828
0.812,0.4328164373743913,5900.120827038336
0.8160000000000001,0.3683009490169859,5886.397983673124
0.8200000000000001,0.3398061702617151,5906.792966278657
0.8240000000000001,0.363943430182873,5899.345390798288
0.8280000000000001,0.44102059456704046,5902.203534415492
0.8320000000000001,0.5590787632598374,5896.576849821425
0.836,0.6988511499346959,5903.989046944533
0.84,0.8368874010630604,5899.350296576979
0.844,0.9472442801046129,5897.424399867577
0.848,1.0043477493210504,5902.621999474867
0.852,0.9884869242144241,5892.651344379237
0.856,0.8921830725009722,5901.664071855927
0.86,0.7239717605118652,5907.743984972378
0.864,0.5076123699612292,5897.167636582343
0.868,0.27750306556690163,5894.532848606831
0.872,0.07232446455091839,5906.107632506775
0.876,-0.07186766345793769,5905.469734897087
0.88,-0.12887459567919374,5898.208913769562
0.884,-0.08919101234657131,5894.565590973723
0.888,0.035729720218473024,5902.859520566147
0.892,0.2143647958498627,5904.442951104282
0.896,0.40204766980495593,5904.812151397715
0.9,0.5521173771961654,5896.847089862635
0.904,0.6277934487910837,5903.524412863441
0.908,0.61134874076487,5900.112392353233
0.912,0.5081594791053017,5907.424683745289
0.916,0.3443963131496015,5901.610165619023
0.92,0.15877160313911612,5896.224293156231
0.924,-0.008923158137143576,5893.599642642077
0.928,-0.12808550275831776,5894.780494744548
0.932,-0.18278305620307062,5894.829215624752
0.936,-0.17189193238412037,5900.315699707257
0.94,-0.10598072778599983,5898.4815575157045
0.944,-0.003311322853611307,5906.513035608862
0.948,0.11396202474935409,5902.629293583457
0.952,0.22324027038820918,5898.117206816452
0.956,0.30435638042411045,5898.730204494662
0.96,0.34130205106066897,5895.361875737405
0.964,0.32230901833014264,5895.286133064905
0.968,0.23873047413446272,5896.986318703847
0.972,0.08466147715685751,5900.12635875884
0.976,-0.14039731195588667,5893.4744381903765
0.98,-0.4258520237660565,5896.45711378997
0.984,-0.744908227481801,5897.61547568389
0.988,-1.0548014679216757,5897.939994932229
0.992,-1.3043041686285375,5904.8267745126695
0.996,-1.4460707447146142,5905.010224738843
1.0,-1.4487975787320106,5897.575536313226
1.004,-1.3046329308929832,5895.33052705911
1.008,-1.0299416321896164,5901.923494621789
1.012,-0.6606404926389603,5904.933481700046
1.016,-0.24503387213557262,5895.809741017233
1.02,0.16335733214433534,5907.822927543735
1.024,0.5120400523299757,5895.087203422028
1.028,0.755072953081822,5902.99084448199
1.032,0.8583841040889322,5900.23714245093
1.036,0.8050696480394278,5902.571665675663
1.04,0.5998245189028738,5894.1821756331365
1.044,0.2706382544161633,5910.044429706504
1.048,-0.13359752522206128,5905.317338689264
1.052,-0.5491454604412218,5896.929565328396
1.056,-0.9059273523838355,5896.207227149463
1.06,-1.1381039279057303,5889.677462435754
1.064,-1.1966506898900562,5912.513856968487
1.068,-1.0621013855490704,5896.001999318645
1.072,-0.7533580493775975,5896.780261118855
1.076,-0.32806361380830873,5897.643881785855
1.08,0.12790826864936833,5907.136694525252
1.084,0.5208118574779033,5895.233773034238
1.088,0.7744844245816389,5907.386030506866
1.092,0.8532131409894873,5895.642200763368
1.096,0.7737289047410948,5906.674248520273
1.1,0.6011348147409921,5899.634456208703
1.104,0.429386227993249,5898.369578905734
1.108,0.3524223086229335,5897.29684298051
1.112,0.43511328826353723,5897.650836110798
1.116,0.6934020134272638,5900.129504287115
1.12,1.090008429564041,5901.752976974909
1.124,1.5463062342507992,5891.789923636825
1.128,1.9652567074489906,5905.547248702077
1.132,2.2574960021756874,5900.25721852621
1.136,2.363041472815138,5897.337656371749
1.14,2.2631790129220337,5894.104961102972
1.144,1.9801423476666402,5901.882186701268
1.148,1.5659938846035222,5892.251532681155
1.152,1.0857134897505638,5900.057293747089
1.156,0.6010161376084938,5898.176051451304
1.16,0.15966594928622596,5902.743173836052
1.164,-0.20855758916597192,5896.653001225197
1.168,-0.49071096646066575,5905.062365582405
1.172,-0.6866008169012306,5890.150985813061
1.176,-0.8040613519716235,5898.853114346522
1.18,-0.8553428619205516,5896.343290838232
1.184,-0.85469852168795,5899.454961181578
1.188,-0.8160165436938985,5900.081388043363
1.192,-0.7503381199681747,5904.562981077103
1.196,-0.6648948986723016,5897.307172992571
1.2,-0.5650916499052492,5899.672805787224
1.204,-0.4587327594528357,5891.103377275839
1.208,-0.3600382436738836,5895.596853007699
1.212,-0.2907400772488258,5896.992833359027
1.216,-0.2764093950872075,5900.477007218478
1.22,-0.33781227185291257,5901.506296619068
1.224,-0.47944824776614287,5900.574564023106
1.228,-0.6798618340520348,5902.070663999611
1.232,-0.8893562754683002,5901.586058920128
1.236,-1.038811255349156,5889.091378359906
1.24,-1.0584410370578035,5896.3917398554495
1.244,-0.9002179130150794,5891.292185492499
1.248,-0.5557138811408253,5901.158892129181
1.252,-0.06290094889413073,5906.6741862360495
1.256,0.5009144310727589,5900.012090375224
1.26,1.0386078019985021,5903.6134868488325
1.264,1.4593702626681224,5905.760871511911
1.268,1.7026362036755445,5910.386153091737
1.272,1.751420285761303,5897.693713115173
1.276,1.6308643236211857,5903.514993671151
1.28,1.3940654230469924,5901.7447552125095
1.284,1.102541550611527,5901.511020238258
1.288,0.8099286151068792,5898.807653257579
1.292,0.554156030337395,5891.197373897246
1.296,0.35809732206883044,5899.82894816122
1.3,0.23492915919367383,5900.216439727777
1.304,0.19358600424576383,5897.580188813729
1.308,0.24098584516328705,5903.926449639492
1.312,0.3797620342092203,5903.070465629796
1.316,0.6025425025593812,5897.346294002324
1.32,0.8861137595694795,5894.727406984496
1.324,1.18978021266996,5906.105685338904
1.328,1.460506885319794,5894.967303319194
1.332,1.6439411470156235,5906.477504185485
1.336,1.697731146842962,5891.667239135062
1.34,1.6027571247957455,5895.522129824458
1.344,1.3682022041287003,5887.991482960584
1.348,1.0279577469836054,5901.067450663654
1.352,0.6295537803192366,5898.097230154761
1.356,0.2209423072359452,5901.502666009309
1.36,-0.15870120319012093,5896.032255340359
1.364,-0.4814452581010123,5896.9170720697375
1.368,-0.7281587024525141,5897.072848778185
1.372,-0.8851699702777074,5898.987659374641
1.376,-0.9432614221235973,5900.064654799491
1.38,-0.8997043373165803,5893.136104843643
1.384,-0.7614339366542889,5903.109610917429
1.388,-0.5463781288026629,5897.069568006356
1.392,-0.28106716908515783,5897.630816096137
1.396,0.005012847133705955,5905.193063322389
1.4,0.2861902985749461,5895.000853349228
1.404,0.5463342181230847,5899.672128322989
1.408,0.7820784782053147,5906.584887812988
1.412,1.002260028844294,5901.249584578103
1.416,1.2224004360751148,5897.220369740975
1.42,1.4546995488746863,5894.792894253099
1.424,1.6970738984996399,5899.819950629296
1.428,1.9269092226815594,5905.43575995254
1.432,2.104162361410326,5900.7823284516
1.436,2.1840732607582485,5903.737621892364
1.44,2.1342428483853855,5896.058783065478
1.444,1.9478651092147001,5903.687534144086
1.448,1.6470883487685448,5904.717695809363
1.452,1.2764517540372895,5897.2447696072
1.456,0.8911602725031937,5899.438516274982
1.46,0.5450829873259052,5903.673260617794
1.464,0.2804478064805221,5903.069204397862
1.468,0.11945352020011549,5898.318995492641
1.472,0.05899270840950912,5903.931453105358
1.476,0.07125189561543274,5897.1410038891645
1.48,0.11228683072733114,5892.099005764301
1.484,0.1372238095594168,5895.33270353843
1.488,0.1167529272204701,5907.0883416071065
1.492,0.047974897290066015,5914.887405971632
1.496,-0.04536352336537835,5908.124551630356
1.5,-0.1236474248937453,5901.704316691399
1.504,-0.14859166194011741,5895.756278354575
1.508,-0.09935899474853034,5901.003372069475
1.512,0.01887258939159282,5903.7603406997405
1.516,0.17599189108796856,5899.506860019819
1.52,0.3252987516327316,5895.204091218883
1.524,0.41523462395009075,5892.811910468713
1.528,0.401891510594015,5907.826704033381
1.532,0.26065981213447664,5896.449664955478
1.536,-0.00537963408021137,5887.217153411853
1.54,-0.3632091735006971,5894.88758345542
1.544,-0.7552624841724835,5903.598608296407
1.548,-1.1117480968359437,5898.330804598108
1.552,-1.3675036178126445,5895.3599692082325
1.556,-1.4793410996518361,5898.583055027079
1.56,-1.4383376026487893,5892.421695558416
1.564,-1.2720384933858384,5902.343057296464
1.568,-1.0351954635068452,5906.707704276816
1.572,-0.792529258863938,5906.393430675324
1.576,-0.5998806008763686,5896.272344960535
1.58,-0.489747153377614,5906.686205348666
1.584,-0.4650150202362387,5898.038545678247
1.588,-0.5022780825073418,5902.645117816535
1.592,-0.5633202927044764,5893.263727220915
1.596,-0.6100348010708547,5896.195409507298
1.6,-0.6164427785841349,5906.236746869715
1.604,-0.5736148772654934,5902.40101441307
1.608,-0.48774573974177493,5901.120261027813
1.612,-0.3747924442063756,5895.411874363289
1.616,-0.2551401444368534,5889.365087430883
1.62,-0.14973896580506602,5893.224467479131
1.624,-0.07716865386251173,5902.719030469977
1.628,-0.05057130101276845,5897.274963235048
1.632,-0.07435852333974909,5903.1683681064815
1.636,-0.14181686500660687,5900.233157060406
1.64,-0.23503888416261637,5901.003091537149
1.644,-0.3279326067975046,5904.983357781625
1.648,-0.3919322208380355,5894.111740138059
1.652,-0.40292685166875203,5904.967640890065
1.656,-0.3473133683398616,5907.942396653393
1.66,-0.22509899254556348,5903.139188941924
1.664,-0.04853545885025917,5899.414139757679
1.668,0.16375043544997792,5906.7380886999
1.672,0.39475991013450396,5894.119751496127
1.676,0.6351673650929581,5895.162772472465
1.68,0.8839825891012865,5901.083188600097
1.684,1.1432153526461923,5905.03190294931
1.688,1.409191309670517,5894.050855014564
1.692,1.665221554308463,5900.606397429085
1.696,1.880075256698537,5897.711775257008
1.7,2.0139868939414063,5905.2051756756655
1.704,2.030012011194036,5902.62521452225
1.708,1.9057904716714904,5899.299464750368
1.712,1.641171720013345,5899.509018147552
1.716,1.2603139391522413,5908.5007948182565
1.72,0.8096485259949768,5904.63961110274
1.724,0.3528531313359722,5901.800835551217
1.728,-0.03793467939396806,5906.680849379618
1.732,-0.29550276873302406,5901.140260523176
1.736,-0.37389522435743405,5899.349955348058
1.74,-0.26333801571405224,5891.671827032134
1.744,0.001747568536253685,5888.790234135827
1.748,0.34645561858116375,5893.800782021943
1.752,0.6723961294220733,5897.694112345186
1.756,0.8837876284081959,5900.870024148493
1.76,0.9135233993200766,5905.404633261616
1.764,0.7403205867443962,5903.619475881486
1.768,0.3930850758319752,5893.000651023659
1.772,-0.05646634545209935,5896.860239658798
1.776,-0.5102041852109197,5897.281917206748
1.78,-0.866140906442086,5897.8886177757295
1.784,-1.04304167841563,5909.656777851694
1.788,-1.0009566674300532,5896.255526461624
1.792,-0.7512813215634068,5901.327571199874
1.796,-0.35320547119280665,5893.381035441291
1.8,0.10126146200666161,5899.849856755644
1.804,0.5079152634738183,5898.553899467875
1.808,0.7713190507985188,5904.104756969714
1.812,0.8234831146523912,5902.430989834899
1.816,0.6388751986942738,5905.2726537977405
1.82,0.2430841347313122,5896.953493771375
1.824,-0.28880669751070476,5907.487463813558
