时间(s),电压(V),幅值(高频80K)
0.0,2.6917807381447907,5903.138544929814
0.004,2.0386892799638265,5897.160896721678
0.008,1.3883105210089712,5899.843177199933
0.012,0.7512514012834952,5903.599612971225
0.016,0.1419460312178103,5898.4242103249935
0.02,-0.421259944683233,5893.641626254101
0.024,-0.9161325326487881,5900.618226376852
0.028,-1.3174430692341725,5901.730201579817
0.032,-1.6006696821418347,5900.148468631895
0.036,-1.7492340621640958,5899.944020303828
0.04,-1.7626276509124106,5895.136985375677
0.044,-1.660401595259297,5895.3590218912905
0.048,-1.4787087802268215,5895.70479254617
0.052,-1.260962623305704,5905.9777854759295
0.056,-1.0473905179678367,5906.843894174821
0.06,-0.8669829870400165,5899.093865394189
0.064,-0.7325549363546151,5900.583170645011
0.068,-0.6392797758117789,5899.074558857902
0.072,-0.5680400641514944,5897.475842071345
0.076,-0.4937251413693103,5899.530055106218
0.08,-0.3954144079208924,5909.1630401498605
0.084,-0.2638039949675181,5889.78704712411
0.088,-0.10294325321642572,5898.168662333364
0.092,0.07346262919757085,5890.673251071435
0.096,0.2485661686849621,5899.72095158217
0.1,0.4083258267167713,5899.373522651853
0.104,0.5441300993115797,5894.695217784853
0.108,0.6511083751233678,5900.333895140914
0.112,0.7236975373057154,5898.144376444348
0.116,0.7521286282037571,5898.5652614233695
0.12,0.7233379718129402,5904.947847224139
0.124,0.6268931896816222,5906.8737889808845
0.128,0.4627316967793305,5905.794463221196
0.132,0.24595437193355044,5896.674107360974
0.136,0.006073512229239008,5904.62074399458
0.14,-0.21827129379812774,5904.439599938625
0.144,-0.3867492598697264,5901.591315578356
0.148,-0.46589238891000173,5900.38905650627
0.152,-0.4386247707203437,5902.703909148423
0.156,-0.31277829881814156,5898.278358423572
0.16,-0.1236992502599869,5898.332431155683
0.164,0.07391097632835719,5895.524008756046
0.168,0.22465403907696657,5901.03929644257
0.172,0.29396616828227057,5898.593322588709
0.176,0.2814820815899581,5901.717990035565
0.18,0.2190649665282674,5905.217176057566
0.184,0.15441308747262092,5903.249275549432
0.188,0.1276833038288537,5903.991519299975
0.192,0.15093091177344226,5900.358357790814
0.196,0.19914525127335206,5906.552173198245
0.2,0.21783337959875373,5897.632960543179
0.204,0.145415408493372,5892.681744258904
0.208,-0.058502942253770666,5896.748262675063
0.212,-0.39119160827174754,5896.854918756444
0.216,-0.8006412643051286,5898.415535602852
0.22,-1.19778094182675,5893.560759005108
0.224,-1.4823132177589828,5904.529101966357
0.228,-1.5727905218977376,5903.0294461826
0.232,-1.431139993593855,5901.741860524569
0.236,-1.0743950462033065,5902.006098854358
0.24,-0.5700954521150988,5907.961973249266
0.244,-0.016840223683274515,5910.100558748453
0.248,0.4827330933362639,5904.790255805236
0.252,0.8464414877122521,5902.603719462682
0.256,1.0271690596333065,5902.143826429319
0.26,1.0162141529756026,5914.485998730165
0.264,0.8386390868990437,5900.596852161949
0.268,0.5448366632767127,5899.025590331366
0.272,0.2007760075593771,5902.329931119924
0.276,-0.12235241991002842,5902.097651961944
0.28,-0.35867916358119134,5902.882573280359
0.284,-0.4575505948271169,5901.639373207932
0.288,-0.3917505703157448,5897.859093414898
0.292,-0.1629512232459644,5905.067862813435
0.296,0.19710610039343934,5904.541560097966
0.3,0.6312905907508262,5896.757089266934
0.304,1.067529413371818,5894.344718288806
0.308,1.4318272713671147,5897.608321804112
0.312,1.6592273181994421,5902.435226285031
0.316,1.7004728599689714,5906.483678070527
0.32,1.5263324968225187,5898.623606778984
0.324,1.133298010755517,5896.301906637492
0.328,0.5515581714502921,5904.684427424316
0.332,-0.1489876753007588,5901.443231386635
0.336,-0.8617877415303482,5910.478827422017
0.34,-1.4606125123303568,5900.533255618107
0.344,-1.8288758532987914,5898.006835687341
0.348,-1.8927326329027223,5905.8584863899305
0.352,-1.6455309382339662,5896.6656464489815
0.356,-1.1527974640727858,5899.292454616161
0.36,-0.5339631415066992,5892.704870214085
0.364,0.07336443761232424,5895.464747577621
0.368,0.5534650655918734,5902.215952062545
0.372,0.8425437759012981,5900.047893819767
0.376,0.9391106225327863,5898.610705711894
0.38,0.8928689578364519,5903.217656747996
0.384,0.778242368877103,5899.952321127861
0.388,0.664310209715431,5897.01144649749
0.392,0.5935205456873558,5895.820256203674
0.396,0.5760945750326448,5901.843118363747
0.4,0.5985571361617735,5911.137307662171
0.404,0.6386060419832464,5904.604389776922
0.408,0.6776967671798397,5902.528790776779
0.412,0.7062358463325717,5903.273947380022
0.416,0.7209809806958709,5893.775316195418
0.42,0.718056675194932,5894.26741260613
0.424,0.6871359268849527,5909.672533745167
0.428,0.6115779626175949,5901.196715998658
0.432,0.47525336109127103,5902.966284158396
0.436,0.27220075806547817,5897.951797341523
0.44,0.013662111553792329,5897.978202631685
0.444,-0.2711725004909319,5901.230162109155
0.448,-0.5412725588608827,5899.084361217462
0.452,-0.7545609973356326,5900.499568378753
0.456,-0.8795816358996036,5897.95054517293
0.46,-0.9039839830433093,5902.042205814662
0.464,-0.837058203176793,5900.888147252045
0.468,-0.7060630165397335,5890.453459166597
0.472,-0.5486002803474208,5903.749666816898
0.476,-0.4041345953134707,5908.106938132034
0.48,-0.3065893511360676,5899.16846497054
0.484,-0.27842051746507346,5894.403615474975
0.488,-0.32634715211192744,5900.702431642596
0.492,-0.43959078905043275,5902.744304223162
0.496,-0.591500310060303,5899.616703032514
0.5,-0.7446198758706422,5903.614404303477
0.504,-0.8585305047767593,5904.244558510505
0.508,-0.8991217464016145,5908.091117824823
0.512,-0.8468227547255278,5906.260070257471
0.516,-0.7008620201721816,5900.571436884397
0.52,-0.4782800251160422,5896.966397314645
0.524,-0.20890946859220547,5910.095287330108
0.528,0.07170399901233282,5901.280334082089
0.532,0.3301578135904093,5893.597143394911
0.536,0.5423300149093088,5903.843354836221
0.54,0.6971761763258092,5907.757630456344
0.544,0.7949214287488194,5906.760442878842
0.548,0.8401565594751806,5904.268584579853
0.552,0.8337014016349276,5898.520753365976
0.556,0.7684349879040682,5897.919656439142
0.56,0.6323320597666959,5903.794079300061
0.5640000000000001,0.41766082376775443,5895.430881983872
0.5680000000000001,0.1313746767536349,5906.415118908097
0.5720000000000001,-0.19928905328451627,5901.397497832062
0.5760000000000001,-0.5295923540979693,5889.529489260912
0.58,-0.8079495982713568,5905.653787315962
0.584,-0.9904567187328503,5905.21559677932
0.588,-1.0539161268512567,5898.826884672847
0.592,-1.0029293712590006,5891.8743766990665
0.596,-0.8689490981452391,5904.481169445739
0.6,-0.7016187528669209,5897.267780782455
0.604,-0.5549517354303585,5892.782879654913
0.608,-0.472744591805355,5903.0410481826175
0.612,-0.47796237546219816,5907.38602937425
0.616,-0.5689290590755992,5909.091030170547
0.62,-0.7222254457682725,5915.15628528551
0.624,-0.9002378044155599,5899.382716571958
0.628,-1.060833170412385,5892.166082857158
0.632,-1.1668848017927587,5893.97628216381
0.636,-1.1939572004618204,5902.751360705197
0.64,-1.135236302914462,5915.646891059037
0.644,-1.002956611026669,5901.5448551677
0.648,-0.8251089440107636,5903.614169372886
0.652,-0.6368899065292406,5899.486113007467
0.656,-0.4690570620122036,5912.008496399367
0.66,-0.33786079312423223,5898.287598614506
0.664,-0.24100376135084106,5895.891996898395
0.668,-0.16144331859247749,5905.018848590009
0.672,-0.07748366831869363,5902.240438172649
0.676,0.025416623362449205,5900.4990384694165
0.68,0.1469353549025981,5893.237788175259
0.684,0.2719631782187026,5905.697239976197
0.6880000000000001,0.377546713408021,5901.38680801334
0.6920000000000001,0.4421876954465143,5901.949493153875
0.6960000000000001,0.4530209381952176,5904.672233602561
0.7000000000000001,0.4091748452747006,5899.816627081583
0.704,0.32206736133158814,5900.882216242236
0.708,0.21362995342757943,5904.362581430795
0.712,0.11236092629702099,5894.939830387139
0.716,0.04659477684558531,5899.104352238031
0.72,0.03538142706212806,5907.932269205288
0.724,0.07973685085867592,5899.757223300946
0.728,0.1592903374499798,5913.837477141495
0.732,0.238624593234448,5906.291546742041
0.736,0.28240025194749035,5912.047156787938
0.74,0.2718743687957012,5896.977801843716
0.744,0.21335917617195665,5901.438716689671
0.748,0.1337050690285154,5900.734646917823
0.752,0.0655962459359424,5902.710700104437
0.756,0.031027302177647313,5891.555342688429
0.76,0.031739853870818284,5895.844115658648
0.764,0.05084884422806083,5900.1832028376175
0.768,0.06330687738106981,5896.133477476643
0.772,0.04843155111559225,5897.393348219469
0.776,-0.002058442317824553,5902.076581707265
0.78,-0.08329962694148388,5898.383513588775
0.784,-0.18242771347606618,5904.151296883572
0.788,-0.28579906125362436,5897.898635226367
0.792,-0.3843393622591419,5895.813399951455
0.796,-0.47449040556376915,5912.012614592147
0.8,-0.5543957899088467,5897.963449899944
0.804,-0.6174540934688008,5906.0354712294975
0.808,-0.6474013569961031,5900.567409239012
0.812,-0.6191024737470917,5889.667938892233
0.8160000000000001,-0.5063791488139294,5902.123234834638
0.8200000000000001,-0.29404786519215426,5903.797187712062
0.8240000000000001,0.011284659648299887,5907.201013662873
0.8280000000000001,0.3770168992484927,5899.616100786062
0.8320000000000001,0.7501263763171095,5900.192076314725
0.836,1.0719363777708306,5896.542873753886
0.84,1.2966403455429807,5908.37349776481
0.844,1.4050030465294083,5912.680926794823
0.848,1.4065970051445529,5902.031382059336
0.852,1.3303238282456973,5902.292512402732
0.856,1.2089115439785398,5902.86465400203
0.86,1.0647398520316431,5904.977103071306
0.864,0.902412387402801,5909.134583671866
0.868,0.7105481297929869,5896.450705070815
0.872,0.47223258026572357,5899.552022381507
0.876,0.1802569030858261,5900.015235398222
0.88,-0.14950372529230066,5906.175328779797
0.884,-0.4736400123133736,5902.136761360291
0.888,-0.7297062612358214,5900.260964539987
0.892,-0.856029177913978,5905.999212142101
0.896,-0.8154115794668179,5902.842895575668
0.9,-0.6122799249580915,5903.545219899211
0.904,-0.2947095669062963,5907.673371318403
0.908,0.06039803857225602,5901.949765668595
0.912,0.37236595650665066,5906.194617679058
0.916,0.5808727550161047,5895.100501686122
0.92,0.6601644443843009,5901.259641584361
0.924,0.6208836855012526,5901.483036938308
0.928,0.5025909838681436,5902.05666096939
0.932,0.36135679181451996,5906.398694894965
0.936,0.25530629543102273,5902.1011345523375
0.94,0.22968978757738148,5899.368213901603
0.944,0.30331767162918183,5896.67709960951
0.948,0.45983912418602596,5895.93794243822
0.952,0.6484831485705318,5901.941109667153
0.956,0.7969073893705668,5909.887238991956
0.96,0.833826963484138,5889.634491883731
0.964,0.7143642981432918,5899.15102838466
0.968,0.43916465899943535,5909.902633191041
0.972,0.05970757767788841,5907.627266306527
0.976,-0.33331337585499954,5906.621058352338
0.98,-0.6352502981740387,5904.629075768779
0.984,-0.7577408844928774,5906.447799528095
0.988,-0.654094732398663,5899.321938785751
0.992,-0.3329062985438244,5899.071662470763
0.996,0.14299344921745633,5890.227394056499
1.0,0.6717219639255609,5904.373664882527
1.004,1.1376136570960147,5900.885273355507
1.008,1.4390743134501376,5908.523404397657
1.012,1.5106196066278077,5900.9817543569925
1.016,1.333729261367766,5908.684874553684
1.02,0.9362243659115446,5906.84892842115
1.024,0.3836701886091769,5895.067434650468
1.028,-0.23304865065707753,5896.038968085901
1.032,-0.8116603436211467,5894.624194284246
1.036,-1.2536858449400474,5898.844929344618
1.04,-1.481001369835232,5903.544019954081
1.044,-1.4523334485439647,5907.82640773625
1.048,-1.1759152336271803,5900.513562286734
1.052,-0.7131831305042285,5915.8888239418175
1.056,-0.16915621914483484,5898.402832580196
1.06,0.3315159494358341,5905.459042337581
1.064,0.6783037717430825,5905.668261440846
1.068,0.8079998969497187,5901.100748675901
1.072,0.7243495434061028,5904.228944996843
1.076,0.4945823356578729,5906.267787834894
1.08,0.2227739133892638,5906.371358388487
1.084,0.010616757174626996,5903.315418105765
1.088,-0.07825376588427327,5910.7563728343575
1.092,-0.0366756144573142,5899.673799200306
1.096,0.09020391549456715,5900.34267992231
1.1,0.22757194252846122,5902.05438246306
1.104,0.3019485601275081,5898.448352505466
1.108,0.2694244055783939,5901.6294990697525
1.112,0.132761839351089,5902.998523400931
1.116,-0.05679794270532833,5905.108528870703
1.12,-0.2128815438329517,5905.356019914011
1.124,-0.23851710324631903,5905.9442452767325
1.128,-0.05501621760961119,5902.015132377204
1.132,0.37287684750080186,5899.850678164624
1.136,1.022603987211538,5905.682755520058
1.14,1.8139298372674086,5899.983691750871
1.144,2.623066287514476,5896.8611169350925
1.148,3.3067056243304287,5904.686482956267
1.152,3.730242167229045,5906.40757630558
1.156,3.7948135337042586,5899.065207310686
1.16,3.458918961638628,5904.462363112463
1.164,2.7510355228935643,5902.203956921964
1.168,1.7701617855586913,5893.840681859025
1.172,0.672394710915272,5901.752303565729
1.176,-0.35640406306285444,5886.824665884738
1.18,-1.138697105853607,5906.531509739805
1.184,-1.5464512980944187,5902.274171851755
1.188,-1.5338974147313766,5894.611405777982
1.192,-1.1507129944001093,5898.598291933308
1.196,-0.5301710259449074,5900.503046622046
1.2,0.14497596875513707,5902.685792985761
1.204,0.6894616976819956,5904.209571527092
1.208,0.9628523177025786,5896.423032306519
1.212,0.904874135335724,5909.010740630245
1.216,0.5488570835515655,5898.681808172059
1.22,0.008850574008752776,5908.743576577364
1.224,-0.5558656063372133,5905.748160590626
1.228,-0.987103524985179,5897.804307228312
1.232,-1.1696785442196833,5899.085013244123
1.236,-1.0569205220353302,5907.069751227784
1.24,-0.6754836266731333,5904.752637223278
1.244,-0.1125589171205042,5908.506114804469
1.248,0.507756047412099,5905.830443538809
1.252,1.0524908642792852,5910.045599469651
1.256,1.4075134879509636,5903.510787770146
1.26,1.5005480594462024,5900.617539056605
1.264,1.3143707938869327,5905.611684594404
1.268,0.8863284881841693,5905.740523879004
1.272,0.295071564780597,5898.956049151058
1.276,-0.35949942469682056,5905.0945430376605
1.28,-0.9758196943914923,5902.395795945036
1.284,-1.4655629440866216,5901.093343709166
1.288,-1.763630274455319,5893.875293261393
1.292,-1.8346673216721563,5890.790294840701
1.296,-1.6766249788015308,5896.642541772463
1.3,-1.3204900618792559,5904.116021138321
1.304,-0.8254751722223206,5909.917643466396
1.308,-0.27056840698339757,5901.727516548992
1.312,0.2556608294003122,5906.102432305809
1.316,0.6661942863552905,5892.180473490129
1.32,0.8884985502870794,5904.991504606264
1.324,0.8794078190205201,5897.526244523371
1.328,0.6386742196599147,5896.975005268264
1.332,0.2150335352003442,5898.333472733326
1.336,-0.30030876160406533,5910.86338366113
1.34,-0.792943890237893,5905.995835546664
1.344,-1.1519395009556739,5897.193514019876
1.348,-1.2957852663312928,5899.758553389127
1.352,-1.1902393965127136,5892.597953826663
1.356,-0.8539883314948385,5909.847597962094
1.36,-0.3520790450900078,5912.962843429977
1.364,0.21982750510311408,5902.096101230283
1.368,0.7560933698716519,5906.32571398204
1.372,1.1622626007492962,5895.538330310947
1.376,1.3723742145082611,5902.498937136879
1.38,1.3585713808879452,5897.956149709458
1.384,1.131337523926847,5901.036721700265
1.388,0.7318888781235522,5898.312184035895
1.392,0.22030611985706022,5896.241211144199
1.396,-0.3367803695408473,5897.108453105148
1.4,-0.8758225963301971,5908.177737025902
1.404,-1.3416384542133473,5902.375841316579
1.408,-1.689107445501749,5908.457372025398
1.412,-1.8841426026959116,5904.971691562089
1.416,-1.906856940397325,5911.053636132694
1.42,-1.7576231053819937,5900.493015480084
1.424,-1.463499876538297,5898.855976071697
1.428,-1.0801579910850607,5901.883517807769
1.432,-0.6848104491829456,5906.017993196691
1.436,-0.35939895344886247,5905.77027214604
1.44,-0.16870942872999795,5902.972802105667
1.444,-0.14175704475653558,5899.868099712163
1.448,-0.2641167031971311,5907.472293279106
1.452,-0.48407872246887645,5899.955292068877
1.456,-0.7292565274144162,5900.0905715824365
1.46,-0.9260975292380468,5893.229704598394
1.464,-1.0150733827940697,5908.007432317086
1.468,-0.9586502196167794,5904.079092697903
1.472,-0.7439541241254796,5890.424920638447
1.476,-0.3835164882429935,5899.4077558002655
1.48,0.08502983292813933,5905.153868602163
1.484,0.6025904135778719,5911.166750150914
1.488,1.0979302739642283,5897.112801226255
1.492,1.5019281673040348,5897.207552084263
1.496,1.7627480567872464,5897.852577047122
1.5,1.8568721369936831,5898.9522139732135
1.504,1.7925205619254525,5902.663034423883
1.508,1.6050571813147645,5892.24421940386
1.512,1.3465777295387562,5899.551155069405
1.516,1.0727459966323092,5896.28160921287
1.52,0.8298899411642349,5896.574657132427
1.524,0.6457130261570326,5898.800300607708
1.528,0.526863454559805,5889.153530286806
1.532,0.46404962159918217,5904.379358051361
1.536,0.4412367672005843,5893.57016674053
1.54,0.44343179544675254,5898.404089639186
1.544,0.45948263952762797,5913.006269345871
1.548,0.48004118922479966,5904.680060566577
1.552,0.4935155373288161,5901.783112276753
1.556,0.48354484915181045,5898.387387990049
1.56,0.4305265988861668,5904.11387119326
1.564,0.31758019015442335,5907.064726991197
1.568,0.13908576443069237,5908.2958891168
1.572,-0.09150996898492693,5908.634040645548
1.576,-0.3385228169694882,5900.4130185470985
1.58,-0.5489777095655486,5908.235616251845
1.584,-0.66683992936168,5902.455879461837
1.588,-0.6532975843295162,5912.4918282452845
1.592,-0.5051901477820876,5904.472716574479
1.596,-0.2620411120890646,5895.092930630724
1.6,0.0039654507081864025,5910.658256272771
1.604,0.21254766408317757,5906.762940311354
1.608,0.3043621461022862,5897.043337177574
1.612,0.2622667470569424,5899.402994132508
1.616,0.11666790957005893,5905.381566825407
1.62,-0.06588993270214169,5899.769842244979
1.624,-0.2056380876319788,5903.28525964539
1.628,-0.23613540669215036,5891.404094261173
1.632,-0.12667883414920958,5899.038538603386
1.636,0.10592070072799374,5896.340068547258
1.64,0.40032409803651053,5906.366812978748
1.644,0.6686020930032223,5907.731901428237
1.648,0.8243509711046636,5907.599213324088
1.652,0.8120141094346099,5899.876351348881
1.656,0.6270198451908595,5899.46264178138
1.66,0.31881636853352985,5902.213662375671
1.664,-0.02513291500093605,5903.86923208662
1.668,-0.30886211492587085,5896.972704430057
1.672,-0.4596899379230127,5897.995200676444
1.676,-0.450030939360085,5904.7919755976045
1.68,-0.3014900688251922,5904.006551920177
1.684,-0.07166822386371284,5900.200680809146
1.688,0.1682789689840991,5902.470677366686
1.692,0.3547270075365585,5899.054797158659
1.696,0.4442637005068677,5905.457331094895
1.7,0.4171583791583959,5906.581168004727
1.704,0.2753753521080246,5899.295816263203
1.708,0.0397190959473223,5909.250205631233
1.712,-0.2517780571026208,5906.247165810794
1.716,-0.5457038113782618,5904.381304306434
1.72,-0.7785775914003862,5896.335258995697
1.724,-0.8872268937226697,5901.730659816929
1.728,-0.822195126540418,5902.426190484912
1.732,-0.5596846494167683,5900.359833198687
1.736,-0.10820307105456387,5903.349530316933
1.74,0.49142878953609564,5894.451534423155
1.744,1.1723037170506871,5905.5479678232105
1.748,1.8528315188141502,5903.548535442204
1.752,2.451375203567198,5896.148590042402
1.756,2.9008576828994688,5904.448978932436
1.76,3.1592932856641225,5896.893976186104
1.764,3.2129434248647994,5904.193772035299
1.768,3.0716528245064323,5902.509368316499
1.772,2.759795115477202,5901.882175076622
1.776,2.3081780345046212,5901.185386091167
1.78,1.7504908796871776,5909.095515303589
1.784,1.1240750918438467,5910.256861678244
1.788,0.47185824716093566,5911.79824888642
1.792,-0.15835607026873366,5903.7887124509325
1.796,-0.7193782758366485,5903.844754976186
1.8,-1.1738233903722533,5902.497702067793
1.804,-1.502952597467846,5905.7139368333055
1.808,-1.7103644224371917,5898.738969149017
1.812,-1.8178620952255755,5906.849232475431
1.816,-1.8548183918878658,5894.296936435262
1.82,-1.8459183645356494,5904.085891027881
