时间(s),电压(V),幅值(高频80K)
0.0,-1.6359248480728783,5906.478481049659
0.004,-1.6003799683050224,5895.5050614042175
0.008,-1.5817124209179991,5904.449145251743
0.012,-1.5885638011119352,5899.215103206712
0.016,-1.6102727078815422,5900.602820899909
0.02,-1.6196612438917497,5901.24020266673
0.024,-1.5829483838465768,5900.062096676785
0.028,-1.4729072181691074,5891.755941983139
0.032,-1.28120857352375,5896.757131037217
0.036,-1.025158443119129,5895.824858989578
0.04,-0.7440655800799432,5907.392169092051
0.044,-0.4843542646029487,5900.805639411998
0.048,-0.27958653579205334,5903.924425204892
0.052,-0.13619636084810158,5897.544642406498
0.056,-0.03309602883482818,5899.588833977752
0.06,0.06529780924014958,5892.91165828322
0.064,0.19101512653026945,5898.345675277758
0.068,0.35936837483273,5892.3754391460025
0.072,0.565776729449867,5906.004833286594
0.076,0.7913301811611512,5898.548120453291
0.08,1.012316734123365,5898.3396883805935
0.084,1.2089743958727484,5904.457190928405
0.088,1.3703364091025592,5889.433932387083
0.092,1.4936739462443167,5905.15134285879
0.096,1.5790309075234628,5902.429097502698
0.1,1.6219147376571132,5890.821701538331
0.104,1.6087727625082204,5904.5018127197445
0.108,1.5185996063942175,5900.363587057572
0.112,1.3304048553621304,5900.527260261277
0.116,1.0331512164482035,5898.896268098404
0.12,0.6342085400726107,5893.813488069465
0.124,0.16356513469181055,5902.49220034884
0.128,-0.32777799801754837,5897.464645034567
0.132,-0.7758364954466683,5905.639105561936
0.136,-1.1171496937220644,5910.190945945578
0.14,-1.3046823113770205,5900.903236389778
0.144,-1.3213444734043833,5896.143809181429
0.148,-1.186353753262335,5901.36905716596
0.152,-0.9518418186714147,5904.393276695259
0.156,-0.6903940884287894,5901.2715497796935
0.16,-0.4768453688983204,5893.8701961605975
0.164,-0.3690671359476236,5901.069578952356
0.168,-0.39297248618167796,5897.662334071413
0.172,-0.5361142746936448,5900.624219319037
0.176,-0.7516833225600241,5905.4893216450655
0.18,-0.9715201822497487,5894.328279882678
0.184,-1.1244042592200716,5898.926027174608
0.188,-1.15484840095719,5898.209373690681
0.192,-1.037755285520682,5897.802935254834
0.196,-0.7851714052135526,5891.950385101133
0.2,-0.4427510670930313,5894.211393647924
0.204,-0.07613958955365183,5895.933934221745
0.208,0.24843985091196244,5910.954896651508
0.212,0.48206642483407364,5899.360013563424
0.216,0.6032745481339313,5901.760768060693
0.22,0.6188932227222259,5892.076446595631
0.224,0.5579822861944426,5901.178462652214
0.228,0.46211558429469946,5906.329825174188
0.232,0.37406828516527013,5897.965972167067
0.236,0.3261211467445716,5899.29056575979
0.24,0.3298509319778616,5906.038473290594
0.244,0.3707497816689963,5891.2673902559145
0.248,0.4111209514071916,5891.181520522965
0.252,0.40183054773189836,5898.100174503516
0.256,0.2991934869336909,5900.3012704106095
0.26,0.08088880628400416,5890.8108018091225
0.264,-0.24430640517563798,5897.392385617617
0.268,-0.635362868672205,5896.479784425765
0.272,-1.0261219088657696,5899.129514695089
0.276,-1.3389115147393356,5907.759149975013
0.28,-1.502205677475247,5899.941495708801
0.284,-1.4689739171060907,5895.600104303215
0.288,-1.231199348418421,5902.352136251127
0.292,-0.8256035327179939,5894.253431831434
0.296,-0.3269522447286982,5904.26066476502
0.3,0.17083164559162198,5898.988335964295
0.304,0.5798978716843477,5909.859934464967
0.308,0.8401911883442431,5901.8272565517655
0.312,0.9292356349991576,5899.279775675595
0.316,0.8582787936513707,5901.558749070934
0.32,0.6602598250601265,5899.531256525355
0.324,0.37745866131690226,5908.153859346549
0.328,0.05367294804001386,5897.507207049878
0.332,-0.2690334162843238,5894.647252135981
0.336,-0.5519279932496808,5900.5059228275095
0.34,-0.7623895632723919,5903.937978546525
0.344,-0.8784971276904797,5906.183773629104
0.348,-0.8937807121458867,5901.685529990913
0.352,-0.819732606494235,5897.765549374043
0.356,-0.6843016247987574,5903.240281776105
0.36,-0.5257632298613089,5900.556671912453
0.364,-0.3830088075335059,5901.847682015577
0.368,-0.2853199784354262,5893.428298828279
0.372,-0.2456756874911435,5906.60095373826
0.376,-0.2601106994995027,5908.33260569704
0.38,-0.3123549968095996,5885.307803504338
0.384,-0.3806212195406338,5905.407464967708
0.388,-0.44377878001530596,5892.0685983553385
0.392,-0.48616443553061345,5902.963065882779
0.396,-0.5012606245842506,5895.042013707623
0.4,-0.49356809336459284,5903.838280633868
0.404,-0.4770885218377782,5904.299412968622
0.408,-0.46974145280634494,5896.637335655492
0.412,-0.4853698594081058,5902.634979286334
0.416,-0.5268708213660696,5900.119025489987
0.42,-0.5837013578765696,5896.802142245357
0.424,-0.6345449921804398,5895.650755902327
0.428,-0.6534845748148957,5901.444410242825
0.432,-0.6175132118165929,5888.683107371571
0.436,-0.5138095197683815,5905.800872718977
0.44,-0.34519445243341446,5900.743947691508
0.444,-0.13171011925327983,5906.754800592275
0.448,0.09336448238765062,5893.319020139195
0.452,0.29294837989671757,5902.174326682777
0.456,0.43824279267320737,5891.695084400123
0.46,0.5183709083332274,5902.791444328595
0.464,0.5424228485298661,5899.938803569112
0.468,0.5321572746304357,5901.643057115259
0.472,0.5091135513695179,5903.746204365623
0.476,0.48356339861873193,5897.270752559526
0.48,0.45135471030109786,5904.385650348472
0.484,0.3991765477679466,5897.318265897813
0.488,0.31363572621611285,5903.039013286895
0.492,0.18859096060093206,5903.888731496706
0.496,0.02806224369214675,5901.982021256189
0.5,-0.1545685641690775,5899.708047646621
0.504,-0.3388467284896546,5900.427956302253
0.508,-0.4992930066240223,5907.485462291506
0.512,-0.6070288173206577,5901.1547031225655
0.516,-0.632296339962887,5898.468085427099
0.52,-0.5492597685559133,5895.337313165569
0.524,-0.34256537594953573,5895.30337032736
0.528,-0.012949125972152975,5889.825602428276
0.532,0.4208474612457698,5905.7106451342615
0.536,0.9243379882754864,5900.338297220344
0.54,1.452083322297169,5902.926997212477
0.544,1.953321513031493,5906.8059119953
0.548,2.37817267809269,5901.120126428804
0.552,2.6850495196475093,5901.999242033677
0.556,2.8491089811341612,5893.251232567842
0.56,2.8695994231447957,5905.555374781004
0.5640000000000001,2.772450061395532,5905.248678777718
0.5680000000000001,2.6051648875005533,5900.591700574379
0.5720000000000001,2.4242743648166063,5902.813133138918
0.5760000000000001,2.279324967552503,5895.854922926367
0.58,2.199068712208592,5902.107217165972
0.584,2.184234518682367,5904.347658433212
0.588,2.20836854936795,5904.362312661042
0.592,2.225883339707524,5895.107333996388
0.596,2.185532371251759,5908.636414114115
0.6,2.046886820922784,5900.8521209138335
0.604,1.7957584924571377,5894.268471361905
0.608,1.4528481936936608,5895.421778937385
0.612,1.0707200066820437,5896.856926414543
0.616,0.7185287359957637,5893.305210074004
0.62,0.4597608027225563,5896.063625000559
0.624,0.33211182631740643,5899.985878146057
0.628,0.33801812736761894,5902.2950065075565
0.632,0.4491011939967553,5896.478916019362
0.636,0.6206366135768968,5903.716230792948
0.64,0.8078521591486149,5894.5954618596
0.644,0.9770494726876301,5887.578885909377
0.648,1.1091162157639893,5903.577186153755
0.652,1.1969900580878137,5899.476126219293
0.656,1.2402021154954168,5905.812447563342
0.66,1.2391963966746882,5907.731841595465
0.664,1.1909852485348296,5900.164408406454
0.668,1.087031349707126,5901.337959152697
0.672,0.9141799628718089,5899.174628280412
0.676,0.6592378406782522,5891.097093128756
0.68,0.31673219092164984,5902.376132548444
0.684,-0.10264350134316887,5902.600076709321
0.6880000000000001,-0.5672736267791432,5894.853596127732
0.6920000000000001,-1.027415164354781,5901.793801046658
0.6960000000000001,-1.4258255140680685,5897.42190562316
0.7000000000000001,-1.7123884718514264,5888.583611059098
0.704,-1.8571604235184669,5898.705883525438
0.708,-1.8573136574566145,5894.219084723351
0.712,-1.7359639859867897,5901.353398748834
0.716,-1.5336788288774585,5912.059355208901
0.72,-1.2959476256233786,5907.35160959135
0.724,-1.0613661524474514,5900.262762672657
0.728,-0.8548701027672356,5897.305149115564
0.732,-0.6876261055493605,5886.879422640378
0.736,-0.5614651997558977,5901.925376311412
0.74,-0.47401728371192314,5898.639259976151
0.744,-0.42221150674707797,5903.427344066125
0.748,-0.40398862068042546,5898.251076332887
0.752,-0.4184439722189906,5903.306182020812
0.756,-0.46426371200792255,5901.489554917552
0.76,-0.5370609349507228,5900.092176695292
0.764,-0.6273318994477893,5894.416395889566
0.768,-0.7206438337576704,5897.681203203546
0.772,-0.800361115300776,5900.656746347678
0.776,-0.8517580293651116,5900.686354349999
0.78,-0.8655506484620957,5904.87015989289
0.784,-0.8390928181806387,5900.6738048789375
0.788,-0.7746101979186906,5899.348094585178
0.792,-0.67530429065725,5895.576887878631
0.796,-0.5413917628854003,5898.486563467139
0.8,-0.3686967133977027,5904.602442061322
0.804,-0.15152301023438924,5902.246638372313
0.808,0.1111634722498954,5911.4399621861685
0.812,0.41011378863845327,5896.945912877294
0.8160000000000001,0.7247323318991792,5898.397981975363
0.8200000000000001,1.0271536177259826,5898.998682378098
0.8240000000000001,1.2883458360433095,5899.609249448858
0.8280000000000001,1.4826787345684929,5902.799214828733
0.8320000000000001,1.58972795733498,5897.681731888766
0.836,1.5942373696511993,5898.961754133399
0.84,1.4857303326822833,5900.715249581155
0.844,1.2590184705352914,5899.010267979357
0.848,0.91656175605582,5897.719214189499
0.852,0.4729280793709419,5893.800513558578
0.856,-0.039968962908234595,5897.43028355869
0.86,-0.5699007815915257,5895.357038080057
0.864,-1.0472531719646108,5900.140762495289
0.868,-1.3962260694048774,5895.70904107195
0.872,-1.5534700820259222,5901.784123154757
0.876,-1.4888891547667995,5900.235955672611
0.88,-1.2199938785059103,5897.739311980839
0.884,-0.8118464896818409,5905.68530528118
0.888,-0.3602108137481353,5902.08910838632
0.892,0.03649181522612343,5891.651781582615
0.896,0.3051906284794179,5899.219945934151
0.9,0.4153224470182668,5899.220862022089
0.904,0.38026305757089773,5901.814859000166
0.908,0.24543245568070532,5895.252273615533
0.912,0.07001710855952598,5899.985305139148
0.916,-0.09019813415210771,5898.607895097037
0.92,-0.19388988714768127,5903.05524905274
0.924,-0.21797116826627227,5894.196989973217
0.928,-0.1561859651119697,5904.110806205797
0.932,-0.01594893502001437,5895.461162479943
0.936,0.18407846098119696,5896.786171681113
0.94,0.41539925506141623,5898.958973864236
0.944,0.6416633015036344,5902.322576902779
0.948,0.8231787519780728,5895.616646143427
0.952,0.9245833075097584,5907.550979350649
0.956,0.92372594550717,5894.803450306755
0.96,0.8176661078214842,5893.256047075126
0.964,0.6223819141930059,5900.900402051486
0.968,0.36642935386365416,5904.652082725741
0.972,0.08239092921654444,5905.225404912721
0.976,-0.19932530665710244,5898.033220501789
0.98,-0.4519728704670078,5888.438999419247
0.984,-0.6504216053463721,5895.896344422734
0.988,-0.7697379869447867,5899.46418764413
0.992,-0.7885907454311706,5892.629116782325
0.996,-0.6976732348118686,5898.526314341615
1.0,-0.5080808044974026,5900.833572919225
1.004,-0.25314819830882995,5902.635915571334
1.008,0.018631162917774717,5897.685424689806
1.012,0.25612074345710045,5906.944391878738
1.016,0.41738793673025787,5899.746512216521
1.02,0.47660773063027695,5905.720027890091
1.024,0.42551289640543916,5893.247163699205
1.028,0.2714976692287018,5909.023614522294
1.032,0.03463106930873479,5895.119379780437
1.036,-0.2555015749805207,5903.195678252675
1.04,-0.5631418174091972,5897.900160951576
1.044,-0.8499610729256754,5900.449592708999
1.048,-1.079258662157119,5901.266502217417
1.052,-1.2215536141515115,5898.44610813906
1.056,-1.2614792326286768,5911.697216085952
1.06,-1.2035941338184186,5901.794206190671
1.064,-1.07335304729556,5904.980302486983
1.068,-0.9107300584187589,5898.6834578782855
1.072,-0.7573783899409823,5894.335675017643
1.076,-0.6420072241268028,5901.734448289596
1.08,-0.570458848873402,5891.473069795901
1.084,-0.5252265817348203,5901.61983002506
1.088,-0.47502756494095333,5900.341397431574
1.092,-0.3909502894574298,5903.127572732146
1.096,-0.26284672053507213,5902.719864483503
1.1,-0.108769624085784,5900.252111916725
1.104,0.027385195616633013,5884.584373712237
1.108,0.08950408897137106,5897.6044164069
1.112,0.02836262623442273,5904.7131177974825
1.116,-0.1812318277095579,5900.020540915379
1.12,-0.5304517067891923,5905.064209095228
1.124,-0.9754043567732283,5890.349934337973
1.128,-1.4447282783045972,5898.288018398713
1.132,-1.8545069627114488,5899.589146326024
1.136,-2.1277406682197646,5890.052830859644
1.14,-2.2137508762421834,5903.863816082751
1.144,-2.101976591061292,5899.6168385947685
1.148,-1.8255310193227647,5899.313726600166
1.152,-1.4527272077374416,5907.851028699123
1.156,-1.0690966101455697,5899.228336335733
1.16,-0.7561800835104369,5893.451855618804
1.164,-0.5738642249155004,5898.11545459777
1.168,-0.550060539183505,5905.528627654813
1.172,-0.6777351358114726,5902.365974564089
1.176,-0.9173018129894402,5906.538763981896
1.18,-1.2028110425087752,5900.298772803722
1.184,-1.4519309035861798,5893.186563505458
1.188,-1.5803878217028058,5902.053279985997
1.192,-1.5202328834705834,5900.323827105445
1.196,-1.2387025857346483,5887.135916967091
1.2,-0.7521535158661865,5898.329726329802
1.204,-0.12920175705950288,5890.645065123079
1.208,0.5202363683937835,5904.085189795595
1.212,1.0686284590137949,5894.150241345507
1.216,1.4014118079835693,5895.657579865117
1.22,1.446275615553263,5895.4353501266105
1.224,1.1930947293217593,5893.43242637068
1.228,0.6990622009770653,5899.013665626908
1.232,0.07781466443254403,5899.221089830997
1.236,-0.5246210382683957,5900.900656425804
1.24,-0.9618634598469339,5899.289559677734
1.244,-1.1208189344336872,5902.849175423853
1.248,-0.9495843361209465,5903.999812148627
1.252,-0.4721380160994599,5904.951045638848
1.256,0.21538488410845436,5891.73060874012
1.26,0.9671327099734727,5902.818093594241
1.264,1.6230908912125601,5896.705271657501
1.268,2.0477150957586607,5895.165364069646
1.272,2.160802425024574,5897.041830921319
1.276,1.9529881547816381,5904.208106548801
1.28,1.4834487556456475,5897.716870359751
1.284,0.8620594861353891,5887.207586661977
1.288,0.22160229861644676,5897.753807017058
1.292,-0.31264766840888986,5898.0324063840535
1.296,-0.6491811354172257,5899.991460561407
1.3,-0.7477739799452708,5905.720345173946
1.304,-0.6256863069463985,5892.316094903596
1.308,-0.3514070582111177,5902.109538984793
1.312,-0.02683603236474109,5898.313917239701
1.316,0.23856725802550177,5895.767884324007
1.32,0.3561031595003532,5900.715254456347
1.324,0.28201052059109527,5898.012609737993
1.328,0.030812927264175817,5910.850929545204
1.332,-0.3270471126947364,5904.037730180123
1.336,-0.683982539027149,5898.085092051809
1.34,-0.9258902554941968,5902.196902698845
1.344,-0.9657252953035758,5901.1914872480775
1.348,-0.7694377540708287,5899.295686623706
1.352,-0.36594636687417487,5903.60793395239
1.356,0.16153387898725144,5890.551898583084
1.36,0.6990069392125928,5897.602432070562
1.364,1.1317384124998877,5896.997224556394
1.368,1.371553169990214,5902.390676105287
1.372,1.3745810608566025,5900.683926468485
1.376,1.14682838405182,5907.117715171747
1.38,0.7386256569506262,5899.347545796135
1.384,0.23092263064673477,5899.888739528724
1.388,-0.28305329604818175,5903.712687784011
1.392,-0.7169758187180645,5890.877207379565
1.396,-1.0073313011651606,5893.420421470576
1.4,-1.1225585421572557,5896.047445390094
1.404,-1.0640440039754053,5899.360888348512
1.408,-0.8603788792244451,5897.700403046466
1.412,-0.5582422515329082,5898.73377928056
1.416,-0.21359755832202446,5896.059904639857
1.42,0.11473199059515331,5898.449407237516
1.424,0.37008257960219576,5897.913999708991
1.428,0.5045924108064179,5901.510700876465
1.432,0.4890114409876318,5897.907965434763
1.436,0.3230157892869236,5900.279761255222
1.44,0.04026409480083962,5899.378062490926
1.444,-0.29668219838579274,5903.3305483835165
1.448,-0.6118104700372085,5906.941580115704
1.452,-0.8362014289927769,5901.099246995741
1.456,-0.9258009853882019,5902.585842193749
1.46,-0.870540108870668,5899.438808218145
1.464,-0.6933961396309666,5901.937046117639
1.468,-0.4415477952068403,5894.61781273156
1.472,-0.17293312086914717,5904.005885073991
1.476,0.05880106654019544,5890.556002136284
1.48,0.21814792966849592,5897.419481579532
1.484,0.29727273497720236,5888.646549719986
1.488,0.31850471650516604,5895.468130596623
1.492,0.3288280900582051,5909.176420389896
1.496,0.38756455152384545,5899.494379442873
1.5,0.5499287944080153,5884.567343930168
1.504,0.8499474720991321,5900.45716737388
1.508,1.2865171213480515,5904.195399621048
1.512,1.816173451333561,5900.017145972716
1.516,2.355583269247946,5901.223551470283
1.52,2.7954089426849555,5889.264372732346
1.524,3.0242167136327542,5898.266332053003
1.528,2.957021153937705,5902.134437436373
1.532,2.560134450453442,5894.745504863246
1.536,1.8641972116460888,5901.409368837703
1.54,0.9606253947194474,5904.2701853900135
1.544,-0.01814777582213185,5884.611896806975
1.548,-0.9290689739043273,5908.408673766969
1.552,-1.6506222386828198,5898.465166621611
1.556,-2.107694175882118,5894.085018834273
1.56,-2.2827478115289064,5898.223802904642
1.564,-2.2112538812610705,5904.0032313862575
1.568,-1.9642576046686808,5901.253707588564
1.572,-1.624932723399668,5901.676040917068
1.576,-1.2672927317145657,5902.675696979942
1.58,-0.94324847903494,5894.06351446524
1.584,-0.6797830097502224,5904.268201333071
1.588,-0.48337685763978894,5898.363988925276
1.592,-0.3466922078162063,5904.286579276657
1.596,-0.2539466423345496,5895.39117612657
1.6,-0.18445794390115752,5908.515273192923
1.604,-0.1156466829756967,5900.443579900078
1.608,-0.02640967638057866,5903.163777125994
1.612,0.09942675271689007,5898.966780557643
1.616,0.2702791759208806,5901.422616357949
1.62,0.4848134238235214,5896.7763989761
1.624,0.7306687452602684,5897.213117854273
1.628,0.9842444003843257,5898.763363773425
1.632,1.2125030059018715,5901.3175227878855
1.636,1.377564956357473,5894.253665982074
1.64,1.4439051835397672,5900.112418006715
1.644,1.387011592183981,5899.630608637722
1.648,1.2017463394628494,5896.133042418657
1.652,0.9080677150902629,5894.283205155988
1.656,0.5514153678007646,5907.15063786591
1.66,0.19573949479167718,5895.660745065486
1.664,-0.09066771496573868,5900.432140168323
1.668,-0.25319649120193416,5902.055910834249
1.672,-0.2669431101219347,5895.343135386802
1.676,-0.14497070354998795,5899.446494447353
1.68,0.06417541050063022,5903.597540488437
1.684,0.2892042941686134,5909.323334053114
1.688,0.45591637789630785,5900.9680591998085
1.692,0.5090538313906919,5903.121631661634
1.696,0.42980800663860624,5896.098459405955
1.7,0.24302849817115602,5904.704598224717
1.704,0.01108579174068063,5902.775395940617
1.708,-0.184088058361642,5902.4775233988985
1.712,-0.2651775393421667,5890.459316857563
1.716,-0.18234740880323672,5905.159923545
1.72,0.07213293704193707,5900.885867436452
1.724,0.4615667304748449,5912.732737678887
1.728,0.9147206857063357,5894.042973511986
1.732,1.344160647665873,5906.43001846645
1.736,1.6674225560924076,5901.191087493117
1.74,1.825393006042487,5894.544722680202
1.744,1.7933180100550732,5899.77868415198
1.748,1.5816470604330262,5899.389925429688
1.752,1.2267728944150331,5895.206910579824
1.756,0.7754902652985246,5902.219103014986
1.76,0.2699221656948449,5906.870391884987
1.764,-0.2606395907009408,5897.552854994329
1.768,-0.7984097795500765,5895.401293634983
1.772,-1.3286755495650622,5898.002915113969
1.776,-1.829661766293941,5908.14849315712
1.78,-2.2661206091312915,5899.509264436012
1.784,-2.5899312466612425,5895.232459478523
1.788,-2.748262365413745,5900.266362136642
1.792,-2.697296970013393,5902.026334941493
1.796,-2.4172003518966947,5892.145719790148
1.8,-1.922788550816295,5894.315940070476
1.804,-1.2655428111039364,5897.299162443333
1.808,-0.5258249304552576,5899.84341542628
1.812,0.20263512102757217,5902.727046550544
1.816,0.8319723761189093,5895.944266067478
1.82,1.2982178517715846,5904.413529761911
