时间(s),电压(V),幅值(高频80K)
0.0,-0.06035035775733671,5901.415418464134
0.004,-0.12495223286602378,5908.883357196996
0.008,-0.1620499244936463,5896.376564450869
0.012,-0.144786080267266,5899.832527264805
0.016,-0.05794058205175907,5904.308355042907
0.02,0.09712012062847414,5906.463326100796
0.024,0.3017587813194953,5905.291805595206
0.028,0.5244010339184882,5899.754788992602
0.032,0.7271213530994032,5899.600673128752
0.036,0.8713700501359333,5895.590166753563
0.04,0.9226751587580516,5889.028340671971
0.044,0.8562337150508741,5902.036696242632
0.048,0.6635274035239593,5900.886651952257
0.052,0.35657579012689333,5902.188576297741
0.056,-0.0339908791017667,5893.295667537083
0.06,-0.46680036111720485,5899.636055949358
0.064,-0.8988815915215141,5903.89770368989
0.068,-1.2911919569846158,5906.024881935966
0.072,-1.6093881338313512,5896.553201135183
0.076,-1.8225789518095552,5889.038513537748
0.08,-1.9038901946093885,5904.329786540489
0.084,-1.8348688366807557,5902.742434806099
0.088,-1.6127525681124824,5895.1664986093465
0.092,-1.2572895466696778,5906.009811687968
0.096,-0.8130364684190302,5903.717315305361
0.1,-0.344161923648773,5903.114866800377
0.104,0.07824761140077073,5915.070627514899
0.108,0.39280239141405243,5897.206422088029
0.112,0.5630086157150886,5899.416152709827
0.116,0.5867311340164275,5895.420108641283
0.12,0.4977602081051921,5897.490567733534
0.124,0.35888172056307216,5897.110416926048
0.128,0.24704028888144577,5903.326061346205
0.132,0.23316801036734622,5908.612347104347
0.136,0.3619816272184113,5894.254161012151
0.14,0.6386591588309426,5889.521937227635
0.144,1.0274959119080633,5902.094409289824
0.148,1.4623823892683938,5890.977550500279
0.152,1.8637108542693863,5901.886353156368
0.156,2.155054868760095,5897.980952710636
0.16,2.275916319325999,5899.870080574243
0.164,2.190506870364952,5904.433188668274
0.168,1.893588934633503,5896.994475179959
0.172,1.4130242903213746,5899.067541641789
0.176,0.8076969459045023,5892.141762241662
0.18,0.16027217775361227,5896.42816690117
0.184,-0.4346030396589537,5900.857861087834
0.188,-0.8857934494714226,5899.926488075791
0.192,-1.1236458648413057,5900.085226251735
0.196,-1.1172565412102018,5905.005169104296
0.2,-0.8851098156175625,5905.630804205674
0.204,-0.49305988027362924,5893.638342213632
0.208,-0.03807308405563216,5897.786087320359
0.212,0.3776783905711277,5901.105691530487
0.216,0.6741055441830722,5908.970031061365
0.22,0.8134284763954303,5905.749587722938
0.224,0.8069652764682158,5899.882732021934
0.228,0.7059834432510457,5905.626865290229
0.232,0.5796918517172773,5902.699903729163
0.236,0.4890521844220953,5896.536272497687
0.24,0.46749585840063435,5894.635825009322
0.244,0.516193339581079,5897.949347098604
0.248,0.6131790222625207,5905.022642491894
0.252,0.7279763254423876,5894.16248080567
0.256,0.8324076098455588,5906.457741831093
0.26,0.9042202474546311,5907.790746148628
0.264,0.9268779643570323,5896.348707630229
0.268,0.8903201136236149,5904.426234700712
0.272,0.7938910380492256,5901.9669722571
0.276,0.64910588902233,5905.2491359813
0.28,0.47973092816807356,5901.103861353239
0.284,0.318410015709092,5906.750949726746
0.288,0.20038399775976767,5899.509268696601
0.292,0.15537238196137157,5901.295466526
0.296,0.19901030240768813,5896.820946599863
0.3,0.32575161478842,5908.805470693069
0.304,0.5059533708286944,5898.618987850306
0.308,0.6900076882517949,5906.537807402507
0.312,0.820245858740345,5894.832232096231
0.316,0.8472415831008644,5901.010095588951
0.32,0.7443789208552435,5895.342702404973
0.324,0.5156001138129569,5892.591945092679
0.328,0.1945634514508686,5897.859360355533
0.332,-0.16379307184824365,5904.887384841408
0.336,-0.4966202380980778,5893.628213899477
0.34,-0.7477075149146153,5897.270549152402
0.344,-0.8792334568215011,5901.154988406372
0.348,-0.8776559446567805,5903.021318507746
0.352,-0.7525201783298923,5906.127856961368
0.356,-0.529532618941738,5895.830053812756
0.36,-0.2418513749788436,5894.884372841453
0.364,0.07576009729344496,5898.881936609831
0.368,0.38784539215153374,5896.111418338068
0.372,0.6563056236965575,5895.721154889247
0.376,0.8399257079114356,5901.1537353428
0.38,0.8987384992310657,5899.306918770749
0.384,0.803601419657893,5904.904798055129
0.388,0.5479818035244923,5900.061004812349
0.392,0.15681503036176853,5898.676105800692
0.396,-0.3120333298269961,5894.315948856428
0.4,-0.775234577857588,5891.430366191082
0.404,-1.1392149600528034,5898.57086963604
0.408,-1.3205124414654794,5902.155769590983
0.412,-1.267249769953188,5897.886070653484
0.416,-0.9760069608961801,5904.337993736335
0.42,-0.49821935514924715,5904.065368408812
0.424,0.06731506516591025,5894.620549831835
0.428,0.5951989420442277,5888.4971716388245
0.432,0.962680936046874,5901.804266363236
0.436,1.0794349000586754,5898.630524259352
0.44,0.9091425705299554,5893.324028470134
0.444,0.4766352832492382,5894.759161356255
0.448,-0.1407313589149626,5901.520681259268
0.452,-0.8337540354290643,5902.055871091007
0.456,-1.487318196958517,5897.334387554226
0.46,-2.0043558423618157,5893.294338211197
0.464,-2.3223969332578105,5899.8541982074985
0.468,-2.420499781192465,5902.705851639407
0.472,-2.3173755314412667,5901.204714283165
0.476,-2.0627343516693926,5896.919889543931
0.48,-1.7235600781054776,5895.223977582643
0.484,-1.367386207227854,5897.291244181268
0.488,-1.0465667721075698,5907.46127974887
0.492,-0.7887485137079715,5903.55057805606
0.496,-0.5969850387023471,5898.57334900312
0.5,-0.4589090301926461,5888.786192441308
0.504,-0.36041176841635136,5901.428410889492
0.508,-0.29716491867554234,5894.777440312458
0.512,-0.27830399754986224,5897.787137438876
0.516,-0.32082547930981153,5894.267051332648
0.52,-0.43836427372717907,5906.333083359676
0.524,-0.6305400834475312,5896.302359632403
0.528,-0.8779428009094439,5895.259374015492
0.532,-1.1447506791948505,5895.315797502138
0.536,-1.3877476559088864,5893.673857678128
0.54,-1.5682551687711075,5903.541999100633
0.544,-1.6629033221179048,5890.262820793468
0.548,-1.669850746440812,5890.023461830661
0.552,-1.6082252808947186,5903.0922480458685
0.556,-1.5104057031805294,5900.009975563879
0.56,-1.4097429008660327,5892.898239526645
0.5640000000000001,-1.3291498307629697,5898.436892909484
0.5680000000000001,-1.2758592179582033,5905.451001603814
0.5720000000000001,-1.2435979576288934,5900.701106674584
0.5760000000000001,-1.2188044216781688,5896.1763361479325
0.58,-1.1865650160365357,5903.000772453508
0.584,-1.1345092874528402,5905.954296641486
0.588,-1.0552088827256862,5892.654073832272
0.592,-0.9477109255297078,5898.12886985151
0.596,-0.8182271667043629,5889.838156558557
0.6,-0.6800441499334764,5897.719021191974
0.604,-0.5525683143849224,5899.355960395107
0.608,-0.4586706281451617,5900.407796551801
0.612,-0.4195118822863561,5902.462525268388
0.616,-0.4473928439263513,5893.140298741099
0.62,-0.5386721877324964,5899.580508057146
0.624,-0.6694535425269099,5899.780785905949
0.628,-0.7965923464031347,5902.405615101721
0.632,-0.8656000150863306,5902.422352027636
0.636,-0.8249034657669221,5899.847091242685
0.64,-0.6428016610512732,5895.957352290808
0.644,-0.32071156467334516,5898.322389086966
0.648,0.1038014489799803,5905.330709920308
0.652,0.5668680537719737,5906.372682879533
0.656,0.9975883446280199,5899.525199389064
0.66,1.338835041477817,5902.818064379049
0.664,1.5615128118550738,5899.79970809634
0.668,1.6675235321509665,5904.988020926354
0.672,1.681314681082072,5904.347336288465
0.676,1.6344382177330923,5907.623896565648
0.68,1.550545901055573,5892.409099947897
0.684,1.4377142139573078,5899.970305669172
0.6880000000000001,1.290739341730508,5899.774823425387
0.6920000000000001,1.1006870480926527,5896.233858459299
0.6960000000000001,0.8657239211802905,5900.102337769008
0.7000000000000001,0.5974653494644813,5892.515682593045
0.704,0.3200447269703443,5908.578556881608
0.708,0.06308481519613302,5887.864202496388
0.712,-0.14732150317741,5904.425307451798
0.716,-0.29528990788037,5892.215966757784
0.72,-0.3775183207905681,5894.832184866252
0.724,-0.4020486682564236,5905.154847836606
0.728,-0.38487632904208535,5893.866926998022
0.732,-0.34520104909826316,5907.465239540645
0.736,-0.29988050205142236,5893.782584456173
0.74,-0.2582462221372143,5900.251223764712
0.744,-0.21900527055215727,5902.716699305405
0.748,-0.17099075324971996,5903.594120422308
0.752,-0.0986650989294242,5896.890054437457
0.756,0.008890403616060165,5892.478703855081
0.76,0.1493933728664663,5896.003080454699
0.764,0.30400569600600064,5906.00989945102
0.768,0.4418159642777448,5900.651400370997
0.772,0.5304552583311114,5891.206226801623
0.776,0.5477713128199262,5899.0312101756535
0.78,0.4894439938035411,5895.554934825739
0.784,0.3701570817887751,5900.351354109292
0.788,0.21889434248805428,5901.665295845244
0.792,0.07056013335172177,5900.124072169506
0.796,-0.04318627961883791,5889.394509248471
0.8,-0.10089133123217006,5895.891406589319
0.804,-0.09402774590949572,5908.023620954481
0.808,-0.025293532592264894,5904.207555620416
0.812,0.0960747021378301,5903.275501579757
0.8160000000000001,0.2599046277111253,5907.991609969651
0.8200000000000001,0.459540568501224,5903.604548082225
0.8240000000000001,0.6930148645290669,5896.11624524244
0.8280000000000001,0.9591283715648362,5897.751547473895
0.8320000000000001,1.2488178804726886,5894.540777095345
0.836,1.5360228317498843,5909.5862912603
0.84,1.774662537264829,5898.635804535772
0.844,1.9064130928462684,5903.445914045013
0.848,1.8783313771256545,5901.36744340762
0.852,1.6636201420562917,5897.921100196967
0.856,1.2764891524286361,5900.282472729768
0.86,0.7741967438151212,5900.196781959464
0.864,0.2444925468920136,5899.904457058335
0.868,-0.21763735952759236,5906.338154781821
0.872,-0.5360007070457027,5901.200464909151
0.876,-0.6731427811938475,5896.459207004176
0.88,-0.63768766221607,5901.815184965788
0.884,-0.4771710401595039,5891.52599503364
0.888,-0.2596345321458284,5894.785705853996
0.892,-0.05105213581166926,5906.038742919585
0.896,0.1033534419171383,5899.31333624783
0.9,0.1878760198124862,5900.06232074416
0.904,0.2134368068043501,5891.292245639143
0.908,0.20622994648096926,5897.910336024722
0.912,0.1941488017855927,5899.349605877638
0.916,0.19685082640791196,5898.729436126331
0.92,0.2222673391793969,5897.652629601515
0.924,0.268633886660999,5896.516635519007
0.928,0.3286609423252387,5901.146628135212
0.932,0.39269863047139425,5898.735287942009
0.936,0.4500800548683416,5882.546405405141
0.94,0.4897472587813075,5898.586618832021
0.944,0.5014070909560907,5881.377331112049
0.948,0.47765629829787193,5896.730045793564
0.952,0.41665167749930976,5898.796466112285
0.956,0.32423799564264233,5900.994884185189
0.96,0.214228958011803,5888.121658033911
0.964,0.10586941533289933,5900.138855385465
0.968,0.018566379291153946,5896.066864621426
0.972,-0.03424299392114165,5897.355659088124
0.976,-0.049124328717785326,5902.289287520293
0.98,-0.03282706955303542,5901.420214239106
0.984,0.0005276996812793764,5889.866882882337
0.988,0.03298649094859169,5901.200828326415
0.992,0.045642209123279306,5889.878754763906
0.996,0.021278488035200365,5896.614343478678
1.0,-0.05224099361147254,5901.178171943517
1.004,-0.17830009417955242,5895.020732404519
1.008,-0.34957026168231387,5901.441016042658
1.012,-0.549220079964961,5894.462695255604
1.016,-0.7548343511071106,5903.300307831377
1.02,-0.94335735496281,5911.049546568806
1.024,-1.095221576338526,5898.480115123695
1.028,-1.1962057391285879,5903.911014432748
1.032,-1.2366560472674755,5906.077020348263
1.036,-1.209355360184662,5900.103264501262
1.04,-1.1082880767384466,5903.9764110654205
1.044,-0.9297944068468675,5900.965948603505
1.048,-0.6756012861315531,5896.668432612621
1.052,-0.35560555866570187,5902.295815811893
1.056,0.011613381695146727,5898.2226862049065
1.06,0.4009815734545427,5902.622820377424
1.064,0.784477581440407,5904.658247135967
1.068,1.1338771794536542,5894.725237212514
1.072,1.4211265216682245,5888.75779258006
1.076,1.6165510778709549,5899.40922963697
1.08,1.6871276035866631,5895.97230723795
1.084,1.5981248782682071,5893.031776663212
1.088,1.320583316488948,5896.951113116178
1.092,0.8439100515410642,5903.7532445788775
1.096,0.18850454851028906,5895.669682777402
1.1,-0.5889762246351282,5905.716513184028
1.104,-1.4025990461166984,5906.366092570002
1.108,-2.1549183329911323,5892.27909127066
1.112,-2.758301420841949,5897.550693403064
1.116,-3.151376784353804,5900.912252709533
1.12,-3.3057096227002725,5891.673649631506
1.124,-3.2231945775583046,5906.828451424754
1.128,-2.9285786446691766,5900.047736701823
1.132,-2.4622841474521167,5894.206853450959
1.136,-1.8764263545103805,5898.761997117772
1.14,-1.2330731812839135,5900.412831269087
1.144,-0.6009410613063119,5898.073185427549
1.148,-0.0472749298232512,5895.646864821461
1.152,0.3746308333197908,5899.374163382026
1.156,0.6380166915952833,5896.33246676344
1.16,0.7500319093580806,5887.3237201104885
1.164,0.7504831472921112,5893.628289542589
1.168,0.7015643928500681,5896.9278143646
1.172,0.6707461209028627,5899.155423461661
1.176,0.7111714569659884,5896.131776410643
1.18,0.8456722422945758,5895.544247069429
1.184,1.0603645495170055,5900.740360919091
1.188,1.3106552490599226,5898.200666713082
1.192,1.537586941177063,5898.2934263983925
1.196,1.6882310041769233,5898.584313766575
1.2,1.7325783481587733,5900.450647876704
1.204,1.6717991744689376,5902.005273085575
1.208,1.5369271152511907,5905.019721290881
1.212,1.379919031964254,5895.651883421535
1.216,1.2596477004575244,5903.546780392527
1.22,1.2253525525089544,5902.878656584143
1.224,1.3009847107133514,5899.228665393795
1.228,1.4750576387052463,5901.566489055619
1.232,1.7001452290080956,5902.183864962177
1.236,1.9032673410643608,5901.377069575228
1.24,2.004372666908626,5896.838069702892
1.244,1.9373748112691653,5901.215206708449
1.248,1.6679145402498392,5901.030413460391
1.252,1.2032625724216197,5909.096837644242
1.256,0.5916368551616077,5899.42050845421
1.26,-0.08887245747240823,5905.753407464774
1.264,-0.7480841230761551,5898.00713468077
1.268,-1.3028255899300718,5906.020001826551
1.272,-1.693145986453053,5903.933418539404
1.276,-1.8934381050506013,5900.4878946505005
1.28,-1.916698094425471,5895.854815526192
1.284,-1.8096306394676842,5903.98876258311
1.288,-1.6376410753561417,5904.211350160815
1.292,-1.4630724616596886,5900.200854667532
1.296,-1.3247376477978825,5891.549716213533
1.3,-1.22783908028639,5897.813763995435
1.304,-1.1491372750559987,5897.662371045758
1.308,-1.0548178044406056,5894.804067385737
1.312,-0.9221221334942847,5901.920841341319
1.316,-0.7541256299792282,5906.251751983439
1.32,-0.5810182430740963,5891.030449814194
1.324,-0.4484024418058546,5901.835085627528
1.328,-0.39924004041037514,5901.558795864696
1.332,-0.45800570027655874,5895.111652148633
1.336,-0.6228686438778569,5894.867766447821
1.34,-0.8666219016895822,5889.172198010869
1.344,-1.1434602745178695,5901.220754086322
1.348,-1.3985838728878812,5894.338943372156
1.352,-1.5788838617564653,5893.71050248794
1.356,-1.6428497884493527,5900.075059075103
1.36,-1.5671449103266495,5897.315436337151
1.364,-1.3484459341247808,5905.22298488305
1.368,-1.0016225819028395,5899.060053799024
1.372,-0.5564846525476109,5896.245929156123
1.376,-0.054317649634424356,5893.790912603642
1.38,0.45611566885177457,5900.395365757707
1.384,0.923761669240014,5892.1361623752
1.388,1.3012128009660886,5905.967231165777
1.392,1.5498921711387903,5900.305101237816
1.396,1.643532367739056,5901.555957683706
1.4,1.5707385938741338,5899.114232449023
1.404,1.338105449589427,5899.966407705196
1.408,0.9737840309346266,5899.421283826769
1.412,0.529186691240094,5895.257157361821
1.416,0.07593030882883607,5896.540711058415
1.42,-0.3037526420739642,5899.0799012112
1.424,-0.5330670245104976,5898.220309237809
1.428,-0.5603356910692259,5896.81858438617
1.432,-0.3760036139207462,5898.294549715397
1.436,-0.019410570035312113,5898.10905760547
1.44,0.4287809219381679,5903.934345671505
1.444,0.8665589563561733,5891.844468192896
1.448,1.1966914063226648,5901.049379427306
1.452,1.3515977339820218,5900.787976885132
1.456,1.3098221424264889,5896.92382534797
1.46,1.0982496576771874,5899.74352242747
1.464,0.7782865038263558,5888.246975142214
1.468,0.42104779671839104,5898.305123677626
1.472,0.08216202287588102,5894.903795191622
1.476,-0.21313782508258425,5902.721174150655
1.48,-0.4695949443331586,5901.261233378222
1.484,-0.7087783216198505,5903.070842091711
1.488,-0.9510618628324824,5897.776408503471
1.492,-1.2012515128945165,5894.500010297063
1.496,-1.443354125406175,5890.352392207776
1.5,-1.6456199362523152,5896.945419767708
1.504,-1.7728739791092152,5899.9416958192505
1.508,-1.800445601364018,5890.673056826013
1.512,-1.723983771422695,5903.261840000134
1.516,-1.5619810974080572,5897.510262732155
1.52,-1.3510434209841302,5903.46945954271
1.524,-1.1361202050400334,5902.717963091738
1.528,-0.9586339507859438,5901.569160191983
1.532,-0.8452885435967082,5895.74970994827
1.536,-0.8000674798990577,5896.296945382212
1.54,-0.801599685602694,5899.429863243224
1.544,-0.8072405659750734,5894.830352638138
1.548,-0.7638888115054929,5891.33295743856
1.552,-0.623766178322238,5894.5659339891445
1.556,-0.36105184743854274,5899.818931476537
1.56,0.016406000387819218,5903.923632160783
1.564,0.465062017137672,5898.694200511995
1.568,0.9143587738938487,5906.2086902311685
1.572,1.2831040147324064,5898.219874956075
1.576,1.4984170912396193,5897.507710410831
1.58,1.5124052831802193,5897.47660959844
1.584,1.3132665472542602,5899.0472476840005
1.588,0.9288922983723092,5898.439621166085
1.592,0.42207240020025577,5908.387364860216
1.596,-0.12195930724500473,5902.502507487832
1.6,-0.6125156168030239,5898.470868118775
1.604,-0.9702974656290574,5904.054152005073
1.608,-1.1401114342852519,5892.763066640221
1.612,-1.097886450273327,5902.884694276272
1.616,-0.8525573995931658,5904.889029302051
1.62,-0.44396291235733215,5903.10265502022
1.624,0.06283113883362251,5902.150709719757
1.628,0.5871606446182283,5910.576993260102
1.632,1.0464905651173202,5900.492564290961
1.636,1.3728872819002944,5895.975694904817
1.64,1.5286062779069634,5893.612987954942
1.644,1.5153774363200325,5903.294206176045
1.648,1.372464697434366,5905.081312286053
1.652,1.1623018075830613,5897.418686991275
1.656,0.9482274476255188,5900.323527046423
1.66,0.7733587420551248,5893.323854534777
1.664,0.6497709588739181,5902.045734441984
1.668,0.5623777687397197,5898.141997173091
1.672,0.48495869280214654,5902.382527711502
1.676,0.4002146901708686,5903.906957789367
1.68,0.31390120543130967,5898.6325986020265
1.684,0.2560396634155634,5896.132827658329
1.688,0.2688976560572262,5897.817462679619
1.692,0.38804356679663304,5890.97440742824
1.696,0.6253683037142933,5893.057338394976
1.7,0.9607784520030805,5898.694917807006
1.704,1.3447178544627338,5895.109725070649
1.708,1.7097529287336275,5902.418746459082
1.712,1.9873830681701137,5902.233150594282
1.716,2.125416489946969,5895.5638596723
1.72,2.101205799167744,5893.733375437767
1.724,1.9271216181526032,5895.396076795177
1.728,1.6467504443648422,5899.210697348997
1.732,1.3225652520833435,5905.773732267111
1.736,1.0178684272539689,5898.188842032057
1.74,0.7779510832514065,5899.718667564656
1.744,0.6170563140733445,5897.413561397247
1.748,0.5168772620559023,5898.263574501108
1.752,0.43792348275016135,5899.925912520559
1.756,0.3392696116593716,5891.155994996948
1.76,0.19849971508080003,5895.793577371917
1.764,0.023696079361636063,5907.54629512762
1.768,-0.14748460746761813,5907.662880829063
1.772,-0.26150792777188225,5895.0865707316025
1.776,-0.2701240428575236,5892.418858774499
1.78,-0.15061478925871208,5897.667090001576
1.784,0.08304328871755204,5904.444279447124
1.788,0.38283312828138527,5896.127701242567
1.792,0.6823138313663979,5900.593927932755
1.796,0.9189628476540157,5895.646668514383
1.8,1.0544559613165094,5888.739963975482
1.804,1.0852500585360885,5902.467163977919
1.808,1.0397564663678343,5892.629033570017
1.812,0.9636831127348966,5902.7469223675735
1.816,0.8999827440351782,5894.080670942695
1.82,0.8719332502778534,5898.2704064771415
1.824,0.8758377083616816,5887.609014642826
1.828,0.8849373036432105,5892.495799942546
