时间(s),电压(V),幅值(高频80K)
0.0,-0.036942987991544524,5899.585392192121
0.004,-0.4896621442213567,5900.702881316387
0.008,-0.878393014713332,5895.024526925426
0.012,-1.1604919991191662,5905.416205775655
0.016,-1.321922788142808,5899.931759531031
0.02,-1.3779182655137643,5900.950751902721
0.024,-1.3635627932676722,5898.758485865222
0.028,-1.3182860913302976,5896.419353905229
0.032,-1.270447764688221,5897.303555469284
0.036,-1.227221694802637,5898.958376793158
0.04,-1.1722912743265115,5907.5460867425
0.044,-1.071261659661482,5894.45097063773
0.048,-0.8830416519279575,5909.077451271209
0.052,-0.5746090186950639,5895.38093653363
0.056,-0.1357816716372076,5900.069292289812
0.06,0.41050207088817325,5900.168926716639
0.064,1.0071264816054233,5886.163461319548
0.068,1.5731273468626221,5904.969707322332
0.072,2.02263522358925,5898.255880618393
0.076,2.285942391381892,5897.756199875669
0.08,2.3264804502495724,5901.509583296062
0.084,2.150309826610428,5893.693699574553
0.088,1.806684257474515,5901.287577161424
0.092,1.378803263111508,5907.554851175573
0.096,0.9653995210493127,5901.056415923197
0.1,0.6572472609735852,5894.494841510216
0.104,0.5155229602848999,5907.952254876181
0.108,0.5585324814706442,5893.981329456119
0.112,0.7600589121254083,5908.391280886932
0.116,1.0589397901391664,5895.083395391069
0.12,1.376867200483154,5889.86854157465
0.124,1.6394455181619394,5888.829095765238
0.128,1.7940485442932612,5900.206479097262
0.132,1.8184211881989896,5906.041041676994
0.136,1.7177624632918058,5903.616842840346
0.14,1.5137883322522299,5902.2959034427295
0.144,1.232779762898975,5900.5937474328375
0.148,0.8981649600994309,5901.293295315145
0.152,0.5287331144041133,5889.885442499213
0.156,0.14031087159481026,5904.079876161773
0.16,-0.25155011852736997,5912.506510570275
0.164,-0.629179232692109,5907.700774195814
0.168,-0.9715639763169127,5887.494511917782
0.172,-1.2555745316458025,5895.710592382395
0.176,-1.4603928725371935,5907.348872286889
0.18,-1.5736557145404206,5899.675694479398
0.184,-1.5958524069680715,5898.540954091898
0.188,-1.540343433581686,5893.590429447885
0.192,-1.4294051036627538,5902.485904269829
0.196,-1.2889491641080988,5901.57045830667
0.2,-1.1441755818962047,5904.735020024576
0.204,-1.0163763734218012,5893.416269226687
0.208,-0.9199920136828221,5897.420189061224
0.212,-0.8600540440678026,5896.561322275414
0.216,-0.8314510336873775,5899.465517001165
0.22,-0.8209015460219666,5902.334424922781
0.224,-0.8109976698662019,5895.989745976453
0.228,-0.7850253870474875,5899.582944870927
0.232,-0.7313448291553843,5903.711858668
0.236,-0.6461494107260837,5900.377197799897
0.24,-0.5336824394761941,5898.979318818697
0.244,-0.4039311474034827,5901.974059904683
0.248,-0.26908040000943023,5895.670752621981
0.252,-0.14062439570185087,5899.711231006593
0.256,-0.028275349591193624,5894.411464740235
0.26,0.05996017406740688,5898.77411812934
0.264,0.11843265860603713,5894.458388454213
0.268,0.14640338297964642,5900.723827178944
0.272,0.15121114994712265,5891.631428619767
0.276,0.14900046527680594,5893.669995788754
0.28,0.1611499327434638,5887.583532500202
0.284,0.20764677935137626,5905.75916380551
0.288,0.3004581381826415,5904.070660113554
0.292,0.43938614145976,5895.598938890019
0.296,0.6117345065189206,5900.950745344599
0.3,0.796240815967036,5902.026819104849
0.304,0.9701175145533313,5889.210077763328
0.308,1.1160105632675899,5895.91982371638
0.312,1.225532777378146,5898.385999609957
0.316,1.2984122836342697,5907.0661799003165
0.32,1.3388911555351497,5897.586186522264
0.324,1.3517694812892433,5899.024798021311
0.328,1.3398123490294627,5905.21079660624
0.332,1.3032294170390823,5888.319343756314
0.336,1.240811082013829,5906.454486557979
0.34,1.1513541788174317,5905.286735781019
0.344,1.0342562572214116,5907.630776710211
0.348,0.8897299748962014,5900.706487881027
0.352,0.7202047886202381,5897.337210095842
0.356,0.5334985798509089,5893.43778923326
0.36,0.3460768156836484,5909.454428762295
0.364,0.18349615689533727,5896.618280292078
0.368,0.07615130307413612,5894.609383799738
0.372,0.050948773713321134,5907.366378447175
0.376,0.12182330267125914,5894.989369994049
0.38,0.282716509299374,5901.986835008882
0.384,0.5055877136915927,5903.336865623996
0.388,0.744306657204889,5898.047284325549
0.392,0.9440467327096355,5901.991671366639
0.396,1.0549201755250075,5894.315058576426
0.4,1.0469465575947514,5904.087319124793
0.404,0.9211300156253843,5897.059360481681
0.408,0.7109855501772289,5902.696111951591
0.412,0.4725785650416739,5893.854906819146
0.416,0.2672145704948463,5908.364916262012
0.42,0.14449375460675257,5903.458132290358
0.424,0.13190193360361682,5904.724270536946
0.428,0.2324739148663467,5891.305541003037
0.432,0.4282230646019292,5902.858974567905
0.436,0.68599785230647,5910.005248224902
0.44,0.9635187864925192,5908.156313396495
0.444,1.214917732673386,5896.469757760628
0.448,1.3960512667210476,5903.846129458884
0.452,1.4698045265249724,5906.351299426948
0.456,1.4110074693418875,5907.190193335062
0.46,1.2106519067625743,5903.660643131255
0.464,0.8799194810524691,5899.02130868994
0.468,0.4540932034690089,5903.8553506468015
0.472,-0.0062415908515224255,5903.232723751987
0.476,-0.42118678426663536,5894.716630078746
0.48,-0.7067816042028998,5897.501280384794
0.484,-0.7961280002908602,5901.946018287277
0.488,-0.6591745228696978,5897.781054843963
0.492,-0.31425530035771804,5897.558930371124
0.496,0.17247403758392554,5901.480549469298
0.5,0.7000175820891887,5900.7398268435145
0.504,1.1547731267812762,5902.825729538758
0.508,1.435824388002971,5906.843861873487
0.512,1.4763005034535066,5896.661106733263
0.516,1.2561480343588756,5900.366537274766
0.52,0.8050337928551308,5898.069104319335
0.524,0.1959785462638562,5897.262948388591
0.528,-0.4690775721342305,5895.961351547991
0.532,-1.0795679817893595,5913.053179269239
0.536,-1.5385509419838177,5904.913281649212
0.54,-1.7817749361039825,5903.311680954949
0.544,-1.788527684822837,5904.966453899494
0.548,-1.5811312340160295,5899.24362684712
0.552,-1.213687251389404,5897.906277599516
0.556,-0.7550160749815505,5893.357294422423
0.56,-0.2728502532004696,5894.108786661423
0.5640000000000001,0.17577628587697056,5905.278564713962
0.5680000000000001,0.5479754268577776,5907.584512971145
0.5720000000000001,0.8160865014759776,5889.991535313116
0.5760000000000001,0.96963826488836,5904.49466632049
0.58,1.0174339334913234,5894.176217368176
0.584,0.9857613741343033,5906.844186596064
0.588,0.909878365058123,5904.893615061943
0.592,0.820979905765402,5899.985580537984
0.596,0.7353915420419417,5901.980231745661
0.6,0.6523310600047805,5905.722265746079
0.604,0.5611845495344674,5896.760779484626
0.608,0.45326343699168103,5898.085341450132
0.612,0.33094585098172025,5901.74386730175
0.616,0.20976552259810338,5897.915321425252
0.62,0.11378865563864167,5904.608245944495
0.624,0.06800225469715686,5904.17632989478
0.628,0.09139046553343956,5903.274739933665
0.632,0.191867155943423,5906.662341711824
0.636,0.36233678507101696,5893.97456161023
0.64,0.5778548396916309,5899.177804467038
0.644,0.7960623594183719,5899.879651825974
0.648,0.963728852727064,5895.302516198646
0.652,1.0294638042283042,5896.269987568129
0.656,0.9583129594832785,5899.127918654508
0.66,0.742172136014194,5905.952760041152
0.664,0.40233565666160215,5901.024047191623
0.668,-0.015450761632234586,5902.833522954426
0.672,-0.4505254430073648,5895.362521821719
0.676,-0.8383967828027971,5900.290628797188
0.68,-1.1215653235842509,5901.901052699277
0.684,-1.2594104079385962,5901.083374226809
0.6880000000000001,-1.236590287550068,5896.168335661306
0.6920000000000001,-1.068357223387147,5902.564579290268
0.6960000000000001,-0.8000418305190696,5909.459448099453
0.7000000000000001,-0.49861163560952587,5901.415853503931
0.704,-0.23728626725108298,5894.532319054376
0.708,-0.07767202782843045,5898.722499405549
0.712,-0.05499078962312153,5910.1231804280405
0.716,-0.17029610036297135,5899.400639154254
0.72,-0.3911480137661295,5902.321110847422
0.724,-0.6605709996526314,5911.245753674374
0.728,-0.9125252233741038,5907.267862117647
0.732,-1.0897895199165473,5901.693239129831
0.736,-1.1584196791055985,5896.890372819751
0.74,-1.1138680447759897,5903.117002233839
0.744,-0.9775744008203386,5906.447850544115
0.748,-0.7870987021225705,5896.199180110235
0.752,-0.5848197896054609,5899.933876709988
0.756,-0.40900459243708615,5903.059731547504
0.76,-0.28844660545173445,5907.062508976819
0.764,-0.24005405540978225,5903.2721383690905
0.768,-0.26822421426733484,5902.619649094476
0.772,-0.36509277031616894,5900.802928730862
0.776,-0.5115077720969825,5898.322593304436
0.78,-0.6792887526718577,5904.137557611253
0.784,-0.835195853760352,5893.958995297778
0.788,-0.9462042694351763,5904.966561655523
0.792,-0.9851970478373496,5903.386157978166
0.796,-0.9364700757281803,5901.440374287305
0.8,-0.8005439022024408,5899.43240060731
0.804,-0.596751159264532,5902.6077878166525
0.808,-0.36097640991698327,5900.315746037051
0.812,-0.13697594113853478,5896.0202467823865
0.8160000000000001,0.036983474946357384,5907.559106188748
0.8200000000000001,0.14125177627516372,5906.123940923741
0.8240000000000001,0.18189181284568176,5894.281972221451
0.8280000000000001,0.18789984547855504,5901.642408664102
0.8320000000000001,0.19892804420963878,5902.478026952262
0.836,0.2486872829807977,5894.87992684186
0.84,0.35168848481056675,5896.468370887728
0.844,0.4990567397301331,5897.67194664451
0.848,0.6641704692525559,5897.777462133345
0.852,0.8143537460130226,5900.40156840312
0.856,0.9227170085630395,5895.991442573743
0.86,0.9745795652484281,5896.522839782576
0.864,0.9658287628598533,5900.348361696987
0.868,0.8954149072454156,5896.060734752161
0.872,0.7581924144627898,5896.475112922843
0.876,0.5443136447816637,5897.562425096914
0.88,0.24677803669811788,5905.164771982584
0.884,-0.12735670452741588,5898.988802044816
0.888,-0.5497021503096782,5903.882682956683
0.892,-0.9727339615779389,5893.775897379727
0.896,-1.3412747691748472,5901.5062022322445
0.9,-1.6076837726405533,5893.320213044386
0.904,-1.7436855763571284,5909.746618961958
0.908,-1.7447532950568778,5905.622826590838
0.912,-1.62753244103527,5892.904363911243
0.916,-1.4235680562455777,5894.818308945441
0.92,-1.17257808638136,5909.417871682877
0.924,-0.9167552707377519,5899.683310833652
0.928,-0.6955502465622992,5899.8412863541225
0.932,-0.5396132619227093,5900.129515531115
0.936,-0.4640090545693032,5901.861909726352
0.94,-0.4632757731700842,5910.821002272933
0.944,-0.5115822145101245,5895.95303124844
0.948,-0.5689998358992983,5897.670048187355
0.952,-0.5917800396155294,5902.393517710288
0.956,-0.5432305634225174,5893.221216163599
0.96,-0.4025927935694768,5909.887802349414
0.964,-0.17041861529568889,5901.381474287835
0.968,0.130649728811824,5898.464320112107
0.972,0.46021836133528554,5903.961993293972
0.976,0.768665407712109,5906.478601005066
0.98,1.0073915376144822,5900.8542437909855
0.984,1.13797089747784,5899.513071715344
0.988,1.1382536511016543,5895.375839302582
0.992,1.0045912984241752,5911.306337693501
0.996,0.7501230838068557,5897.407995059701
1.0,0.40005354739524646,5901.158583896908
1.004,-0.013813435924619758,5900.574171731585
1.008,-0.45692063885350953,5909.802340096579
1.012,-0.8937929494678204,5897.398900543516
1.016,-1.2893379712710684,5900.769750738854
1.02,-1.6106632784479797,5903.554205401636
1.024,-1.8291228050233883,5913.469588028966
1.028,-1.9224948196472305,5902.966043019967
1.032,-1.8782317858949866,5892.554333659749
1.036,-1.6980796363383992,5908.336773027921
1.04,-1.4019591132142561,5905.607929916925
1.044,-1.0277818286344076,5903.383731156135
1.048,-0.6259307949776642,5905.085724959455
1.052,-0.2506258471234324,5899.8223263428135
1.056,0.048348359886221125,5902.86367149902
1.06,0.23176770783747552,5900.830324808747
1.064,0.27499728447326227,5897.534268806774
1.068,0.17001977299321017,5896.789846531725
1.072,-0.07488691143292321,5907.783253786092
1.076,-0.43753121052618144,5894.079458303004
1.08,-0.8849730788617245,5899.670284073238
1.084,-1.3762178179946647,5902.574742517239
1.088,-1.8639961692760845,5889.363235393808
1.092,-2.296117250823503,5900.946727181737
1.096,-2.6179687157375677,5899.390692247962
1.1,-2.7783102632276755,5899.81504929062
1.104,-2.739006524226975,5902.463589973564
1.108,-2.4860784111041814,5904.386718388139
1.112,-2.037113168469673,5906.350186036296
1.116,-1.4408293192071266,5906.403215705575
1.12,-0.7681806529523202,5892.015994712869
1.124,-0.09842153715114287,5901.948684431784
1.128,0.4948013228145703,5900.60615674941
1.132,0.9537168226967294,5895.985266281904
1.136,1.2420975608463312,5902.122069952542
1.14,1.347314641547312,5896.158511908787
1.144,1.28033532830926,5909.645253100407
1.148,1.074298006781462,5902.79478021736
1.152,0.7806599959508819,5894.483464288791
1.156,0.4612837199617773,5900.204460758171
1.16,0.1760813959477214,5899.581746097064
1.164,-0.031743282256672264,5900.003104283078
1.168,-0.14835625051324267,5896.695332185352
1.172,-0.19412276081394395,5900.101918662052
1.176,-0.21657972328372332,5893.410906955352
1.18,-0.2725669969076749,5904.559689349625
1.184,-0.4061866673156315,5891.889821766599
1.188,-0.631546795495822,5906.550194725905
1.192,-0.9267359067012141,5903.7581732316
1.196,-1.2402334344411003,5903.864180309169
1.2,-1.5062187278281975,5896.465550413267
1.204,-1.6630843834093159,5894.398949247297
1.208,-1.6698649860069763,5897.00609284622
1.212,-1.5166266958602073,5905.844717816138
1.216,-1.2260893002361517,5903.5967722788455
1.22,-0.8455814428585957,5892.536299210741
1.224,-0.43159457434270376,5902.312792580445
1.228,-0.03276848617628922,5894.639921828446
1.232,0.321237982529674,5902.805124106891
1.236,0.6200443274635237,5904.145942170984
1.24,0.8632162825638029,5903.578318370749
1.244,1.0483401351897124,5897.364643179467
1.248,1.1647758626374116,5900.297274219023
1.252,1.1971362643775492,5904.714290616926
1.256,1.1358546365136226,5900.125592247822
1.26,0.9876491848063247,5893.71326460203
1.264,0.77921940944604,5895.5469307050735
1.268,0.5521553015951081,5894.178711384035
1.272,0.35186117258993416,5910.126945385026
1.276,0.21512281563784968,5899.674397705719
1.28,0.1601161819359236,5895.564473520391
1.284,0.1814803296485498,5892.317786172592
1.288,0.2522323895916215,5899.457823176535
1.292,0.33253345641249804,5908.115370062821
1.296,0.38254218544388513,5897.674474512117
1.3,0.37481503008521955,5900.125308757532
1.304,0.30218699450619274,5900.19368314431
1.308,0.17881465785646908,5899.544974151463
1.312,0.03406959659468255,5902.172764058586
1.316,-0.0984349702798306,5889.59580562804
1.32,-0.19180358169362527,5905.0856113118125
1.324,-0.231864634002899,5905.599363007845
1.328,-0.2167108518726807,5903.1646353634505
1.332,-0.15221528586072314,5902.641224695014
1.336,-0.04723924969656929,5899.53021429278
1.34,0.08889162392564565,5895.439135672955
1.344,0.24583199725729776,5897.936577687608
1.348,0.4096377496648684,5909.134630801963
1.352,0.560790545954769,5897.007942167589
1.356,0.6754063161943501,5911.634004725057
1.36,0.7301414506195738,5902.625402559849
1.364,0.7087478793708171,5904.794410506231
1.368,0.6071065528801548,5894.328534594689
1.372,0.4344849397094024,5896.202407943172
1.376,0.21062207179258896,5902.242374530697
1.38,-0.04016799228350314,5898.124746400505
1.384,-0.2954285199000794,5894.488420893745
1.388,-0.538604875121526,5903.375268975524
1.392,-0.7594317016315323,5904.537581930152
1.396,-0.9523966422447289,5903.583680281825
1.4,-1.1160881089124997,5908.72683788884
1.404,-1.2540656557370449,5896.210920768997
1.408,-1.3750656851336909,5906.152808037621
1.412,-1.490033065453785,5897.94869839561
1.416,-1.6059931321698757,5905.469384405319
1.42,-1.7196578197900065,5902.377789634715
1.424,-1.8142550739526597,5898.874866917314
1.428,-1.8611912319817687,5893.938926425676
1.432,-1.825780308591826,5905.406839810998
1.436,-1.675169623487453,5901.460251458938
1.44,-1.3868887183360423,5898.3441770181535
1.444,-0.9570160779709372,5899.364688987125
1.448,-0.40665843823360154,5903.963628599026
1.452,0.21561793494728138,5903.809156712269
1.456,0.8381182233676431,5898.017441658571
1.46,1.3780465279934928,5910.947591322815
1.464,1.7585934928293812,5899.294535676532
1.468,1.925612597256369,5897.677748205783
1.472,1.858771337455787,5897.765439528888
1.476,1.575181479635144,5902.348835199019
1.48,1.1265258555857496,5891.643975797006
1.484,0.5913749481790324,5902.728932718247
1.488,0.06314936885611679,5903.897672060884
1.492,-0.3664199695967916,5903.468055285107
1.496,-0.6265192362091243,5911.204789043147
1.5,-0.6840909356320776,5905.948521391543
1.504,-0.5520609241671819,5898.425326752789
1.508,-0.2853364377933914,5894.85578815134
1.512,0.03440500183860553,5900.819061333255
1.516,0.32028126738529106,5905.341414722969
1.52,0.5017269548234111,5904.5274245818255
1.524,0.5402090056288108,5900.454164267695
1.528,0.4354615968227566,5899.68590971584
1.532,0.22147779550234084,5891.414375364736
1.536,-0.0454640045427765,5897.091072024943
1.54,-0.30242405186728605,5906.816579311951
1.544,-0.4946158094558437,5902.579499871377
1.548,-0.5863583749184145,5899.844739176016
1.552,-0.5667470263079265,5909.511060592369
1.556,-0.44954450182862465,5899.176345415699
1.56,-0.2673864627645748,5897.081340266103
1.564,-0.06152039816352173,5896.583309373685
1.568,0.13011766141194356,5903.85280934465
1.572,0.28252778563993847,5896.423840271351
1.576,0.3871333416362564,5908.275410250426
1.58,0.4474839727604095,5913.661355272068
1.584,0.46975422010069195,5899.095375950249
1.588,0.4544436955415446,5907.82920846864
1.592,0.3955718120370599,5909.347218316756
1.596,0.2888455042210521,5906.014402947165
1.6,0.1439717688743424,5888.930444997525
1.604,-0.007227092889864566,5898.601514924525
1.608,-0.11381821469875644,5902.704299984996
1.612,-0.12125321695771034,5904.545511951864
1.616,0.006200376754318098,5901.633916155715
1.62,0.266216903127508,5896.895333555526
1.624,0.611614756190587,5907.071503439103
1.628,0.9594405328999809,5916.957009345275
1.632,1.2128172096345335,5903.131569015768
1.636,1.2885912846389647,5894.510485763654
1.64,1.1428259148689968,5893.955931020816
1.644,0.7870053150141882,5899.77781298088
1.648,0.2899143900788938,5897.336808753335
1.652,-0.23657902832880812,5899.59833657534
1.656,-0.6653228498754359,5907.634609388276
1.66,-0.8883255158231064,5898.506664656222
1.664,-0.8479978168046401,5907.68483345156
1.668,-0.5552477408695358,5895.81095982939
1.672,-0.08772342245014007,5899.173839610568
1.676,0.43232830594680666,5893.571399309564
1.68,0.8738281448031584,5899.012204103518
1.684,1.1341838055662061,5905.670543517832
1.688,1.1655077679483243,5913.565979816427
1.692,0.981554199567361,5895.169278866148
1.696,0.6445769793241001,5899.387766393593
1.7,0.23878864904049116,5900.311166815046
1.704,-0.1580589928963196,5904.211086455415
1.708,-0.49378613664709625,5899.918895494586
1.712,-0.7461426354742898,5903.71036145499
1.716,-0.9147555190533908,5905.14962429203
1.72,-1.0084404115506798,5901.734927099666
1.724,-1.0362133937898808,5900.757936112593
1.728,-1.006149686869745,5897.407801255448
1.732,-0.9299609138320007,5899.630549588072
1.736,-0.8269064041350492,5912.072544703595
1.74,-0.7212794220166183,5899.254563557835
1.744,-0.6327953578440172,5908.77801308237
1.748,-0.5653060450302781,5907.5279472951925
1.752,-0.5020476886264356,5903.596003433406
1.756,-0.4126175493873111,5899.486087354305
1.76,-0.269349235731894,5908.128305550028
1.764,-0.06375089185629287,5900.182671108078
1.768,0.1872411441296133,5893.25603050995
1.772,0.4490706278168925,5896.728174017412
1.776,0.6862288457486395,5903.693769218229
1.78,0.8771833297236915,5898.625903374604
1.784,1.018768148252944,5897.354597362172
1.788,1.1187835078091377,5904.554081278732
1.792,1.183311550505385,5903.555274210043
1.796,1.2075999988281532,5900.568377864227
1.8,1.1754448042069647,5900.672309605764
1.804,1.0661802977395025,5916.214143404456
1.808,0.8651109384454962,5901.436784334132
1.812,0.5728498281679084,5900.81360898565
1.816,0.2098657915374516,5895.63805192713
1.82,-0.18571935357828548,5904.962063705529
1.824,-0.5663366101749087,5902.304885403563
