时间(s),电压(V),幅值(高频80K)
0.0,1.7370456092495605,5892.684678871348
0.004,1.5321540571290908,5907.990698165159
0.008,1.3705677078836322,5894.86206745845
0.012,1.2859535175978818,5893.284393601543
0.016,1.2913277766750386,5891.316060105825
0.02,1.3758250755383301,5905.69025772506
0.024,1.5091119929143948,5897.394337957916
0.028,1.6503814189249553,5893.235318299284
0.032,1.7566289401187223,5904.953120013082
0.036,1.7877172375913768,5905.7107367089575
0.04,1.710320095164348,5893.411445991831
0.044,1.5040013308769338,5900.330739117055
0.048,1.1692498497886126,5908.277671746889
0.052,0.7330919764590554,5905.543733777039
0.056,0.24747094572822204,5893.044653001689
0.06,-0.22053631093098894,5899.315129062494
0.064,-0.603124064101203,5899.416206882152
0.068,-0.8459346717074971,5898.074651380709
0.072,-0.9188787893031296,5905.87044576738
0.076,-0.8222470298640773,5899.489416545711
0.08,-0.587161544147037,5905.258672796124
0.084,-0.26992573677079995,5898.661637952871
0.088,0.05850580384932616,5896.200490871391
0.092,0.32542520587490015,5904.231034720556
0.096,0.46950155131155397,5897.257913413778
0.1,0.45267211792639545,5891.810754715187
0.104,0.2687190639486097,5904.001193605654
0.108,-0.05433974309136529,5899.576925784099
0.112,-0.459815363701205,5894.113547649689
0.116,-0.8745694487886246,5896.688418810882
0.12,-1.2237737659084373,5898.704066456928
0.124,-1.443853975876744,5906.804687639285
0.128,-1.491626514430127,5904.663445854374
0.132,-1.3499557939194557,5899.62165368653
0.136,-1.0303870353953457,5896.728617405358
0.14,-0.5721227128597937,5897.2786970952375
0.144,-0.03645075252490817,5893.788582570157
0.148,0.5033223010474752,5902.406579441011
0.152,0.9747625871102749,5896.021072853989
0.156,1.318669643427511,5908.2214033195005
0.16,1.4972150022835113,5903.847732457212
0.164,1.4962087564054385,5898.834708769423
0.168,1.3227498119871115,5911.556359286142
0.172,1.000679538630608,5901.649079424179
0.176,0.5654676012673011,5900.167191226289
0.18,0.05957129071416916,5887.578089704077
0.184,-0.4701636141271275,5894.653737736521
0.188,-0.9719083536036927,5888.067728663615
0.192,-1.386956326699206,5893.837111576114
0.196,-1.6516693528423925,5894.717862703675
0.2,-1.7076266401010145,5893.999065323592
0.204,-1.5189912387259448,5900.453125305634
0.208,-1.0901468034882036,5903.196671061108
0.212,-0.474495029293942,5898.9433215011695
0.216,0.23160860482236947,5895.763310415689
0.22,0.9093156303642467,5895.032351253382
0.224,1.4452166808552023,5898.4160057352055
0.228,1.7567367263900757,5909.2934721884285
0.232,1.8071871919668607,5904.0351157731175
0.236,1.6087297819514013,5897.915630098137
0.24,1.2167288670490033,5889.25630294689
0.244,0.7194806285236078,5900.36366015823
0.248,0.22414366722347728,5903.121785084718
0.252,-0.16240015720573903,5899.993771649444
0.256,-0.3568724953495122,5894.156694755609
0.26,-0.32148154419485886,5900.948459295738
0.264,-0.07603305390668086,5904.102453296499
0.268,0.3056424066258873,5889.902387462442
0.272,0.714693352228721,5897.617829004857
0.276,1.0355800501385128,5902.328291854446
0.28,1.1749415457650145,5901.635297825192
0.284,1.083008962107399,5898.615805448922
0.288,0.7628163505918046,5898.840482563626
0.292,0.2664105479680723,5909.478957776715
0.296,-0.3196502314600543,5901.438042894984
0.3,-0.8955308978383617,5903.869663708725
0.304,-1.3715449387450094,5897.757584710184
0.308,-1.6891048029535418,5898.851225484779
0.312,-1.8341492612648895,5900.465512520126
0.316,-1.838048440378097,5902.112926546778
0.32,-1.7636602626754312,5900.854989186627
0.324,-1.6801482088430286,5902.769944058216
0.328,-1.6362318104646048,5906.413324659197
0.332,-1.6431990640809144,5900.247997730067
0.336,-1.6745658483195731,5900.019476926861
0.34,-1.6813820909704156,5903.064360944617
0.344,-1.6156180677562624,5914.587568947592
0.348,-1.451770024531974,5897.284576428157
0.352,-1.198386316209332,5901.408383382954
0.356,-0.8950406375566577,5902.306927558367
0.36,-0.5956841586811571,5902.390518600938
0.364,-0.3454278153248483,5900.938120099647
0.368,-0.16173397767911984,5892.292928467246
0.372,-0.029237195520063517,5897.9994681448525
0.376,0.08987658961944583,5903.581367729948
0.38,0.23598126368149247,5895.717747689595
0.384,0.43240156449924516,5902.47256776211
0.388,0.6742731373302153,5912.207795093744
0.392,0.929016387278846,5903.687156961408
0.396,1.1461931664288265,5899.376283171189
0.4,1.2718386694692592,5894.308299448118
0.404,1.2629326941201564,5899.48131885012
0.408,1.0990917721163067,5901.776561342045
0.412,0.7889200777547037,5901.776597546378
0.416,0.36876149754626053,5900.38065669815
0.42,-0.10634395123117671,5889.653847493413
0.424,-0.5763443115937855,5893.248546354054
0.428,-0.9891851053543452,5905.200240983596
0.432,-1.3087090133742232,5896.12116692244
0.436,-1.5164599066480193,5900.054545045164
0.44,-1.6098117200442297,5909.211046674552
0.444,-1.5993124561250383,5897.834248673783
0.448,-1.5056285824944247,5895.339082403335
0.452,-1.3544708204166318,5900.8024076589845
0.456,-1.1691537207888758,5898.865839077507
0.46,-0.9635188323235027,5898.853137981369
0.464,-0.739344168706408,5909.981499534552
0.468,-0.4905518894296948,5900.19233583994
0.472,-0.21267249733685298,5899.812607811732
0.476,0.08737183079197981,5902.74504812293
0.48,0.38665534213978653,5888.057587474099
0.484,0.6495278258559064,5899.03072032812
0.488,0.8374727687371981,5897.073890671873
0.492,0.9215880461905364,5895.148523134863
0.496,0.8932903686895808,5906.7132668408985
0.5,0.7696243050117612,5900.46418167957
0.504,0.5908310233329704,5916.043935894892
0.508,0.41002088213145166,5900.861379618885
0.512,0.277902668915625,5885.12739542992
0.516,0.227879338547509,5901.687531245439
0.52,0.2666059471113219,5897.239639826791
0.524,0.37262330199916815,5898.768786164633
0.528,0.5028341502332204,5893.73578575709
0.532,0.6045260179972247,5904.190667365613
0.536,0.6293840756389589,5904.9223069806
0.54,0.5456380757258352,5899.458314815342
0.544,0.3453492688276082,5904.809868181027
0.548,0.045352205254380495,5907.495346046967
0.552,-0.31806573599271754,5902.314864654408
0.556,-0.6989593798203152,5898.330761165567
0.56,-1.0524238202372258,5911.231515125059
0.5640000000000001,-1.3420202929115286,5892.966511288588
0.5680000000000001,-1.5418370885970245,5893.920730906027
0.5720000000000001,-1.6349832127039827,5904.279730674167
0.5760000000000001,-1.6124160704668087,5894.620273367188
0.58,-1.4741336244277068,5902.687518083193
0.584,-1.2314164878259477,5896.762038157141
0.588,-0.907841004775047,5895.681696056089
0.592,-0.5382332913562786,5897.577673605848
0.596,-0.1658939075544181,5904.465700231527
0.6,0.16169557718675387,5903.905404201761
0.604,0.3987585625541828,5894.062709690548
0.608,0.508497382993348,5897.517861148162
0.612,0.47096957597083866,5897.071417972524
0.616,0.2901372632346588,5901.433487875172
0.62,-0.002150864538549464,5899.236415599882
0.624,-0.34808638203777104,5902.592168609707
0.628,-0.6736865868258164,5900.413034453616
0.632,-0.9054040520585259,5907.520262036778
0.636,-0.9891204113145091,5903.40989751201
0.64,-0.9055427105515098,5896.846186100657
0.644,-0.6767318727221963,5899.445477068717
0.648,-0.3607462307421598,5901.685847370231
0.652,-0.03499201313447222,5892.976570829528
0.656,0.22685219908584758,5900.519926902827
0.66,0.376608553998974,5904.87206990617
0.664,0.4045900968294482,5899.148040710556
0.668,0.3394504959610124,5903.681342717864
0.672,0.2352057770718928,5897.181419929423
0.676,0.1505381802652988,5894.716229602473
0.68,0.12859975346368774,5906.8163293116695
0.684,0.1850565535547795,5903.598404294912
0.6880000000000001,0.30789418625970694,5894.068655004971
0.6920000000000001,0.46692077501498463,5911.1309206412125
0.6960000000000001,0.6271031874380242,5905.679834971124
0.7000000000000001,0.7595768642737389,5899.3032660841245
0.704,0.8469854077077437,5897.224733706953
0.708,0.8835653098557462,5901.102570665569
0.712,0.87259223484323,5903.149563400786
0.716,0.8236781891798514,5901.624470938578
0.72,0.7510206275529945,5897.438700787559
0.724,0.6722546281987494,5908.530917254709
0.728,0.6066398869218096,5900.364512556213
0.732,0.5712998776297157,5895.096900264887
0.736,0.5753660057425458,5896.263016568095
0.74,0.6138216857258938,5898.894625255969
0.744,0.6643718032043492,5888.7774673938775
0.748,0.6904414433795857,5901.149912987041
0.752,0.6511918026419047,5899.118173552809
0.756,0.5162033117765871,5897.810993216948
0.76,0.27958374488420895,5901.026089236274
0.764,-0.03287800399606472,5902.15048130417
0.768,-0.3679570028528832,5903.120481390913
0.772,-0.660091042577741,5895.239592571555
0.776,-0.8513246314127237,5903.94638413546
0.78,-0.9077607178556875,5898.7416150787885
0.784,-0.8263560524138602,5902.881847725931
0.788,-0.6308464491481874,5899.7809915715625
0.792,-0.3604387679943304,5895.526662671703
0.796,-0.057394761965502056,5898.314730524116
0.8,0.24112159344689132,5896.457599580173
0.804,0.5047939806049869,5897.223336296201
0.808,0.7072337541358754,5901.268352737871
0.812,0.8226339149420139,5901.364180288742
0.8160000000000001,0.8260079324642882,5908.880085125011
0.8200000000000001,0.6983304465640104,5911.940393153312
0.8240000000000001,0.43480548243166245,5897.399975946404
0.8280000000000001,0.05278213798888335,5891.728765142731
0.8320000000000001,-0.4045566806068671,5894.210854333311
0.836,-0.8721424221294124,5901.938993820469
0.84,-1.2759701991988093,5896.8374088773735
0.844,-1.5524055956933125,5897.732901269597
0.848,-1.667037394585661,5899.229418921006
0.852,-1.624978234259799,5900.609384273321
0.856,-1.467814142705614,5899.120303252859
0.86,-1.2586535918538382,5900.989272446377
0.864,-1.0617233774212929,5897.28412871961
0.868,-0.9238608066904115,5900.91667293931
0.872,-0.8630482080626221,5892.464887330883
0.876,-0.8663476505079025,5904.817226890148
0.88,-0.8971669415907111,5893.043638788528
0.884,-0.9093833838268743,5902.402987402684
0.888,-0.8638060010083872,5902.3789798245725
0.892,-0.7419542627232127,5899.714202732465
0.896,-0.5534987494359627,5903.256448852997
0.9,-0.33565171213066974,5901.013645890483
0.904,-0.14416979010628136,5899.44657669973
0.908,-0.037120076289092134,5894.896436679248
0.912,-0.05509180182766691,5907.270297461701
0.916,-0.2039282979508827,5905.227984184423
0.92,-0.44629351420054714,5907.029840490869
0.924,-0.7063083779668197,5904.500233035127
0.928,-0.8880264485965295,5894.614331197392
0.932,-0.903825503655979,5908.54691083397
0.936,-0.7037652086008375,5901.925359168619
0.94,-0.2947731011410549,5895.27275784233
0.944,0.25825723872944106,5892.5502327477325
0.948,0.8500877271714974,5905.919147638927
0.952,1.364776083373237,5901.152381960341
0.956,1.7065738603803966,5903.173423287209
0.96,1.821844909841646,5895.363713014893
0.964,1.7063275260408186,5900.265964595291
0.968,1.3982927437282617,5899.318060534195
0.972,0.9629043672661626,5896.199547784239
0.976,0.4745767955161524,5904.989043931875
0.98,0.0026651631293877877,5901.102833706998
0.984,-0.39723145686159095,5894.3757592371
0.988,-0.6870718559094922,5902.392624418501
0.992,-0.8473661091128454,5894.697131200187
0.996,-0.8767953228570793,5894.120820962393
1.0,-0.790575878141175,5891.680332424122
1.004,-0.6172463296620238,5899.747632782658
1.008,-0.39402934397458245,5895.042074487824
1.012,-0.1613686666785578,5899.273774282771
1.016,0.0427577615761463,5889.773194107568
1.02,0.18819357063452183,5896.2807249243015
1.024,0.2568039382734283,5904.952373586117
1.028,0.24446244997773398,5907.268144587376
1.032,0.16027585456343219,5891.268198844881
1.036,0.02366988446651667,5898.646148798221
1.04,-0.1393421759912727,5899.295649154598
1.044,-0.29988823940345,5904.001507622403
1.048,-0.4300715088272858,5905.724992792975
1.052,-0.5071016559050816,5900.1343166919705
1.056,-0.5168578788564298,5909.924730853161
1.06,-0.4550244584670356,5898.452814675134
1.064,-0.32484001490661113,5902.1857138317255
1.068,-0.13324865828279842,5899.333706205854
1.072,0.11103697361288434,5901.759297079801
1.076,0.39564704213678886,5906.077359274544
1.08,0.7004206274767922,5910.993495485507
1.084,0.9948425560859908,5902.958948844594
1.088,1.2403481272411916,5908.448111760283
1.092,1.3980326332572834,5893.706912309362
1.096,1.4390131673928093,5898.73042466302
1.1,1.353169879253553,5897.73599519894
1.104,1.1532233961618243,5895.502748362873
1.108,0.8734616609433374,5888.27858047477
1.112,0.5637061229904633,5908.674085123651
1.116,0.2792722871964558,5902.013067499786
1.12,0.06837928441489313,5900.855337991152
1.124,-0.039867395722780856,5906.318828053119
1.128,-0.04281932052674152,5896.66761746304
1.132,0.035867567359835366,5888.189502828073
1.136,0.15355082197723496,5894.658734538917
1.14,0.2598220242222337,5899.696515346133
1.144,0.30784997577767753,5893.671343694022
1.148,0.2639257603854372,5901.525523979584
1.152,0.11505392378524876,5900.580310219665
1.156,-0.12578312678814424,5904.643524610573
1.16,-0.4186365844942852,5904.893141535568
1.164,-0.7027309934673821,5896.440901098053
1.168,-0.9109863899220838,5908.549730232036
1.172,-0.9899472945961745,5907.886187228121
1.176,-0.9179204935504145,5895.3372579803545
1.18,-0.7135253188151027,5896.145944026571
1.184,-0.4308152395523715,5902.350692867454
1.188,-0.14301400833769168,5895.926944159311
1.192,0.0787989159777218,5900.3989642095285
1.196,0.18484358217420363,5888.62299603598
1.2,0.1583812862659662,5897.801128433025
1.204,0.017703668881236676,5893.917954074954
1.208,-0.19115998959163505,5896.1618231948
1.212,-0.4078552606420602,5901.741200685701
1.216,-0.5723908275339618,5895.256885815339
1.22,-0.6370764887171826,5887.3370318134885
1.224,-0.5743201493411328,5896.010892868154
1.228,-0.3806743457818435,5897.10853312605
1.232,-0.07729858291243429,5905.794576195772
1.236,0.29367248816473074,5888.626605615434
1.24,0.6768962368748347,5908.728351161883
1.244,1.014523952432965,5897.211258156872
1.248,1.2575789430604867,5898.719392686869
1.252,1.3750591103616256,5907.552802399202
1.256,1.3581197071528466,5907.770499500959
1.26,1.2189044536670521,5904.906146521201
1.264,0.9862918090213296,5905.675825016273
1.268,0.7012039391540411,5903.987578881128
1.272,0.4120737931945057,5898.752628890469
1.276,0.16922222456556937,5902.287203004184
1.28,0.01705367793419954,5891.997029290619
1.284,-0.015277217016451083,5904.886945759021
1.288,0.07786607366356738,5898.233730261539
1.292,0.27472320019840035,5905.663516276049
1.296,0.5287474496707651,5895.9739746107525
1.3,0.7773209109171322,5899.449936015874
1.304,0.9542426893681352,5899.631511136555
1.308,1.0034259760280313,5904.290295202215
1.312,0.8918331899165264,5899.713428399131
1.316,0.6193371369477266,5898.387707042882
1.32,0.22224625958223831,5906.186739804732
1.324,-0.2320867153896801,5891.268652900866
1.328,-0.6592615791034482,5899.290528123494
1.332,-0.9769517070399354,5902.572609376707
1.336,-1.123984103920796,5905.255304294591
1.34,-1.0743085877897063,5898.971987390024
1.344,-0.8421757472507764,5905.732091134289
1.348,-0.47705550328661933,5901.578108468747
1.352,-0.0497892653554944,5906.67461399932
1.356,0.36546050363533605,5900.756676266565
1.36,0.7076294589033583,5889.796398270674
1.364,0.9392840683783332,5897.883911856548
1.368,1.0499028648601854,5902.636929738898
1.372,1.0526468759962848,5892.702434565568
1.376,0.9763573832569045,5906.289732777949
1.38,0.8552078125816855,5910.290468299888
1.384,0.7189123264605519,5903.066078642519
1.388,0.5858806731214444,5900.1417142387545
1.392,0.46030773377782475,5900.84018836893
1.396,0.3333860517715508,5901.124764144435
1.4,0.18893820597661365,5897.867944631675
1.404,0.01281217667240438,5890.6402806156
1.408,-0.19747450861782428,5891.807160181919
1.412,-0.42842598125825443,5898.885312821837
1.416,-0.6551594316863127,5905.995817148841
1.42,-0.8527445461918275,5900.139863512169
1.424,-1.0071351162487865,5903.059814611305
1.428,-1.118619872283071,5893.138132046631
1.432,-1.1959352114292103,5898.617510443761
1.436,-1.245268878284791,5900.4954275672735
1.44,-1.2611182332421131,5901.056433452637
1.444,-1.224646274422193,5904.5057424688375
1.448,-1.1113950881246182,5901.74407516285
1.452,-0.9054283530560174,5901.211631018588
1.456,-0.6130188816746998,5900.457819171403
1.46,-0.26840971667181274,5890.818711382091
1.464,0.07223739798759578,5900.002833711086
1.468,0.34689169512263235,5895.682845814305
1.472,0.5070784500465153,5901.411845201885
1.476,0.5324383462341455,5901.7639251398095
1.48,0.4347383893053849,5896.013072686602
1.484,0.25110537551422163,5902.527756154594
1.488,0.03113941190249232,5900.605193309324
1.492,-0.1760806060259614,5897.609349325836
1.496,-0.33124268167276283,5901.221674245789
1.5,-0.4097264406822916,5901.271736213385
1.504,-0.40347969884703416,5899.298837800954
1.508,-0.320582761470797,5903.440045051424
1.512,-0.18199626764704854,5898.357535487787
1.516,-0.01556525577706368,5899.268645056737
1.52,0.1505227979494052,5904.698634662627
1.524,0.2919627867391252,5899.278921346053
1.528,0.3895095181823845,5886.980139290623
1.532,0.42892926604717646,5889.6428047806685
1.536,0.4018428833264279,5899.663098135389
1.54,0.3079283945837407,5901.122740221923
1.544,0.1572159473921571,5894.348346377867
1.548,-0.029619535036308084,5902.410374107036
1.552,-0.22449295715520126,5890.385031598658
1.556,-0.3980277823669233,5903.212645903097
1.56,-0.525688035383918,5901.578236991836
1.564,-0.5911455912441683,5908.722316984379
1.568,-0.5864914352804413,5904.700303901621
1.572,-0.5109419171602082,5894.244640037324
1.576,-0.3695753932097147,5900.613005759785
1.58,-0.17244018440814338,5889.969105992844
1.584,0.06588098265898987,5901.103003192689
1.588,0.3257036197064315,5900.498375752926
1.592,0.5809253919794615,5906.317058436149
1.596,0.7990956268641147,5902.792104287353
1.6,0.9451149853851544,5904.194348890793
1.604,0.988339677772553,5895.090099539137
1.608,0.9105960335268017,5901.043965083924
1.612,0.7123558896797407,5889.272678859701
1.616,0.41499061649285957,5902.315357295762
1.62,0.05792600482843297,5905.431173040694
1.624,-0.30888070887744157,5904.590940428722
1.628,-0.6350999955098539,5896.856600841809
1.632,-0.8801186905098333,5886.661073487478
1.636,-1.0203442562861516,5903.126188729326
1.64,-1.0516640266154609,5904.453447452245
1.644,-0.9869326140680855,5897.73765433762
1.648,-0.8505249961271775,5896.776324773586
1.652,-0.6723023011112398,5903.607820255788
1.656,-0.4818414364337866,5899.68492365274
1.66,-0.30269821187321044,5900.378024840778
1.664,-0.14721048285828742,5891.01510654538
1.668,-0.013857395017209947,5901.06913603377
1.672,0.11064824024495695,5910.144129419516
1.676,0.2442421257387395,5894.655930039183
1.68,0.39968904762763463,5895.247916368697
1.684,0.5760938998787258,5905.01155440013
1.688,0.7557790509589611,5900.851381144414
1.692,0.9086858592626412,5896.802489812921
1.696,1.0032111107709656,5899.71407904724
1.7,1.0192150963279345,5904.863927758067
1.704,0.9575035844986611,5895.99778625654
1.708,0.8413302102486863,5908.210001436046
1.712,0.7090136200990713,5901.950016058772
1.716,0.6007460685770176,5895.951115542878
1.72,0.544856805066186,5896.300990882128
1.724,0.5484700367079197,5903.527233610515
1.728,0.595635662950623,5898.809139237614
1.732,0.6535931393852,5899.630463214927
1.736,0.6849859337310663,5905.561554033664
1.74,0.6611440482302711,5895.906337245536
1.744,0.5709008370744596,5899.808365508373
1.748,0.42191706014284225,5899.948495479031
1.752,0.23532955870639793,5895.692773624582
1.756,0.03693739258502161,5902.8208743111145
1.76,-0.15156271615647088,5905.675667374393
1.764,-0.3184111401226517,5896.492148586392
1.768,-0.4627073055999646,5886.990958928988
1.772,-0.5900653701652132,5888.45268760507
1.776,-0.705038108423205,5897.978197681726
1.78,-0.804044171035981,5901.070033635904
1.784,-0.8721724221971181,5889.732190280082
1.788,-0.8852458435723675,5894.343888483119
1.792,-0.8162920609049582,5896.770223646058
1.796,-0.6439779345501956,5901.427522529608
1.8,-0.36018651163896104,5900.946176222189
1.804,0.024992619073147763,5894.04253439436
1.808,0.4810213896386017,5905.563000872395
1.812,0.9573114880162663,5910.345585853725
1.816,1.3874015115348164,5892.871866745392
1.82,1.6986854218948042,5892.656081538045
