时间(s),电压(V),幅值(高频80K)
0.0,-0.31220041988667935,5895.110908861511
0.004,-0.190383211495927,5900.755003914882
0.008,-0.10833765439209084,5895.136224175202
0.012,-0.09556839573885068,5897.006950672689
0.016,-0.16389700974890692,5896.6775256809215
0.02,-0.3072557198274613,5899.113565889616
0.024,-0.5042810353559779,5894.628633289308
0.028,-0.721239661259771,5903.937701331365
0.032,-0.9162552448808537,5911.060913580107
0.036,-1.046423326577645,5897.408025401
0.04,-1.0765644167421338,5900.1192301515375
0.044,-0.9860555578136873,5903.150511144891
0.048,-0.7714835125778388,5900.083714628172
0.052,-0.4460369439385381,5904.919760959861
0.056,-0.03765966378598835,5892.351976241924
0.06,0.41356220395784016,5903.270791954814
0.064,0.8594817592684088,5906.693515212745
0.068,1.2492146278779581,5908.274311571303
0.072,1.5341804022529466,5894.362878889888
0.076,1.671959679545324,5895.32882298484
0.08,1.6301184229632748,5901.207275734518
0.084,1.3918361107332788,5898.031859315117
0.088,0.9630903236135835,5908.134506156031
0.092,0.37827889785686253,5912.1579856946255
0.096,-0.2996622769542167,5912.293042509249
0.1,-0.9867084324447896,5904.242929635529
0.104,-1.5917537186545456,5899.254681227955
0.108,-2.033864517991626,5896.73459923964
0.112,-2.258726442910644,5905.196378214932
0.116,-2.2503504918734425,5900.345344551359
0.12,-2.034572921236537,5898.746627762387
0.124,-1.6726029775358378,5894.193701523164
0.128,-1.2461717999840034,5899.380796815862
0.132,-0.8387431717629132,5901.831009027492
0.136,-0.5177615981175451,5905.482883474167
0.14,-0.3216974544073629,5903.8604400596105
0.144,-0.254506376500611,5903.248989410788
0.148,-0.2890113107042325,5899.565482224257
0.152,-0.37844429109850075,5896.358007863245
0.156,-0.472400241121122,5902.265541971915
0.16,-0.53169982813295,5900.0160774809565
0.164,-0.5372244005815764,5900.056436799094
0.168,-0.49041750262085604,5901.867897178366
0.172,-0.40686621488765495,5893.234346767071
0.176,-0.3073196955840867,5904.791065831115
0.18,-0.21074145146509166,5901.235856751826
0.184,-0.1315296510518618,5902.186415857116
0.188,-0.07997579569888479,5904.984989648934
0.192,-0.06346351146298508,5898.555289090086
0.196,-0.08632632864126503,5905.934684513934
0.2,-0.14781921211282562,5904.871493318095
0.204,-0.2392242614667135,5909.684609389509
0.208,-0.3421215649955433,5904.595787808737
0.212,-0.4299267354764923,5895.511354707769
0.216,-0.47334778938581873,5902.271445523512
0.22,-0.4478300537368999,5889.732805149188
0.224,-0.3396638601151803,5906.142433694048
0.228,-0.14899429205800802,5903.010341344694
0.232,0.10939478904172124,5900.894883313615
0.236,0.40629020290395584,5905.206492030936
0.24,0.6998188079404509,5905.345358577875
0.244,0.9402162720014507,5894.598600415804
0.248,1.077744352092105,5904.492588293816
0.252,1.0721448440960097,5908.065137826446
0.256,0.9014400631626442,5895.570989892613
0.26,0.5685086192248157,5891.674030627472
0.264,0.1046411610772077,5910.197868336785
0.268,-0.4308111567196576,5897.647375998136
0.272,-0.9563062002806879,5905.250818676735
0.276,-1.3806779488773866,5888.48182308573
0.28,-1.620771800053888,5897.77464894945
0.284,-1.6191830394783404,5894.414194981971
0.288,-1.3567066642949552,5902.831194402279
0.292,-0.8569453921545445,5904.9531203848965
0.296,-0.18333194459235572,5896.502295649533
0.3,0.570410268407566,5900.124214263359
0.304,1.295163252583512,5899.41565868102
0.308,1.8844591362249055,5893.409225645873
0.312,2.252464987613853,5907.716059716837
0.316,2.3486908394210975,5899.958902319945
0.32,2.1668419675033497,5902.41225425514
0.324,1.7459730034179852,5903.880588668786
0.328,1.163078538998099,5896.81825237652
0.332,0.5179303754840199,5903.254341410487
0.336,-0.08668922423197191,5898.352083030514
0.34,-0.5644605601113231,5901.177051808888
0.344,-0.8600085970295209,5893.925387982056
0.348,-0.9554716852448919,5899.894072976011
0.352,-0.8686117881184515,5894.682810315038
0.356,-0.644593127232016,5901.170415131636
0.36,-0.3452691772668993,5892.109177700546
0.364,-0.0389504102414028,5893.608457396721
0.368,0.20874732263738094,5906.830568692467
0.372,0.3435549782822094,5903.704479040439
0.376,0.33060620453895634,5892.726391995435
0.38,0.16055416379401044,5891.266160320027
0.384,-0.1482833828484485,5896.659058252159
0.388,-0.5532734438947483,5901.089073391199
0.392,-0.9959972160115742,5903.850523264001
0.396,-1.4135307219791455,5905.435738826684
0.4,-1.7491496145258667,5895.016635836259
0.404,-1.9599682455192098,5908.615932904708
0.408,-2.020958509635738,5901.8324898441215
0.412,-1.9264530806286166,5894.683443649847
0.416,-1.6902953627631474,5901.778607484327
0.42,-1.344406448564165,5893.761888877772
0.424,-0.9344797086697919,5905.520493981989
0.428,-0.5123100091166691,5904.444363594735
0.432,-0.1264609803196246,5900.217828742873
0.436,0.185604989131296,5904.910466872045
0.44,0.40175772843688956,5898.706977933065
0.444,0.5158768229231934,5907.459260666849
0.448,0.5361469700972815,5905.955886253243
0.452,0.4813445131950439,5912.061371591924
0.456,0.37472489715344914,5914.013366881807
0.46,0.2364433457866966,5901.205101529892
0.464,0.07819202890950742,5901.742600266188
0.468,-0.09539720578405765,5902.721024063762
0.472,-0.2774475734159163,5901.296631537307
0.476,-0.44640355362224676,5900.084972021404
0.48,-0.5590290594724145,5910.162231624979
0.484,-0.5557499094126037,5896.482530028788
0.488,-0.37878470459831176,5903.012649192848
0.492,0.00362412320545923,5905.986021752919
0.496,0.5769514239759663,5891.40815973442
0.5,1.2726996458063773,5906.991976953882
0.504,1.9772982611876173,5902.934107172599
0.508,2.555862378636944,5897.453127536443
0.512,2.883946003644918,5906.376536918166
0.516,2.8779643820506595,5903.197400365635
0.52,2.5159871089763532,5897.560785526844
0.524,1.8440447377277256,5891.436967446532
0.528,0.9674123562579177,5898.031628526898
0.532,0.03016273103334299,5896.27326622784
0.536,-0.8117438431796485,5896.7399674853
0.54,-1.418725346245963,5895.845490530151
0.544,-1.6928886382769905,5891.094584502306
0.548,-1.596036202785604,5896.939803677796
0.552,-1.1558809395755303,5909.589298936803
0.556,-0.45794482033397516,5896.86047900261
0.56,0.37471107123158925,5900.000921899789
0.5640000000000001,1.2070309920803413,5897.469967130382
0.5680000000000001,1.9148417161494726,5905.261962577689
0.5720000000000001,2.400726156254737,5901.216682871554
0.5760000000000001,2.603524307094938,5906.327729494032
0.58,2.5040947598169305,5898.489059271198
0.584,2.1280769203969285,5901.3439005023965
0.588,1.54353477492823,5897.582040862157
0.592,0.850754446518796,5900.225774213994
0.596,0.16381963680475206,5904.4574487154405
0.6,-0.4125953640800949,5894.513536977556
0.604,-0.8048336646057582,5901.782038762645
0.608,-0.9836871912625491,5903.2168849540685
0.612,-0.965772033074317,5897.93850384175
0.616,-0.8030681256856712,5902.691544640485
0.62,-0.564584362187594,5897.393492754657
0.624,-0.316254256897973,5897.300849581669
0.628,-0.1050460712838893,5899.733244041199
0.632,0.0488482997702014,5906.304686854282
0.636,0.150738696447026,5898.262742979211
0.64,0.22259708205687442,5898.264897269465
0.644,0.2902352224624181,5891.223176538088
0.648,0.37146121783939606,5889.898428142003
0.652,0.47001003937740127,5889.902160151406
0.656,0.5777355066094745,5907.208793499774
0.66,0.6834390699003544,5906.014751342706
0.664,0.7824931344615933,5895.247400450206
0.668,0.880296409491039,5900.849664375119
0.672,0.9867265493331616,5893.158508464649
0.676,1.1056999550470017,5908.531578799973
0.68,1.227990497707077,5891.823889993157
0.684,1.333113026120177,5914.285415949741
0.6880000000000001,1.3991843768240582,5903.2724007423785
0.6920000000000001,1.4136567845442958,5898.506154265247
0.6960000000000001,1.3774866376435668,5896.79947320403
0.7000000000000001,1.3007649725120434,5899.375284215092
0.704,1.1941471362583618,5906.338109091057
0.708,1.0625413097546792,5898.268073774355
0.712,0.9049548179085133,5896.463872575105
0.716,0.7200122916503439,5891.852465636584
0.72,0.5131057355857284,5900.0617438271465
0.724,0.3000754199907741,5897.007069569172
0.728,0.10457339079659857,5905.278770961502
0.732,-0.049533569708677005,5903.738248086132
0.736,-0.1464305386675459,5895.582605188148
0.74,-0.18321667622852486,5900.155341182644
0.744,-0.16965343498137173,5900.639344056801
0.748,-0.12357146199112709,5896.176377396327
0.752,-0.06419430788423726,5901.558810679842
0.756,-0.006007152464377389,5899.711157127299
0.76,0.044848071281002655,5905.694335420553
0.764,0.09110147500660597,5903.644679078365
0.768,0.14251718213820794,5906.254953861489
0.772,0.21245624465534346,5901.215438271349
0.776,0.3129501515219611,5909.117360748369
0.78,0.4485014706750401,5903.667351861567
0.784,0.6101110279852148,5903.4304253318
0.788,0.7724682533316761,5904.57126919618
0.792,0.8974332878826883,5896.861162476912
0.796,0.9448756213795415,5901.796812389427
0.8,0.8879671126637602,5900.941981147474
0.804,0.7265842761535589,5902.309295887072
0.808,0.4924403580881696,5901.049595906769
0.812,0.2432412365682126,5905.450799933002
0.8160000000000001,0.04779433057871685,5905.313648737752
0.8200000000000001,-0.033112414180140326,5890.453270580945
0.8240000000000001,0.03553696429391416,5907.20384930293
0.8280000000000001,0.25158894589155917,5904.824400782494
0.8320000000000001,0.5737651410266648,5896.0828591605805
0.836,0.9293857498356227,5900.631984200836
0.84,1.2295991280654186,5905.5932989717385
0.844,1.3889137606669593,5901.581562983119
0.848,1.3454559670443313,5910.554219838334
0.852,1.0777748591499106,5898.802732742969
0.856,0.6137864449525938,5898.274170653626
0.86,0.028590244985979316,5900.395057697012
0.864,-0.569867730493921,5892.083487967469
0.868,-1.0655988922987,5892.459861047216
0.872,-1.364706892686236,5905.25578560431
0.876,-1.422041376046126,5904.997737663307
0.88,-1.2544974289577904,5902.660218897229
0.884,-0.9351778802039327,5888.16681492413
0.888,-0.5703697240540831,5904.578237329508
0.892,-0.26790022290049914,5906.915956503987
0.896,-0.1074073929793147,5899.191032375024
0.9,-0.1207422287057232,5898.090812060545
0.904,-0.2866897809182577,5902.462672310678
0.908,-0.5402481746465473,5891.183898197527
0.912,-0.7931864846161572,5898.975735525159
0.916,-0.9596950583685664,5893.486525354567
0.92,-0.9795268424737865,5898.08973708977
0.924,-0.8322275279707748,5900.502624208307
0.928,-0.5397578959776487,5903.422988238364
0.932,-0.15894311482334866,5893.197250905607
0.936,0.23261210070657995,5908.760687896932
0.94,0.5535592764952197,5915.172168336713
0.944,0.7360036417718825,5903.432579384728
0.948,0.7403163571040741,5903.214681727606
0.952,0.5648038818388521,5902.717275953549
0.956,0.24754436839586053,5906.576753107888
0.96,-0.14142961753329522,5897.019359871213
0.964,-0.5171993392041252,5897.982819015935
0.968,-0.8021823790148069,5904.495651647307
0.972,-0.9461353554251473,5902.145034830103
0.976,-0.9367563559925169,5897.39312736855
0.98,-0.797901337067684,5900.068804927124
0.984,-0.5776684658159595,5904.170521336531
0.988,-0.33184648311421705,5899.439767399127
0.992,-0.1086748977255225,5900.339520382391
0.996,0.06080116416103417,5896.586182834508
1.0,0.1651635919125729,5899.237176538903
1.004,0.20877902616659608,5899.968537368592
1.008,0.20438530799679472,5907.442698707207
1.012,0.16552087199448004,5904.115178324872
1.016,0.10171991300989529,5911.451421468223
1.02,0.017795151922678543,5896.128261710571
1.024,-0.08348160546394855,5908.186774214516
1.028,-0.1974345714930465,5905.492848090612
1.032,-0.314731671522468,5895.414743073348
1.036,-0.42140300557886895,5904.4923176005495
1.04,-0.5015545291711605,5903.727000701747
1.044,-0.5413965950033263,5908.468702948936
1.048,-0.5331811788610605,5899.368450484724
1.052,-0.47847041847351685,5903.28812516354
1.056,-0.3904534279521722,5900.379079844931
1.06,-0.2941137910216659,5896.115065340936
1.064,-0.22213309367381764,5904.445801291883
1.068,-0.20557665395604835,5903.1192821533095
1.072,-0.26186308279397624,5908.112573493034
1.076,-0.3855679275260628,5901.768915910042
1.08,-0.5473894516134008,5909.826658984863
1.084,-0.7030933914437186,5913.406575347508
1.088,-0.8095889801659346,5904.155219881431
1.092,-0.8416372392201587,5890.733875764577
1.096,-0.8017954553521303,5902.368040985076
1.1,-0.7189884722210278,5907.885725453529
1.104,-0.6364096143861844,5901.418922767289
1.108,-0.5943057376850998,5902.304788124483
1.112,-0.6150289306765434,5901.387795270149
1.116,-0.6959652982359095,5904.612569823583
1.12,-0.8118425545251988,5897.247561323009
1.124,-0.9238304647333584,5899.693083037893
1.128,-0.991003945299518,5895.171588206998
1.132,-0.9806441351357602,5897.005456851351
1.136,-0.8759710131752287,5899.345268735825
1.14,-0.6811724847194196,5907.280274463778
1.144,-0.42321212508980227,5913.559535782661
1.148,-0.14878653292996386,5908.616709994814
1.152,0.08516126233916305,5902.217413040072
1.156,0.22660695612790882,5899.700534755912
1.16,0.24499283596934593,5897.05295295783
1.164,0.1429542044323562,5903.425063380334
1.168,-0.041634715145875946,5907.504093491175
1.172,-0.24449060463909364,5906.232628621723
1.176,-0.3921250058707884,5904.904598812967
1.18,-0.4227045893703016,5902.770944954209
1.184,-0.3049587702023993,5896.03312919308
1.188,-0.04948479080409062,5898.212100104515
1.192,0.2918505309237966,5912.527595343034
1.196,0.6393263415504498,5904.174549770056
1.2,0.9079242718169059,5903.11737326613
1.204,1.031927596018869,5904.13795669961
1.208,0.9840816874926145,5897.964802453811
1.212,0.7838992760940233,5892.42673527744
1.216,0.49257533105209256,5899.91960220408
1.22,0.19541577156319728,5903.122142717869
1.224,-0.02330350116015182,5897.772251191095
1.228,-0.10509171785355066,5904.6408073822895
1.232,-0.03352670880322864,5898.378439107429
1.236,0.16279051960414426,5900.532397609868
1.24,0.4203818360786605,5902.681976987966
1.244,0.6595983785133827,5901.952885173014
1.248,0.8055760230300938,5902.482657388904
1.252,0.8057819420504481,5904.035123871933
1.256,0.6406435254720085,5904.83356568127
1.26,0.32632686810285627,5904.7202519423245
1.264,-0.08941237582187318,5898.259851697925
1.268,-0.536559834913882,5899.63980316321
1.272,-0.9353630784926669,5902.393708322635
1.276,-1.2102795110678668,5896.2033347294655
1.28,-1.3040392489826502,5906.925870331113
1.284,-1.1901991727529995,5904.59881473129
1.288,-0.8812956838520434,5914.696814438767
1.292,-0.4289836732368388,5904.774878659984
1.296,0.08587073870500841,5892.792810273499
1.3,0.5712712732665233,5903.645882060596
1.304,0.9445815186395977,5904.340319938444
1.308,1.148770290335513,5908.868645991414
1.312,1.1605491305960955,5905.563087920647
1.316,0.9905706238304962,5902.758805982163
1.32,0.6780698712442391,5901.667121201214
1.324,0.2819380266097834,5896.398761694069
1.328,-0.130955901705493,5900.99118643601
1.332,-0.4992016849571361,5900.651520830619
1.336,-0.779420134618017,5897.929423717743
1.34,-0.9539879412662412,5901.697812439921
1.344,-1.0305439672878283,5896.211608601315
1.348,-1.0329235915689148,5911.3838816155685
1.352,-0.9872762346524927,5907.893281737666
1.356,-0.9095840022016517,5908.742642990618
1.36,-0.7995849935566904,5902.556574495004
1.364,-0.6423901990174834,5901.81482950021
1.368,-0.4162536871998189,5900.697128795495
1.372,-0.10432045935235733,5894.176237026174
1.376,0.29234515784807813,5903.7383406685
1.38,0.7449542290738053,5912.787817612194
1.384,1.1958694498378264,5900.9864532245865
1.388,1.5690625395728268,5890.389647177278
1.392,1.789824475787842,5898.230312370034
1.396,1.8071215141220398,5898.546872094243
1.4,1.6110738516421974,5903.676817934182
1.404,1.2398633395959258,5894.562939048085
1.408,0.7734473690268345,5898.30595019675
1.412,0.3153699828937816,5908.848095279091
1.416,-0.031951995156158486,5902.395314300398
1.42,-0.19093300275731875,5904.133750367127
1.424,-0.12514377434857482,5904.704697842351
1.428,0.15479980121550185,5903.4116614095365
1.432,0.5956921916140097,5907.596818257176
1.436,1.114561965346255,5894.602543245878
1.44,1.6168259672576213,5907.362014125486
1.444,2.015779885573365,5910.649795152125
1.448,2.248628589696534,5902.460859563679
1.452,2.28458934924853,5907.505137041674
1.456,2.123174758443129,5913.249952462647
1.46,1.7852015428069188,5906.358769245048
1.464,1.3026801670445185,5903.107884570642
1.468,0.7132609451712298,5898.79432873977
1.472,0.06008293666779071,5895.823870316936
1.476,-0.6071766319760346,5895.459627622988
1.48,-1.234858728731606,5904.786756945578
1.484,-1.772482245216579,5900.067594320829
1.488,-2.1815006813350735,5896.521144781569
1.492,-2.4416082428507258,5891.86471528545
1.496,-2.5521066781545962,5911.21881374066
1.5,-2.528240880394891,5901.14491984528
1.504,-2.3945021644801066,5897.12563461509
1.508,-2.1780262433147493,5890.768930924051
1.512,-1.9048232802935443,5899.080647251354
1.516,-1.5995827705106032,5902.380018723471
1.52,-1.287192478806107,5903.38116855003
1.524,-0.9927834863857811,5902.194731464804
1.528,-0.7382177650256776,5900.099555537756
1.532,-0.5357117348205676,5912.651954981379
1.536,-0.3818851808344647,5901.289759969774
1.54,-0.2562817570569143,5904.277850280776
1.544,-0.12658833811787634,5895.7648833238245
1.548,0.04079910737354339,5898.540671041931
1.552,0.26923821509152107,5905.034756939876
1.556,0.5639080341099071,5899.92269661218
1.56,0.9094606529647835,5901.030079140521
1.564,1.2724530897790687,5905.885357960279
1.568,1.6070596039993401,5907.527889021596
1.572,1.8632157824493114,5904.696475757842
1.576,1.9962235468296303,5905.257242758582
1.58,1.9759038976376848,5907.035102538108
1.584,1.7934275269174595,5907.880760814129
1.588,1.4651489789006513,5903.361556456968
1.592,1.0329606341384097,5903.922735134235
1.596,0.5593266676325142,5897.716589747383
1.6,0.1152643353102978,5905.9001095728645
1.604,-0.23674813429057137,5917.112383508409
1.608,-0.45844943103264274,5893.527786543375
1.612,-0.5429188887104469,5902.30610815549
1.616,-0.5102015903074367,5895.931677043182
1.62,-0.3943805875411016,5900.431326950359
1.624,-0.22882290324222002,5909.0776056817385
1.628,-0.03623210405434888,5906.884113844822
1.632,0.17323438433106245,5901.476299604916
1.636,0.39701890761484226,5904.214315257461
1.64,0.632555637682279,5895.433476964517
1.644,0.8711125101370362,5902.623461633599
1.648,1.095193502705885,5897.336916601795
1.652,1.279732350330442,5899.399546944918
1.656,1.396462190303174,5908.80219671393
1.66,1.4206491313533165,5905.823933694319
1.664,1.3391835444985272,5905.714992453263
1.668,1.1584903875067991,5902.913918279717
1.672,0.9098358922560181,5897.786148965986
1.676,0.6488258251916612,5902.713976488219
1.68,0.44631516166133683,5904.718066667584
1.684,0.3704939266671075,5902.801595997196
1.688,0.46406795893550934,5901.026805807275
1.692,0.7242426317214059,5897.665932983148
1.696,1.0941850180675665,5903.300446885881
1.7,1.4714295623993552,5895.879965595404
1.704,1.7324552588353472,5902.161355190732
1.708,1.7664398684267575,5898.594937331793
1.712,1.507762475046025,5905.135723065607
1.716,0.9572916992175767,5898.063002135268
1.72,0.1860962372744158,5892.605853316017
1.724,-0.6798926149369692,5896.147249783227
1.728,-1.4907192874903097,5913.748751332374
1.732,-2.1102558158219282,5900.143658585996
1.736,-2.4491025598491256,5915.265771331807
1.74,-2.4816238184865482,5908.951428580837
1.744,-2.242966723235834,5911.656429616285
1.748,-1.8107529432224343,5905.168951860106
1.752,-1.2811853102557045,5893.927849774389
1.756,-0.748095241654143,5899.499916147168
1.76,-0.2888717517585006,5904.11008488369
1.764,0.04236296545759008,5900.715593047347
1.768,0.21539212578649505,5910.239002637946
1.772,0.22041580732843982,5905.238290532702
1.776,0.06370782311564843,5902.146721157834
1.78,-0.23445378622082133,5910.824150997547
1.784,-0.6389676108274545,5906.6334612319615
1.788,-1.0989089989721192,5901.023821010069
1.792,-1.5504254702677793,5905.913124101054
1.796,-1.925822339746945,5904.472554323033
1.8,-2.1675327423416935,5904.654384644313
1.804,-2.2425022828316634,5901.745048250512
1.808,-2.151379559013705,5905.028822079785
1.812,-1.9285117555574165,5900.483768616742
1.816,-1.6325609887821624,5898.127498698895
1.82,-1.3313373660560204,5909.876161087118
