时间(s),电压(V),幅值(高频80K)
0.0,-1.4152047063633828,5887.973130399652
0.004,-0.20282806213717117,5904.146736642959
0.008,0.8661843155991491,5903.737259140082
0.012,1.6702161270665732,5897.4699253834815
0.016,2.1362595648371125,5899.487488624764
0.02,2.2490017292884428,5902.645526935987
0.024,2.0483319532888067,5897.442542640659
0.028,1.6180550677927585,5900.867163475678
0.032,1.068446699100276,5906.16963196362
0.036,0.5154720850104323,5902.105053270963
0.04,0.06101284915323203,5907.230692701821
0.044,-0.22108867936532853,5894.835975759257
0.048,-0.29121802240649464,5890.453377368911
0.052,-0.14474713414964097,5910.690994725718
0.056,0.18893435733725372,5895.474929718033
0.06,0.6482306826837988,5899.882106607491
0.064,1.144661987929386,5900.535797580696
0.068,1.5748782648732298,5903.592640439897
0.072,1.8398461330771858,5911.856085696989
0.076,1.8680653685604474,5897.160610351979
0.08,1.6369152385234742,5906.737947360618
0.084,1.184974005525202,5903.059159712043
0.088,0.6090233562241465,5898.98465232175
0.092,0.04327335426379875,5900.922947411643
0.096,-0.3752641011377266,5900.147201283483
0.1,-0.5449332871211713,5903.183510302471
0.104,-0.42812359659742044,5899.915406113267
0.108,-0.06077514260837393,5908.61665404455
0.112,0.45937889481805577,5892.851958073272
0.116,1.0005923026261068,5898.4424126684125
0.12,1.4320551659219747,5903.898280505961
0.124,1.6567755232722898,5900.6932249054325
0.128,1.6340047596011513,5904.272565671987
0.132,1.3849425244558458,5898.278383079899
0.136,0.9803329532059978,5900.127056278709
0.14,0.5152466592107121,5894.186762714885
0.144,0.08087012874567208,5908.660580002695
0.148,-0.2572899653426259,5891.135604980998
0.152,-0.4695878875270554,5899.2169544850885
0.156,-0.5604920379167732,5893.172617460149
0.16,-0.5581892204309363,5890.948814917787
0.164,-0.500834383908224,5894.395087009821
0.168,-0.42496380417627355,5908.891225543928
0.172,-0.35936006343488447,5894.060791403152
0.176,-0.32371696208040557,5900.351980193675
0.18,-0.3287582580551853,5901.449695359411
0.184,-0.3753166986135888,5897.269394899033
0.188,-0.45288531458009623,5901.230108565442
0.192,-0.5398936498694179,5900.58249892107
0.196,-0.6072342414620795,5910.245925364631
0.2,-0.6248842030825061,5900.766510727484
0.204,-0.570083421835948,5899.620386156584
0.208,-0.4345373617365361,5901.518650765839
0.212,-0.2278791567923104,5889.867208617236
0.216,0.024269519091524753,5902.128038984986
0.22,0.28720157679541236,5888.419396690833
0.224,0.5264672037442168,5903.125541843371
0.228,0.7159336280085545,5910.5455739574745
0.232,0.8413347501502296,5900.436728355931
0.236,0.8986200845057888,5903.903679264283
0.24,0.8896361060183741,5898.410766289159
0.244,0.8190097471858672,5897.318710360548
0.248,0.6945485190463352,5896.366639097124
0.252,0.53064186514995,5902.889506733414
0.256,0.3520054567060394,5903.681002296154
0.26,0.19444361497124804,5905.433589317653
0.264,0.10045432467604207,5907.6218956149605
0.268,0.11012510161040567,5910.955285748934
0.272,0.2501916567058851,5904.906012618216
0.276,0.5249322366008137,5906.1715679966255
0.28,0.9119295001214616,5899.355726752676
0.284,1.3643599056787226,5906.691870641192
0.288,1.8197428821691175,5898.76103250378
0.292,2.213266268493664,5898.425013353695
0.296,2.4920648657086635,5900.930892291543
0.3,2.6257620236585137,5906.274470664595
0.304,2.609579798956515,5897.9474784415415
0.308,2.459723070977478,5896.076344114141
0.312,2.2044581417722875,5898.007844328477
0.316,1.8758061480447137,5890.760131001733
0.32,1.5053054470072822,5896.430281732072
0.324,1.1237954855903132,5890.971925748359
0.328,0.7618822538507282,5903.39225477238
0.332,0.4475142921013667,5893.980205975212
0.336,0.2006006864079054,5897.179477589991
0.34,0.02852151376880241,5906.8747098272615
0.344,-0.07359038298306005,5890.491452939505
0.348,-0.11798115143413655,5900.737757852277
0.352,-0.11867242438504426,5898.3045458126
0.356,-0.08846499148582627,5901.40006012171
0.36,-0.03854081575825999,5900.173889860686
0.364,0.021490557031397906,5904.077680872638
0.368,0.08448916895412668,5898.667295136321
0.372,0.147085197146821,5894.237776487232
0.376,0.21014847524449057,5905.381564917278
0.38,0.27806201251789825,5897.409247132387
0.384,0.3572642231261313,5895.867789263204
0.388,0.4542351316188808,5902.745161148935
0.392,0.5725951379658202,5891.095608724182
0.396,0.7096768826893433,5892.139406559662
0.4,0.8544736733327455,5897.815929300595
0.404,0.9891883974891634,5904.351812732692
0.408,1.0945248708794457,5903.254648065665
0.412,1.1560586769219758,5901.818899654287
0.416,1.168301682886346,5902.599658471623
0.42,1.1348835367011618,5896.121713885874
0.424,1.0654255588258845,5899.430140681391
0.428,0.970526200318891,5898.297207805256
0.432,0.8563048241150282,5894.674523194148
0.436,0.7201352347880016,5901.9975298722575
0.44,0.5496135458388445,5898.516451596868
0.444,0.3267097981797468,5897.074965765393
0.448,0.03726437555023693,5897.614944709575
0.452,-0.3176038622291922,5902.554008332658
0.456,-0.7144055576517132,5893.410558296636
0.46,-1.1094604684907696,5906.628726266267
0.464,-1.450256182098039,5905.302203842571
0.468,-1.6910056045543396,5892.740775720462
0.472,-1.8058427844028664,5900.842249208864
0.476,-1.794657801792726,5897.841544173647
0.48,-1.679718339043237,5892.220401129135
0.484,-1.4949491501267953,5899.043151483423
0.488,-1.2728619301222843,5904.330128449371
0.492,-1.034983802462523,5891.857128668564
0.496,-0.7896937899278511,5905.372496026973
0.5,-0.5376911631970737,5895.170958298355
0.504,-0.2813740791819606,5904.397739105689
0.508,-0.03207006663707169,5904.308950589007
0.512,0.18983298064301396,5895.535515265126
0.516,0.3625530645033908,5902.550537359053
0.52,0.4743551357218888,5889.189252644512
0.524,0.5323596790536294,5899.209274351639
0.528,0.5635601026302219,5903.482117336819
0.532,0.6069785733174997,5903.681289508779
0.536,0.7001734302734403,5906.111410252754
0.54,0.8652887686988217,5903.9190983619765
0.544,1.0992683503169403,5900.651467386189
0.548,1.3712575465443733,5898.566421324845
0.552,1.6284766138474693,5899.06692642949
0.556,1.8095721595717968,5896.914865776789
0.56,1.861782841144096,5906.133882069198
0.5640000000000001,1.7565344889120333,5902.120576603061
0.5680000000000001,1.4982982406402159,5902.9419924475
0.5720000000000001,1.1236965867801973,5904.201199897451
0.5760000000000001,0.6914582502724165,5895.500944902698
0.58,0.2674817102945635,5901.937234538876
0.584,-0.08944961867745797,5904.28221386124
0.588,-0.3378456962372132,5906.745519296875
0.592,-0.4593865152425431,5898.845524293895
0.596,-0.4616306196627125,5897.2047619027535
0.6,-0.3775516390233069,5896.856551917202
0.604,-0.2603418990605418,5896.685758817167
0.608,-0.17202326977329682,5898.807491579198
0.612,-0.16672322161852463,5895.28713101606
0.616,-0.2729384427620328,5893.5300365212615
0.62,-0.48140929944298244,5897.263869871583
0.624,-0.7442677592927169,5905.46763570627
0.628,-0.9869427384071383,5904.962531228071
0.632,-1.1291587533270848,5893.034874864668
0.636,-1.1079705684718866,5908.521369508747
0.64,-0.8956805406320191,5909.104770521694
0.644,-0.5081182222990921,5904.06530963627
0.648,-0.002162600629284329,5891.699405708403
0.652,0.5357682313190887,5898.026984478795
0.656,1.0066544291583825,5905.791022850303
0.66,1.317360539348231,5897.043462754918
0.664,1.3981618714536639,5904.441643432997
0.668,1.2179386836510222,5897.556439474233
0.672,0.7947872969178603,5906.881364625074
0.676,0.19804055956076036,5890.726152005837
0.68,-0.4620268233938829,5897.447023258884
0.684,-1.0569825221180433,5899.270959486743
0.6880000000000001,-1.4704345262610161,5900.644733845708
0.6920000000000001,-1.6266450630505696,5892.189415387997
0.6960000000000001,-1.5085990904211448,5885.5875905853
0.7000000000000001,-1.160633543243369,5896.737904110374
0.704,-0.6759419333734419,5896.792352888925
0.708,-0.17274570949350565,5891.550186577216
0.712,0.2354513813941169,5898.264669732803
0.716,0.46873205259572204,5905.734814626832
0.72,0.5005462208621916,5893.105005405432
0.724,0.36097536462060764,5889.302371314703
0.728,0.12133218202192281,5903.815071174542
0.732,-0.13372578044336175,5896.151481497636
0.736,-0.33445290393491695,5902.59290655427
0.74,-0.4435499157889401,5895.707344223565
0.744,-0.45873005458771077,5902.632359464199
0.748,-0.40331592499830415,5895.893627678574
0.752,-0.31154503137240064,5896.659326170618
0.756,-0.2151815419581521,5902.197408564369
0.76,-0.13550423710693688,5897.698639111156
0.764,-0.08120635124309425,5901.6287495091165
0.768,-0.050115345475117284,5901.27458838004
0.772,-0.032236578598559704,5894.163512525868
0.776,-0.012755311386117836,5904.170233826185
0.78,0.02522430313842891,5898.241094656943
0.784,0.09771769888784819,5902.500435564511
0.788,0.21587597595288668,5893.154976792203
0.792,0.38082524155681813,5892.503188779672
0.796,0.5788052020879433,5891.761788188722
0.8,0.7792585717779484,5894.231602660212
0.804,0.9379954928051973,5899.499914311429
0.808,1.0056661590077962,5890.56366584494
0.812,0.9396422426149499,5897.6854924290965
0.8160000000000001,0.7160749174669124,5899.555889794361
0.8200000000000001,0.33907681577549786,5902.924049924278
0.8240000000000001,-0.1548227393105909,5897.641723022311
0.8280000000000001,-0.698199330504947,5898.79864148518
0.8320000000000001,-1.2017877224677431,5903.849637156762
0.836,-1.5717003549097033,5900.431517476932
0.84,-1.7319135756459332,5889.739844052934
0.844,-1.6452615761125948,5897.849090954162
0.848,-1.3253939427796864,5899.159512823558
0.852,-0.8350107761844171,5896.406973253358
0.856,-0.27030857127120345,5899.397470486552
0.86,0.26374297992683754,5898.942405189772
0.864,0.6791884977921177,5908.674809776727
0.868,0.923235891041263,5897.539546558439
0.872,0.9834466108531531,5892.936755122003
0.876,0.8807489925485849,5901.886839854515
0.88,0.6563372899438832,5904.1469760906
0.884,0.35960340481324127,5897.96206732921
0.888,0.0408237995826518,5897.694707390821
0.892,-0.25242145071477207,5903.1957089399375
0.896,-0.4784178354643963,5899.064909877926
0.9,-0.6061318607706011,5899.676094028292
0.904,-0.6207531840550649,5895.298910143247
0.908,-0.5270688352989784,5898.922071275795
0.912,-0.34821545997625747,5896.70611801603
0.916,-0.11955838051787725,5898.138514642348
0.92,0.12029116951248191,5900.126519588482
0.924,0.3382739178752105,5910.546086435509
0.928,0.5129038234653192,5902.685500859549
0.932,0.636270406268656,5906.068111198829
0.936,0.7121784299415833,5891.185820461138
0.94,0.7515992424843227,5901.086330073332
0.944,0.7672747577609654,5905.15242016798
0.948,0.7694376740199474,5890.038826100681
0.952,0.7636455310533492,5899.214100806967
0.956,0.750068576059115,5902.204914815248
0.96,0.722957100045794,5900.765396318997
0.964,0.6703037260720515,5901.190135995752
0.968,0.5753939392642375,5900.835769999736
0.972,0.4218837779642322,5901.917491436053
0.976,0.20188788927021564,5903.881187082466
0.98,-0.07615184416260709,5893.180634631942
0.984,-0.3843051480700779,5894.128211638976
0.988,-0.6798078598497522,5899.433109678498
0.992,-0.9168748503711186,5897.710649629381
0.996,-1.0609006054047463,5901.92726275546
1.0,-1.098862925554559,5891.56149745616
1.004,-1.0422962518028072,5898.634418815232
1.008,-0.9233516772736652,5899.815644234824
1.012,-0.7867793603590415,5902.761458927042
1.016,-0.680501177412851,5896.419878501404
1.02,-0.6464473012893852,5896.603673961152
1.024,-0.7124908293057433,5898.141728363798
1.028,-0.8857217894527027,5899.772044434526
1.032,-1.1475536140800662,5887.880935091143
1.036,-1.4524859576600848,5899.745696750812
1.04,-1.7333705642070765,5898.934126469371
1.044,-1.9150526616856236,5906.533706270389
1.048,-1.9349764132977654,5905.928290162935
1.052,-1.7648613224463592,5908.237157089634
1.056,-1.4243265552643183,5894.051319344935
1.06,-0.97852546401008,5895.536617112048
1.064,-0.5185180056330376,5895.350792934138
1.068,-0.13180650921832784,5903.221945122961
1.072,0.12467219234882353,5898.405555158566
1.076,0.23876819087499423,5899.365554038755
1.08,0.2407760056337656,5900.370807712752
1.084,0.18736971317180046,5893.497326573585
1.088,0.138531465891263,5898.0434814209375
1.092,0.13522585851909355,5897.423105402075
1.096,0.18487218579123058,5887.0926456528605
1.1,0.259573156233696,5894.270437416832
1.104,0.30802004781658326,5888.39057819943
1.108,0.27664227963998844,5896.487061490689
1.112,0.13152618955200712,5897.702429254242
1.116,-0.12775289429925177,5906.248619677331
1.12,-0.4676516293685663,5900.913619457434
1.124,-0.8326509857360134,5895.574065735722
1.128,-1.16314381832912,5897.462703896463
1.132,-1.4111199521802482,5900.876900954741
1.136,-1.548970154546639,5896.133419732214
1.14,-1.571273069101206,5903.250202343298
1.144,-1.4913439388617495,5901.89106775887
1.148,-1.334225657769776,5906.530473442848
1.152,-1.128023872453911,5902.024676079323
1.156,-0.8961634216975009,5902.84637954442
1.16,-0.6530858400954376,5901.017892868932
1.164,-0.40470214420753264,5901.512785987923
1.168,-0.15302538074679894,5900.742464231159
1.172,0.09722280941158964,5896.526162175875
1.176,0.3327993323933687,5897.237816632693
1.18,0.5292853444847282,5894.141420796369
1.184,0.6531620651749587,5897.055256208801
1.188,0.669016812162655,5897.599522666514
1.192,0.5504266702367486,5898.4924711566255
1.196,0.29111444162691413,5900.796568501813
1.2,-0.08767827197027393,5895.552240718092
1.204,-0.5364903398026656,5897.696292210865
1.208,-0.9844655170275508,5899.255453327558
1.212,-1.3525569392199914,5893.3582857405
1.216,-1.5702389868385447,5900.330468447936
1.22,-1.591784858926388,5901.130394901408
1.224,-1.408161222458457,5897.849263147062
1.228,-1.051367780154151,5900.559798574214
1.232,-0.589412798700596,5897.772956924452
1.236,-0.11238024836092335,5903.346937889108
1.24,0.28732115341307696,5894.678987975039
1.244,0.5358558827653468,5901.850545947016
1.248,0.5952877559964248,5906.622179529339
1.252,0.47348593698291436,5908.955937800418
1.256,0.22413815275709775,5891.661415876155
1.26,-0.06380826489231671,5886.185908836634
1.264,-0.2858531626106897,5900.799045432489
1.268,-0.3470433620312231,5891.178943779644
1.272,-0.18663077243743104,5903.549872374654
1.276,0.20436459778037386,5901.145866175899
1.28,0.7782208574784872,5901.4476877893485
1.284,1.4406641529374578,5903.229700821338
1.288,2.073889677673433,5899.675324558062
1.292,2.565516219658601,5894.332551710275
1.296,2.8345326851683668,5899.127067368474
1.3,2.8474096389915453,5900.6834316827535
1.304,2.6217900520127877,5892.335999384974
1.308,2.218469549571632,5895.553010299118
1.312,1.7241687001115724,5897.360513872526
1.316,1.2293809442156443,5897.27695012904
1.32,0.807490430140368,5897.994414570458
1.324,0.501537295935303,5907.710468288648
1.328,0.32225993456674995,5899.629646570311
1.332,0.25626928960495127,5887.602799677541
1.336,0.278743015101059,5902.846697929604
1.34,0.3635436879552184,5900.593768002952
1.344,0.48644283347011186,5902.137983776823
1.348,0.6224225452302655,5891.561459423489
1.352,0.7419915185862962,5898.755629506546
1.356,0.8114528725474122,5895.087544713248
1.36,0.7988387861117058,5908.859407095413
1.364,0.6835659683641544,5903.629879363571
1.368,0.4658506645926398,5903.509408223619
1.372,0.17197116768093376,5900.807281973204
1.376,-0.1471334096703151,5891.9562446457785
1.38,-0.4245958538321189,5893.627793081497
1.384,-0.59227213424691,5900.487632082863
1.388,-0.5975788443551966,5892.8062511563385
1.392,-0.4172397597009809,5901.817674350714
1.396,-0.06329474853781454,5895.935645174227
1.4,0.4203850460562067,5896.314047981406
1.404,0.9691248975198168,5897.341736495873
1.408,1.511387316330756,5892.988015882016
1.412,1.980568463000892,5894.001766514579
1.416,2.321587501828151,5900.14689395598
1.42,2.4925694114238617,5895.81720890544
1.424,2.4646183846715783,5902.19494903536
1.428,2.223024851916796,5903.928534073231
1.432,1.7712513536544534,5889.925033914653
1.436,1.136130681775967,5889.007251888163
1.44,0.3706493495344914,5899.395600218723
1.444,-0.44918529178254357,5892.193246533699
1.448,-1.2344272694948153,5896.769654548522
1.452,-1.897890267042452,5902.741535329821
1.456,-2.3690743103362903,5903.636599233763
1.46,-2.6054084183363764,5902.825628422137
1.464,-2.5980921378490103,5905.838336099881
1.468,-2.3727312643791603,5894.624556978612
1.472,-1.9853637353258855,5895.607114376165
1.476,-1.514008116182605,5896.83230990474
1.48,-1.046100496751835,5899.344185952352
1.484,-0.6635322495493997,5894.040969979453
1.488,-0.42819258670753324,5901.269040892686
1.492,-0.3709120450407564,5895.471431908508
1.496,-0.4860098168175739,5895.422267842816
1.5,-0.7329618517130664,5892.455530002134
1.504,-1.0456109301518008,5902.321241533848
1.508,-1.3473249838766002,5892.526333764475
1.512,-1.568210722526394,5899.299993221192
1.516,-1.6593937173734796,5909.563787704628
1.52,-1.6005297767343507,5911.06185646323
1.524,-1.3995627489338587,5893.04926436858
1.528,-1.086526475613668,5898.976534178684
1.532,-0.7045213169835092,5902.011329056019
1.536,-0.30068439696628607,5901.377034774936
1.54,0.08114849372544782,5901.234651782128
1.544,0.4051380431928948,5895.813852892455
1.548,0.6448142486481095,5893.563717983402
1.552,0.7815068437982263,5890.364321120706
1.556,0.8023746924381623,5893.862116103604
1.56,0.7017460357655148,5891.657398167861
1.564,0.4874110875239381,5901.958064297653
1.568,0.18881403494453522,5900.569880508024
1.572,-0.13968908514781667,5893.366555470438
1.576,-0.42661936981964965,5890.509833088233
1.58,-0.6026983037147889,5892.165794864048
1.584,-0.6250018263857505,5899.6219091132
1.588,-0.49492400639839423,5898.358359485395
1.592,-0.2602523598498904,5899.154983386247
1.596,0.0013507562566478191,5891.093687659805
1.6,0.21078133858220258,5906.71755303167
1.604,0.3151188979925852,5906.95149412377
1.608,0.30302004144890476,5904.557361072507
1.612,0.20357696295038288,5901.04811950794
1.616,0.07201197924830605,5887.082275847326
1.62,-0.030263404870079884,5890.285394993232
1.624,-0.05374993188438768,5901.36390014409
1.628,0.02756623489963859,5910.667204711893
1.632,0.2124621296032534,5894.583016030307
1.636,0.4756185552752703,5895.467934876513
1.64,0.7759999390071797,5897.007507277103
1.644,1.068457086040175,5893.449020384937
1.648,1.315647889964617,5892.077421895035
1.652,1.4964769079681914,5899.953477309461
1.656,1.6076660390187791,5902.2295644453925
1.66,1.6577013291902971,5900.354981644929
1.664,1.6564506437040978,5886.283162049425
1.668,1.6064217084428607,5902.730230477175
1.672,1.5005532771823615,5899.731795834794
1.676,1.3272987629918587,5895.590123486541
1.68,1.0797456257952889,5898.300094523484
1.684,0.7642214226126414,5897.56599624814
1.688,0.40506715241832775,5889.007374988354
1.692,0.04393056844946595,5903.392715488285
1.696,-0.2668585417062138,5899.283332879139
1.7,-0.47569838497713796,5889.967287506582
1.704,-0.5449247406961262,5906.261088452796
1.708,-0.46204033946231265,5895.244976880246
1.712,-0.24563165802360898,5894.787359982824
1.716,0.05642217723636875,5889.334576468837
1.72,0.3770303693556875,5902.830703448761
1.724,0.6456695354325853,5896.930115684965
1.728,0.8044660736193495,5904.236776361331
1.732,0.8193352522716539,5891.246308707402
1.736,0.6839180296217351,5886.954747352063
1.74,0.4170551138898858,5889.030291747147
1.744,0.055758765890994086,5897.559397587316
1.748,-0.35410163450801635,5889.388044943885
1.752,-0.7669575964242933,5903.5424276405365
1.756,-1.1443515709936527,5909.590901897934
1.76,-1.4584120517821153,5902.652483297316
1.764,-1.6926186382422412,5891.888852678549
1.768,-1.8413429287984897,5896.931172162577
1.772,-1.9090665543278402,5892.572535947599
1.776,-1.908945066467573,5903.501131652692
1.78,-1.860011524336411,5890.5872769295165
1.784,-1.7830115660137453,5909.136083737484
1.788,-1.6956260503978118,5893.478226026222
1.792,-1.6081681407568278,5895.870201151757
1.796,-1.5210566571870097,5896.3346624251335
1.8,-1.4254882585045283,5902.535144781379
1.804,-1.3079850949746423,5899.696281190586
1.808,-1.1574861576551225,5890.676866310174
1.812,-0.9718182915269947,5897.530586307075
1.816,-0.7607408507826112,5901.264725708999
1.82,-0.5449299410464525,5889.308573580058
1.824,-0.3518549362030776,5894.001398080308
