时间(s),电压(V),幅值(高频80K)
0.0,2.8421007804814913,5898.526738633613
0.004,1.9980556485598415,5895.860049023772
0.008,1.256757996470367,5894.895475915271
0.012,0.6975398745088659,5896.075754198256
0.016,0.3523193943249332,5905.168472505698
0.02,0.19751753653176005,5903.3473599469135
0.024,0.16335184445517628,5901.226730712906
0.028,0.1579572044107207,5903.187539160551
0.032,0.09652428822580718,5905.881521418033
0.036,-0.07572332731331213,5890.21971031768
0.04,-0.372876597230865,5897.839048298729
0.044,-0.7699813719603581,5896.820659252364
0.048,-1.2137367099710608,5895.301607813162
0.052,-1.6382455468456907,5901.066992233669
0.056,-1.9814057355751187,5896.719767063879
0.06,-2.197515516884944,5903.160551447153
0.064,-2.263407472952267,5898.161730399225
0.068,-2.1788371796667816,5895.024788709876
0.072,-1.9644205080624357,5896.607940127396
0.076,-1.6595154639719114,5894.093083445929
0.08,-1.3188589624482678,5894.235538302128
0.084,-1.0045868608725583,5899.779387108373
0.088,-0.772490181785099,5905.481781547296
0.092,-0.6564079189420464,5901.447837439388
0.096,-0.6578166560210383,5896.093142600205
0.1,-0.7459084045446582,5904.74060235856
0.104,-0.8683354991066291,5904.242299522505
0.108,-0.9683335872056699,5894.444413623211
0.112,-1.0021455077840364,5906.142153407128
0.116,-0.9508585200167876,5906.392646621411
0.12,-0.822327946501357,5903.38966611051
0.124,-0.6425397223426916,5898.561434082785
0.128,-0.4411062071126808,5896.91415703076
0.132,-0.23897328165628162,5905.332496946512
0.136,-0.044311083783435644,5908.646780890786
0.14,0.14367498095294026,5885.780206009794
0.144,0.328230326670766,5894.41604512278
0.148,0.5109542399459531,5911.040149371599
0.152,0.6914247248976055,5899.833149438603
0.156,0.8684760301088758,5902.665472595663
0.16,1.0404911875255354,5906.50541853206
0.164,1.2035136915459144,5909.130000399815
0.168,1.3477387743027727,5902.7887623412935
0.172,1.4541459691209304,5892.425197539291
0.176,1.4936216257706034,5906.567678389536
0.18,1.4310117135644183,5902.655220213119
0.184,1.235475983395228,5888.795279883541
0.188,0.8953541018281761,5907.036373112653
0.192,0.43169038318136205,5895.1153399728855
0.196,-0.0969922605675977,5901.664195670748
0.2,-0.6030277495754461,5907.155005153936
0.204,-0.989491872999759,5898.200963723067
0.208,-1.1751133627605546,5893.73984455243
0.212,-1.116092068591817,5895.535649620446
0.216,-0.8183410739164952,5896.73088207646
0.22,-0.33716466382670934,5895.443319478277
0.224,0.2347355026253367,5895.945183836868
0.228,0.7871041428927411,5896.241117853568
0.232,1.2148457102453571,5898.742866605997
0.236,1.43907577079252,5897.410918097282
0.24,1.4230842302536928,5897.335422163797
0.244,1.1805400200373433,5904.487008917135
0.248,0.7734383775521765,5902.045883548857
0.252,0.298109751757337,5895.4494698831295
0.256,-0.13908165745085596,5907.931675899094
0.26,-0.44954182053818764,5905.588170179
0.264,-0.5840670733319479,5899.666211388831
0.268,-0.5412364599229148,5902.147390363171
0.272,-0.3616721321373413,5899.074462910806
0.276,-0.11230022415885503,5893.89935833002
0.28,0.13345630047411053,5895.323851823809
0.284,0.3141968270680443,5904.267900875493
0.288,0.39387370196720806,5899.370352825219
0.292,0.3676488595642087,5905.376516238528
0.296,0.2597376801843348,5900.067823087338
0.3,0.11452934021461085,5903.593495632155
0.304,-0.016185984057002487,5902.960181409137
0.308,-0.08623650413397752,5891.170804377164
0.312,-0.06489415972704289,5899.917495594381
0.316,0.05862057868378198,5900.658677319577
0.32,0.27590688752661024,5899.622309879621
0.324,0.5633172931855569,5897.752418195081
0.328,0.8865343175871343,5893.801809200692
0.332,1.2048874253769244,5905.700991088146
0.336,1.4762856488603757,5895.302471130206
0.34,1.6634717663900163,5893.63236013141
0.344,1.7405924695732138,5905.046885390845
0.348,1.697933777014548,5905.048862865446
0.352,1.5430263623648264,5898.482536400884
0.356,1.297505079510394,5900.880776680881
0.36,0.9904438228993634,5899.684207496097
0.364,0.650101727930829,5908.412789638447
0.368,0.2966636229939283,5906.552380158891
0.372,-0.06162393391497989,5893.320414662767
0.376,-0.42737318609333025,5902.374637949288
0.38,-0.8079902838498224,5891.494434635146
0.384,-1.2065571113717641,5902.534355120561
0.388,-1.6131271907902813,5890.822631498149
0.392,-2.0001862978705454,5904.602106466836
0.396,-2.324967041492629,5901.592139188278
0.4,-2.539101273965362,5909.21870936011
0.404,-2.603194840129579,5901.990018640311
0.408,-2.5012440608097433,5895.816628889904
0.412,-2.248742001124399,5898.407734975303
0.416,-1.8901615737447761,5903.200337060566
0.42,-1.4860388179697104,5900.579168441232
0.424,-1.0946317607618496,5898.364860412074
0.428,-0.7553647190312702,5895.066546451826
0.432,-0.4801653545735787,5899.617484895904
0.436,-0.2552189880093875,5901.586465039493
0.44,-0.05139923445055432,5898.934940521873
0.444,0.16104138815492758,5901.195021712968
0.448,0.398084694029127,5906.080141936457
0.452,0.6515494599963529,5898.989899046321
0.456,0.8860214742752416,5896.234859412607
0.46,1.0456517821476286,5902.682410201192
0.464,1.070247907628481,5905.579899927574
0.468,0.9155311589215442,5898.794792546612
0.472,0.5699789446615543,5905.684779879773
0.476,0.06234480118134813,5903.792280983612
0.48,-0.5419990307187569,5904.102084193502
0.484,-1.1542261486316512,5914.195363509413
0.488,-1.6810381592836874,5913.318253974707
0.492,-2.044795119513939,5898.020643793354
0.496,-2.199925656414497,5904.980172989157
0.5,-2.141451013245887,5902.080945419294
0.504,-1.9033371438447846,5898.997430839519
0.508,-1.547493437255871,5910.01522495403
0.512,-1.147478630249629,5887.673524212892
0.516,-0.772476721794475,5901.429512942755
0.52,-0.47593385345649547,5901.388590837272
0.524,-0.2903027219240067,5905.761465367208
0.528,-0.22667336418155304,5909.602554338206
0.532,-0.27717887760827925,5898.697809203497
0.536,-0.4186066920903433,5893.13749537121
0.54,-0.616347657582703,5900.157333296267
0.544,-0.8283941236082053,5895.070696954252
0.548,-1.0100389636484437,5900.581886556071
0.552,-1.1206002468051346,5899.171544901276
0.556,-1.1322454913984843,5891.954663236317
0.56,-1.0379395046866913,5897.046227372683
0.5640000000000001,-0.8538380260660763,5910.1929571383325
0.5680000000000001,-0.6137139643346635,5903.617069496934
0.5720000000000001,-0.3574836373183099,5906.117748945829
0.5760000000000001,-0.11867681341240632,5903.101410403771
0.58,0.08440709504000475,5904.836976009783
0.584,0.250637877192942,5899.358310230561
0.588,0.3902369379981773,5904.436126857612
0.592,0.5138255304357131,5894.960139136993
0.596,0.6220318410615063,5898.811988984629
0.6,0.7013874009051511,5899.893241936215
0.604,0.7287784038116122,5894.447079346526
0.608,0.682062873047483,5902.444670475807
0.612,0.5512712429882903,5906.978057838482
0.616,0.3445330332963888,5902.933075577344
0.62,0.08575522796681528,5900.093876633865
0.624,-0.19437879596312577,5898.849106016028
0.628,-0.4691165616884261,5892.523438240086
0.632,-0.7225098637496421,5899.322324204037
0.636,-0.9490239440046085,5901.026748230671
0.64,-1.1464497693180347,5902.586726109907
0.644,-1.3067941122411604,5906.867290311665
0.648,-1.4112802301429201,5905.396479556482
0.652,-1.433459175706367,5904.26632714925
0.656,-1.350291457648509,5909.046147708868
0.66,-1.156496900372807,5897.334866782252
0.664,-0.8742209649082486,5902.177284941196
0.668,-0.5511243919403025,5907.4320139397605
0.672,-0.24614024635952253,5899.1719319831145
0.676,-0.009232385769892482,5908.764504995634
0.68,0.13549187354664613,5907.863494324237
0.684,0.19627668155412076,5890.935987898439
0.6880000000000001,0.2081409094636584,5906.333674966726
0.6920000000000001,0.21860439230528655,5905.17606579932
0.6960000000000001,0.2705421691058887,5904.661282862735
0.7000000000000001,0.38766677710880043,5904.298167411831
0.704,0.5662826346179569,5898.565906988174
0.708,0.774882116657189,5904.423969116731
0.712,0.9616518285787057,5902.96738677608
0.716,1.0688023830900468,5892.409129120349
0.72,1.0507455107543888,5898.242307278454
0.724,0.8905782142462496,5897.816661075995
0.728,0.6083858845377612,5903.285151422349
0.732,0.2575346474466529,5899.213310190686
0.736,-0.08987594962553762,5906.069506923172
0.74,-0.36324925239078,5900.422711979594
0.744,-0.5130514056718435,5903.064442498373
0.748,-0.5240569565563775,5902.714768957335
0.752,-0.4184748685983429,5904.481512147523
0.756,-0.24826514219125875,5902.755116511375
0.76,-0.07960888484118758,5898.326488179868
0.764,0.025227638101450737,5897.534850460304
0.768,0.02342724392537337,5902.326563371998
0.772,-0.09888687413249835,5899.6434916490325
0.776,-0.3243331310574632,5901.185322323104
0.78,-0.6086343179772363,5901.358727948425
0.784,-0.8905420214491325,5896.127398348103
0.788,-1.1056424125616404,5897.193797297265
0.792,-1.201187828424355,5899.772629142486
0.796,-1.1480832730310275,5900.544783976157
0.8,-0.9467697358039475,5901.289399652327
0.804,-0.6260582919041381,5902.761842897621
0.808,-0.23602228165288247,5899.895921939676
0.812,0.1633319735064011,5908.459795878962
0.8160000000000001,0.515341274657056,5906.80809153972
0.8200000000000001,0.7783336656875484,5905.099108783366
0.8240000000000001,0.9319814315955653,5904.945249692549
0.8280000000000001,0.9771499649597917,5889.3024743543865
0.8320000000000001,0.9310523021804611,5893.452958087429
0.836,0.8205825699786148,5909.0562666908445
0.84,0.6760051190258971,5899.597499365836
0.844,0.5262552345264786,5900.937367637077
0.848,0.3963069007389508,5909.789970587084
0.852,0.30623990824708786,5908.557227044765
0.856,0.27125132736810736,5903.450333697124
0.86,0.3017800736963214,5901.824425323152
0.864,0.40260191420755287,5897.936579506345
0.868,0.5700067579431529,5897.707254429174
0.872,0.787878143020822,5903.640201707482
0.876,1.0253765370725496,5901.635174809458
0.88,1.2390929965175095,5907.501739708797
0.884,1.3808408580960363,5909.07295105925
0.888,1.4096911595131472,5908.710764922451
0.892,1.304463299477057,5901.629433249758
0.896,1.0718606194574,5902.321202621925
0.9,0.7467790494106403,5903.909036584762
0.904,0.3845555405260345,5896.695286892112
0.908,0.04807343450871605,5901.324491509639
0.912,-0.20620580278680037,5909.202043331378
0.916,-0.3401864005804509,5897.52683035849
0.92,-0.3423692315071464,5906.701056080465
0.924,-0.23108736436662353,5903.370254127237
0.928,-0.05131474862361669,5905.185959182801
0.932,0.13576916006336515,5905.082237454955
0.936,0.26926668064529774,5908.88993710181
0.94,0.3068519407603649,5910.37141321167
0.944,0.2382158418543507,5908.643831817795
0.948,0.0878881443310662,5899.997268799803
0.952,-0.09348505589462422,5905.994274023497
0.956,-0.24462209349801953,5908.032155275785
0.96,-0.30905263781825143,5907.998375778462
0.964,-0.24657671749375634,5903.648200665795
0.968,-0.04084378409924345,5905.365960320832
0.972,0.2955749783591118,5896.78111907025
0.976,0.7189227775324347,5898.8797034443605
0.98,1.1571628307472195,5892.753832732621
0.984,1.5207464601264493,5908.488150574544
0.988,1.7215658169282237,5904.53541618082
0.992,1.6959524897896483,5896.529929164819
0.996,1.4240590631124654,5887.829155773247
1.0,0.9383802303525686,5914.390426566238
1.004,0.3181830731453279,5897.996252338624
1.008,-0.32840518307435895,5907.683780735995
1.012,-0.8890346788123406,5901.353398415666
1.016,-1.2712830410971705,5903.143823119711
1.02,-1.420208444064168,5899.165400444373
1.024,-1.326062422084644,5910.482357823303
1.028,-1.0219149529695852,5892.686831523865
1.032,-0.5732880916377475,5903.885691467312
1.036,-0.06347593469575269,5897.668767176216
1.04,0.4215618462760911,5896.248126945736
1.044,0.8063630670307586,5905.642931790601
1.048,1.0366303672544872,5898.066260246003
1.052,1.0869863027849789,5908.066587152067
1.056,0.9641150839358468,5908.484375322393
1.06,0.7033300235369347,5905.920480744292
1.064,0.35878164533029977,5909.002197401625
1.068,-0.009507052372308134,5906.474496357251
1.072,-0.3476057751564084,5896.456211697251
1.076,-0.6160803678517717,5898.813682302161
1.08,-0.7944118319288482,5896.175189217509
1.084,-0.8817005191743861,5907.430597420457
1.088,-0.8936686687257596,5901.1031063608525
1.092,-0.8564505338946274,5895.684403493065
1.096,-0.7987423342695993,5899.543351558672
1.1,-0.7440948624256409,5904.99741043065
1.104,-0.7046366601774257,5896.345290806252
1.108,-0.6776725892285609,5903.478076589258
1.112,-0.6469698474820528,5908.6162371577575
1.116,-0.589359886177672,5905.1910007694605
1.12,-0.48442042950437314,5897.860742257692
1.124,-0.32251644569059046,5908.086050699823
1.128,-0.1068045510176508,5900.490874284851
1.132,0.1514132693932736,5903.200484878377
1.136,0.43985518225615783,5908.407994438999
1.14,0.7491808655350749,5898.867042694968
1.144,1.0709286286950441,5904.707712366726
1.148,1.3916497185963894,5900.282959289964
1.152,1.6882204023840413,5898.220300224913
1.156,1.9284745296097483,5910.831244779993
1.16,2.078157553278178,5894.939528725123
1.164,2.111804956392512,5903.782957694521
1.168,2.0229556767557444,5911.622984765434
1.172,1.8290884054914085,5894.7559776093785
1.176,1.568831303750019,5910.521228751005
1.18,1.2919707781260148,5894.05367291649
1.184,1.0451986137633615,5909.25605988456
1.188,0.8581666508219786,5892.180417871835
1.192,0.7349856885087265,5896.365091153252
1.196,0.6547186913788837,5901.348772062744
1.2,0.5805676407936916,5898.895164963834
1.204,0.47344624351697234,5899.819771168022
1.208,0.30406928135315375,5902.267163687652
1.212,0.05940940295671735,5899.121037583145
1.216,-0.25697565833691915,5908.804565889371
1.22,-0.6282638648878944,5904.736996787787
1.224,-1.0284869498234186,5894.465705090029
1.228,-1.4261849602551198,5898.11115092805
1.232,-1.7876552577704086,5889.078906005866
1.236,-2.080108944625114,5913.857779155053
1.24,-2.27511308545902,5897.655089846967
1.244,-2.3527683099809136,5897.758247668073
1.248,-2.3063633473797487,5901.843744077438
1.252,-2.1458430289162074,5908.081396166385
1.256,-1.8976598422949482,5901.870536064945
1.26,-1.5995383269659145,5902.547461755998
1.264,-1.2911198531411865,5900.22364538577
1.268,-1.0040110742221444,5909.225635984781
1.272,-0.7557220324429126,5909.784888993549
1.276,-0.5501967963487815,5901.734907869123
1.28,-0.38375742130132207,5902.059113178684
1.284,-0.2520396979420717,5899.357226277012
1.288,-0.15347654821612863,5904.594582117137
1.292,-0.08790874330303879,5900.692001349298
1.296,-0.05246791904898167,5899.456247591704
1.3,-0.03860841504001195,5899.337679419451
1.304,-0.033211003034021594,5902.370162738695
1.308,-0.023682801220186598,5898.962388185264
1.312,-0.003910943970974885,5901.367682492927
1.316,0.022767148265512092,5900.835625040431
1.32,0.04511788333521044,5906.395360930313
1.324,0.048633475481917626,5902.949454681393
1.328,0.020856271737754714,5898.316427839124
1.332,-0.043809299802427676,5899.197464146436
1.336,-0.14035459843329798,5900.9331165382455
1.34,-0.25201528101562326,5896.0543479585
1.344,-0.35366804967967674,5909.634407454372
1.348,-0.41969849044028007,5904.105446352596
1.352,-0.4331801637500434,5893.044750905055
1.356,-0.39189388430441424,5911.598541599216
1.36,-0.3082459021899949,5897.743265590334
1.364,-0.20343548457433636,5903.428785456464
1.368,-0.09912668379087915,5895.886567848406
1.372,-0.010608893151684833,5904.72139123037
1.376,0.05611937735516789,5899.575780328093
1.38,0.1032535117256536,5896.423963208126
1.384,0.13745306220656295,5896.325498051238
1.388,0.16499236282621899,5900.405528204178
1.392,0.18708235204930698,5898.180862862178
1.396,0.19705767520049824,5899.334144344659
1.4,0.1814763545735566,5901.692242695978
1.404,0.1259334330076507,5896.172793070428
1.408,0.023633434430967853,5904.698918042237
1.412,-0.11737331788246065,5897.374055188279
1.416,-0.27209917343509166,5909.532746506359
1.42,-0.40298350025945057,5896.0248690515455
1.424,-0.46909298993608706,5909.841912759245
1.428,-0.4369836364278079,5898.194890211289
1.432,-0.29019992177769344,5901.338544093384
1.436,-0.035187101970280944,5901.92441796447
1.44,0.29792036316782505,5905.367444886696
1.444,0.6603722856215637,5907.660476798233
1.448,0.9950615910534034,5891.611265772652
1.452,1.2493680033899217,5908.240490712197
1.456,1.386757788777381,5898.158549840374
1.46,1.3939400747671313,5905.484159217128
1.464,1.2821725069892653,5900.58444370455
1.468,1.0826029002933308,5902.0365654874295
1.472,0.8362224312617552,5901.51750987349
1.476,0.5804736346106653,5905.342414433457
1.48,0.3370741903601105,5908.20165725231
1.484,0.1068921122785085,5897.564717947702
1.488,-0.12492505789559384,5910.048126837004
1.492,-0.3760652559494623,5900.548395684716
1.496,-0.6532989938777997,5901.253492650466
1.5,-0.9445757905565276,5894.85192921033
1.504,-1.2197997635932047,5902.1814553199865
1.508,-1.438535916085217,5896.784292122789
1.512,-1.560250469633355,5909.283227188556
1.516,-1.5532801519451835,5898.733798846445
1.52,-1.4014916293089414,5903.231795384857
1.524,-1.109331463130268,5897.799388611795
1.528,-0.7050031544188359,5896.216227104439
1.532,-0.23983940597727577,5906.56013234772
1.536,0.217962515102261,5899.687658447655
1.54,0.5952855984411075,5901.937704898795
1.544,0.8296356904086732,5902.169729094128
1.548,0.8845613906975864,5904.769719873303
1.552,0.7605223293056045,5895.7262320894
1.556,0.49735121157448137,5900.294329261797
1.56,0.16636879930787102,5900.737567376489
1.564,-0.14687530754736008,5907.68906693745
1.568,-0.3651159486247315,5903.786255253089
1.572,-0.4407363396985199,5900.342754914864
1.576,-0.3691750244315998,5902.710519457879
1.58,-0.18954048144776955,5911.546770750181
1.584,0.028327548741744434,5901.650437909426
1.588,0.20623603494889928,5899.143967820876
1.592,0.2817311197729637,5901.00745003749
1.596,0.22546673428883157,5908.318525886108
1.6,0.045967272211265814,5903.209910727273
1.604,-0.2189975513784606,5906.405574991432
1.608,-0.5193811855928545,5904.39015071343
1.612,-0.8094220794516424,5905.246137704387
1.616,-1.0559532307626591,5912.659610026097
1.62,-1.2361640378434242,5905.1166091783
1.624,-1.3294920837664197,5903.559735608549
1.628,-1.3120117316651383,5902.6711465646185
1.632,-1.1594413186989896,5902.941563464553
1.636,-0.8584129308220521,5892.094402736263
1.64,-0.419614761227618,5898.259371752716
1.644,0.1152870775399623,5900.365243995542
1.648,0.6778278702337389,5892.94072968657
1.652,1.1871993505343725,5900.945125939222
1.656,1.5694452633887586,5898.393460253921
1.66,1.7744369101393027,5905.783801960671
1.664,1.785396719628846,5893.9847807074175
1.668,1.6189880085302004,5907.2717953365045
1.672,1.3172957771994815,5904.61639333877
1.676,0.935439696631508,5903.8378853171
1.68,0.529263796117732,5908.967939548334
1.684,0.14619792548528007,5896.679421643093
1.688,-0.18014140332700104,5910.116171999884
1.692,-0.43279960098335396,5903.688467054686
1.696,-0.6124674875505036,5903.690127053267
1.7,-0.7353580467962939,5897.387794075422
1.704,-0.8261600071384481,5899.587878386801
1.708,-0.9066769302272637,5898.019931401504
1.712,-0.9845087807165267,5901.2497297951695
1.716,-1.0477275206086696,5908.272308144531
1.72,-1.0691030530323173,5901.776151126693
1.724,-1.0183182022183361,5897.44201082874
1.728,-0.8759718441999099,5903.301475985405
1.732,-0.6423372850675445,5901.15989065048
1.736,-0.33777188602385416,5902.684191510445
1.74,0.003012996841820307,5905.541435625702
1.744,0.3385601544600653,5903.052516088885
1.748,0.6275521648523072,5903.577700267631
1.752,0.8344928568658165,5908.118376348871
1.756,0.9343015820580924,5905.04408002375
1.76,0.9156723978583119,5905.182273554251
1.764,0.7828267705413635,5897.699338685106
1.768,0.5551631879323657,5902.920770164162
1.772,0.2643502785538991,5900.853868757594
1.776,-0.05098332609727737,5905.750974296832
1.78,-0.3518937001694389,5902.625936825164
1.784,-0.6057942425644185,5901.218911845758
1.788,-0.7923043779515614,5895.723154449509
1.792,-0.9073366640699974,5901.845298997916
1.796,-0.9636766586397705,5897.745775356515
1.8,-0.9864832394968862,5901.119020865606
1.804,-1.0043816679625381,5900.30400869774
1.808,-1.0395400350837543,5901.086448473373
1.812,-1.1007346078163183,5902.056053465547
1.816,-1.1816264852558505,5894.590676698648
1.82,-1.2643103229220733,5902.667259245554
