时间(s),电压(V),幅值(高频80K)
0.0,-0.08219960706707866,5896.023619871799
0.004,-0.31603997048448745,5895.089824391446
0.008,-0.5391069053013184,5892.57528231181
0.012,-0.7360940790144734,5903.192988390274
0.016,-0.8942661883878297,5895.68376769741
0.02,-1.002560977654328,5893.5129199214525
0.024,-1.048961127409691,5892.370002088792
0.028,-1.0201379055395203,5902.970316054761
0.032,-0.9068522551409768,5902.254208695795
0.036,-0.7140891154501174,5898.943935815037
0.04,-0.46980771610512356,5897.329138369239
0.044,-0.2250326170285333,5904.90238514149
0.048,-0.04234200066237342,5900.9007995360325
0.052,0.02327783307750263,5896.333714120612
0.056,-0.057069328219966436,5897.950644525423
0.06,-0.2757000745097462,5893.010712585618
0.064,-0.5892163616367847,5901.075828566781
0.068,-0.9302888666324278,5895.530236079611
0.072,-1.2269085648735247,5893.204425293248
0.076,-1.4226842257972518,5903.67554164769
0.08,-1.4904188500692888,5899.449121209515
0.084,-1.4341393546371106,5895.358870958288
0.088,-1.2810733454901524,5900.496800706549
0.092,-1.069743998801486,5901.710693858207
0.096,-0.8397762207156079,5900.586871846729
0.1,-0.6252177112113669,5905.663427777665
0.104,-0.45065468603324943,5891.555319122008
0.108,-0.32946661926790427,5895.037702595508
0.112,-0.2642241231609082,5910.433965153188
0.116,-0.2487205688672273,5896.845268916933
0.12,-0.2699136208477411,5898.056334452293
0.124,-0.30821572318362755,5908.973331880333
0.128,-0.3369576525968028,5901.592248296579
0.132,-0.3240599882392375,5882.553733196641
0.136,-0.23818860619291968,5909.1989044450565
0.14,-0.05857996946425067,5897.470930100869
0.144,0.2149836155733878,5896.713394914435
0.148,0.5563719160597189,5899.256157625966
0.152,0.9147300775627258,5889.747946826136
0.156,1.2245224404348782,5902.401893370165
0.16,1.422246146532062,5901.477555373795
0.164,1.4651172056975559,5907.430474055823
0.168,1.3447257785893205,5903.459137059592
0.172,1.089221080402642,5895.87214483459
0.176,0.752593687297379,5903.856088270721
0.18,0.39690444536142133,5901.548352363796
0.184,0.07735543169760914,5895.712142979314
0.188,-0.16316419469873947,5897.519297744286
0.192,-0.2919023695910976,5900.138573013161
0.196,-0.28449719349462754,5913.342488535946
0.2,-0.12981606317377795,5900.91795461833
0.204,0.1603644373898282,5897.448153514164
0.208,0.5447118480710159,5896.662519890123
0.212,0.955883566800757,5895.132102051888
0.216,1.3154982366656185,5903.968379826119
0.22,1.5554494568671184,5907.803180606345
0.224,1.6371788600442025,5888.292622672766
0.228,1.5611858345012932,5896.697022024548
0.232,1.3630722071785784,5905.382656536834
0.236,1.0981115730812392,5903.764400754477
0.24,0.8211305605156827,5902.932859747211
0.244,0.5700079648898202,5902.444679408529
0.248,0.35861910920133455,5890.28621793882
0.252,0.1801301111250046,5898.069926408536
0.256,0.01713353903522352,5901.666688165085
0.26,-0.14645441735924705,5908.0938820484125
0.264,-0.3157087570121849,5907.602092904842
0.268,-0.4795012185193701,5903.607142400707
0.272,-0.6110256565472469,5897.131415853959
0.276,-0.6742855530699444,5902.437412810111
0.28,-0.6353692673940754,5887.391406080575
0.284,-0.4759044466714905,5909.469656103206
0.288,-0.20477665663262645,5900.873810182093
0.292,0.13682397360792226,5898.749658927051
0.296,0.48113112058448443,5898.545207428582
0.3,0.7502036000436673,5907.48238031637
0.304,0.8771816403260561,5899.088585789113
0.308,0.8239238847721319,5893.847624292476
0.312,0.5890885786349175,5906.496981546448
0.316,0.20579432184451252,5901.788072673283
0.32,-0.2681508152525121,5901.194859098059
0.324,-0.7630601637449096,5903.65447791783
0.328,-1.2093497682195993,5901.911233940205
0.332,-1.5466732332962683,5892.306747158663
0.336,-1.7305482189427532,5898.863726572574
0.34,-1.7382119395727016,5897.7062091884
0.344,-1.5745615312166725,5899.514188502351
0.348,-1.276114109354317,5900.3886805768025
0.352,-0.9084477986371597,5898.210738462812
0.356,-0.5536579986407999,5898.174671162401
0.36,-0.2894607442550465,5902.019271846948
0.364,-0.16728279593569384,5904.17121952845
0.368,-0.198473248722875,5899.14929510819
0.372,-0.3541246053828816,5896.917554868202
0.376,-0.5774440277380294,5903.219456287197
0.38,-0.80229011496411,5895.316966004627
0.384,-0.9701690879679168,5901.102588367884
0.388,-1.0408364983974032,5905.150819982473
0.392,-0.9961835848229655,5895.497084484947
0.396,-0.8396683966148683,5897.816005218209
0.4,-0.5929129627088985,5898.930126227592
0.404,-0.28978023561967814,5909.143411320578
0.408,0.0312607032124753,5899.833220605243
0.412,0.33448178566227454,5901.071420325715
0.416,0.5921126715335896,5896.694947829081
0.42,0.7866716122681257,5907.048628777229
0.424,0.9103770142849925,5903.024923422668
0.428,0.9621390208628526,5889.836993674162
0.432,0.9435171013081457,5898.208875841655
0.436,0.855667217173831,5906.822590508841
0.44,0.6988532562625298,5896.519660242225
0.444,0.47479931059272634,5896.983405198212
0.448,0.19091617751401577,5915.480174755374
0.452,-0.1353338691060371,5902.835180216503
0.456,-0.4741301353398404,5898.901352498227
0.46,-0.7851931091441899,5904.527116511753
0.464,-1.0248274253581717,5902.299981708857
0.468,-1.1567781278559521,5899.065428797248
0.472,-1.1633719482137175,5902.618198216142
0.476,-1.0524198186093694,5900.432971165009
0.48,-0.8563886440917206,5907.10112873138
0.484,-0.623510564525093,5906.480134681894
0.488,-0.4041592151685474,5892.511681234412
0.492,-0.23753841256200744,5900.265225681022
0.496,-0.1427320567373845,5904.4227323817
0.5,-0.11588499060749827,5903.462472085123
0.504,-0.1334304551021213,5902.069478967692
0.508,-0.16025434039408307,5894.274768707817
0.512,-0.1608023757568053,5899.17483642876
0.516,-0.10993345079949483,5900.272857051839
0.52,0.00041453184512341845,5903.240217298581
0.524,0.1616041612407323,5895.865005594244
0.528,0.3555433442035802,5897.31917549318
0.532,0.5650537307600131,5901.5254872477135
0.536,0.7815606200048828,5898.930689678412
0.54,1.0054516176234678,5897.496158588235
0.544,1.2387988312511602,5904.251350609489
0.548,1.4748956448663086,5894.26867029762
0.552,1.6908821207552693,5895.747271138513
0.556,1.8481015692044023,5898.20465435366
0.56,1.9015722522650211,5894.957305667791
0.5640000000000001,1.816276110577408,5904.65377562063
0.5680000000000001,1.5840942700194116,5894.74780768599
0.5720000000000001,1.2328706095244708,5904.439262300908
0.5760000000000001,0.8213799138127402,5905.460323366033
0.58,0.42098054976395555,5904.404009392505
0.584,0.09173657701237148,5904.011604022432
0.588,-0.13670523140280244,5896.543984893989
0.592,-0.27170998225999243,5907.188103000667
0.596,-0.34969812205582235,5907.311687184755
0.6,-0.41801503604299184,5902.406968032649
0.604,-0.5147014414595459,5901.992283152108
0.608,-0.6535337144195112,5896.286329640108
0.612,-0.8183582181660117,5902.36717786363
0.616,-0.9674026275083156,5915.700841673895
0.62,-1.0457089039124956,5903.656350846552
0.624,-1.0018899422259868,5902.852071275777
0.628,-0.804316305628793,5897.000968053723
0.632,-0.45209193403333225,5902.758731787921
0.636,0.022141214035547394,5892.567638320785
0.64,0.558017031719887,5899.869907089165
0.644,1.0799469982936303,5902.793867644386
0.648,1.5127759710290565,5892.932181419798
0.652,1.7964541449496372,5899.524729636843
0.656,1.8961976627932662,5899.314359688666
0.66,1.8062976057529772,5893.810628175759
0.664,1.547605080995188,5894.929065600199
0.668,1.1600456944314017,5902.666210836897
0.672,0.692471508684332,5909.14839695368
0.676,0.19282035168247286,5903.314142401166
0.68,-0.29873137725069915,5902.879587862297
0.684,-0.7524840238498691,5917.268417625191
0.6880000000000001,-1.1486423206318048,5903.739489409441
0.6920000000000001,-1.4754372509650284,5903.505638359266
0.6960000000000001,-1.7276125443818717,5897.994293882864
0.7000000000000001,-1.9056236796888222,5902.3932006002215
0.704,-2.014651707628737,5901.505691676421
0.708,-2.062414452836895,5899.751456091663
0.712,-2.055892869671948,5901.753816492949
0.716,-1.998350498547459,5899.339064768936
0.72,-1.8882134362114347,5899.302447910471
0.724,-1.720597368528232,5905.504198051692
0.728,-1.4913777247595068,5901.37688326345
0.732,-1.20292793516842,5899.489227009006
0.736,-0.8696435732525146,5900.346355419111
0.74,-0.5204925126615172,5898.2743971188365
0.744,-0.196352423380622,5899.364322942655
0.748,0.057912471304292834,5895.641234765464
0.752,0.20443993647326544,5903.228026915654
0.756,0.22322524649763645,5901.53216420611
0.76,0.11950938196810328,5899.366077373353
0.764,-0.07516853612247569,5897.987918940884
0.768,-0.3095299398425929,5897.3983467056605
0.772,-0.5255094795900537,5908.592174688718
0.776,-0.6740926985138302,5901.85360564374
0.78,-0.7292445856915297,5900.757864414832
0.784,-0.6952145967970681,5902.690021984296
0.788,-0.6042288534794096,5893.744187638217
0.792,-0.5049846657713205,5893.2982614587445
0.796,-0.4463885140389929,5897.890855505932
0.8,-0.4632048005460859,5906.534026709895
0.804,-0.5688166581905553,5906.16276475893
0.808,-0.7559716017149638,5902.625047259802
0.812,-1.0022472481680853,5893.091552170005
0.8160000000000001,-1.275760173390724,5893.225234982729
0.8200000000000001,-1.5387484303678878,5905.106323655807
0.8240000000000001,-1.7500752825767447,5913.051761590954
0.8280000000000001,-1.8696570409582554,5903.830073646777
0.8320000000000001,-1.8667953775223487,5910.685598396009
0.836,-1.7310799983721108,5900.643541963498
0.84,-1.4811555351246892,5909.961396883451
0.844,-1.1656446030194982,5895.228261353399
0.848,-0.8531226026988233,5900.123119329829
0.852,-0.6131137449826787,5900.5012026706445
0.856,-0.4946433898518298,5902.041015028548
0.86,-0.5104592682610188,5898.130013524871
0.864,-0.6330815323137926,5898.016150144012
0.868,-0.8043377557356596,5899.518337310032
0.872,-0.9548411897728222,5896.92766240015
0.876,-1.026225526334703,5901.540126005493
0.88,-0.9884137515181958,5904.656894508982
0.884,-0.8465865647683292,5898.423608063334
0.888,-0.636296491805838,5904.794164349657
0.892,-0.40900991515184004,5905.446359179401
0.896,-0.21354524696151445,5901.733894194156
0.9,-0.08032083972761349,5904.252352814327
0.904,-0.013832064782567812,5908.4621755411545
0.908,0.005139213792318163,5906.826163492219
0.912,0.010103754719213138,5903.22080204626
0.916,0.03675637441998123,5894.701971510539
0.92,0.11225539963286192,5905.795737828831
0.924,0.2483223923663209,5895.731490143857
0.928,0.4390971799746728,5902.240922757601
0.932,0.6634175019585516,5902.480205082979
0.936,0.889980573991783,5899.285059668648
0.94,1.0833020146731596,5896.901115048911
0.944,1.2090331245041845,5910.621286083968
0.948,1.2385405690735658,5905.522148886982
0.952,1.153497979699286,5890.983857056115
0.956,0.9507742186498913,5898.598947082392
0.96,0.6465271299967938,5909.972255706781
0.964,0.27718132742136,5905.1594226081415
0.968,-0.10516398843199233,5903.55558903838
0.972,-0.4435616666937588,5902.121663920724
0.976,-0.6904059306566684,5903.5342558695165
0.98,-0.8191455660816405,5900.437725782895
0.984,-0.8281592916450633,5907.1675510494
0.988,-0.7355221204711178,5897.411803774528
0.992,-0.5681576374723539,5894.393919257874
0.996,-0.35125623444105963,5904.496735418491
1.0,-0.10295723333226887,5907.164046227091
1.004,0.16389459641858337,5900.395707625622
1.008,0.43497427326265825,5909.852120071286
1.012,0.6875979958493241,5906.834543795237
1.016,0.8889417636119307,5903.117002813684
1.02,1.0016676609355206,5896.983517844551
1.024,0.9949348386497611,5903.045619943016
1.028,0.8561486065016841,5907.092256629195
1.032,0.5990539329215993,5896.460355017386
1.036,0.2653527900238137,5904.320275374547
1.04,-0.08140691674083729,5907.253572880879
1.044,-0.3691036609320019,5904.043206587428
1.048,-0.5345611320032582,5902.015658621429
1.052,-0.5402963748249529,5900.240129275109
1.056,-0.38491250385562453,5897.354953965386
1.06,-0.1032745858108761,5903.200521813613
1.064,0.24379547304301366,5898.157474896289
1.068,0.5865319925971284,5894.809600868607
1.072,0.8636078791669094,5907.223453282312
1.076,1.0339968342868389,5906.145428781856
1.08,1.0807189082807587,5900.345188814145
1.084,1.0078271688753115,5910.215946711118
1.088,0.8342586233342779,5914.188561573455
1.092,0.5879256523920106,5904.943143881595
1.096,0.301407882195862,5907.145483932696
1.1,0.00863768599360577,5897.097084905781
1.104,-0.2583337028173957,5902.97950295641
1.108,-0.4724300136233297,5903.679338952294
1.112,-0.6139564969919054,5897.643477162596
1.116,-0.6722705936468356,5897.357783613657
1.12,-0.6468800106113517,5898.523686646592
1.124,-0.5473225756595114,5898.58621257139
1.128,-0.390602046152144,5899.534957237098
1.132,-0.19622506679352378,5897.747600812355
1.136,0.018710251285792658,5893.494923790229
1.14,0.24134227020956192,5896.427909065974
1.144,0.4612646085806296,5908.313617506441
1.148,0.6674276534045142,5906.515278043269
1.152,0.8461735736423044,5902.617115276476
1.156,0.9813383394416051,5908.351347162476
1.16,1.0565748895783373,5901.066174211192
1.164,1.0598423727479547,5907.055932780922
1.168,0.9891160924176692,5904.51091430328
1.172,0.8573087689699812,5901.029634256815
1.176,0.6941518919553086,5898.595055924723
1.18,0.5431248083378348,5904.669937590866
1.184,0.4523737627854412,5897.539799769695
1.188,0.4608123246132894,5907.923864187599
1.192,0.583926875419013,5901.562122736615
1.196,0.8057875512748437,5894.934044080385
1.2,1.0821095826469846,5898.739499718877
1.204,1.3540497543368755,5899.364702639245
1.208,1.5664678869596464,5906.409125066275
1.212,1.6817268515347046,5901.119609500903
1.216,1.6833522950289002,5899.0715866041855
1.22,1.5708713195155097,5899.540566618829
1.224,1.3521862553748332,5887.111601599493
1.228,1.0394749109423502,5905.721746620167
1.232,0.6505425942883409,5909.686453542857
1.236,0.2133120233323558,5914.096677938707
1.24,-0.2313172779217078,5902.509725809429
1.244,-0.6328338456823182,5910.1093665687495
1.248,-0.9420241723701425,5900.333965881413
1.252,-1.125712552494941,5902.177044589643
1.256,-1.1783143668684175,5894.119621252885
1.26,-1.1242783638444156,5898.712390141783
1.264,-1.0099963364944067,5907.543216456226
1.268,-0.8883992531167003,5901.8424338284185
1.272,-0.8020455196085917,5901.276360234206
1.276,-0.7708026644396998,5907.096365985651
1.28,-0.7885252242419886,5904.709962475818
1.284,-0.8296601102022771,5902.868168977423
1.288,-0.8623614557289313,5900.503649000584
1.292,-0.8615993867375195,5900.912843503456
1.296,-0.8162596189965708,5904.073038790143
1.3,-0.7284062378576409,5902.802856508398
1.304,-0.6075612582881638,5903.060131777889
1.308,-0.46476004104706853,5903.944520596978
1.312,-0.30998127199992304,5907.359384947377
1.316,-0.1539349441288359,5907.44862209471
1.32,-0.012268359682994242,5911.436854170179
1.324,0.09196802621656093,5907.918707811575
1.328,0.13147292388783022,5902.825281252578
1.332,0.0838033925802919,5897.15879679612
1.336,-0.057643117177992836,5909.770670855121
1.34,-0.2765797915696977,5902.7837765455615
1.344,-0.5345523664303313,5896.203339117629
1.348,-0.7795548663782058,5905.525246407372
1.352,-0.9594825189607181,5906.391838621006
1.356,-1.0357457676170425,5902.540327336889
1.36,-0.9924105107994725,5902.318004678405
1.364,-0.8379792123819626,5905.358700850921
1.368,-0.6001089763260405,5902.341773346902
1.372,-0.3165120896946323,5898.605190812937
1.376,-0.025944244287489916,5900.416418764523
1.38,0.238379857764416,5910.464800650609
1.384,0.45242320271530434,5900.012777031773
1.388,0.6023031899866709,5893.393851631392
1.392,0.6830055431407307,5905.43871221828
1.396,0.6954872540485666,5902.117281650598
1.4,0.643596116838832,5901.134746460202
1.404,0.5327314443405723,5908.098203037423
1.408,0.3711224419462256,5900.006233957678
1.412,0.17244206648617405,5902.055726525918
1.416,-0.04276758205135755,5907.145528357139
1.42,-0.24878335878303037,5898.465558152315
1.424,-0.41975743251825254,5904.133014993892
1.428,-0.5364529233618922,5895.873536919354
1.432,-0.5915122265449092,5897.623981941738
1.436,-0.5904311125952793,5906.09566093393
1.44,-0.547804493560876,5906.898071202607
1.444,-0.48112096362991025,5897.056527967987
1.448,-0.4054718841726662,5902.673236555504
1.452,-0.3314965390725384,5899.56754182358
1.456,-0.2663828630276594,5901.959668916357
1.46,-0.21566967774124426,5904.605951382045
1.464,-0.18387514565226917,5890.321538950801
1.468,-0.17371470018243643,5905.137114998916
1.472,-0.18430993183916522,5904.059350865639
1.476,-0.20847080862253464,5895.085257596748
1.48,-0.22991568324205644,5896.938239619125
1.484,-0.22274329343230959,5900.382535068363
1.488,-0.15528234153568501,5906.043196846339
1.492,0.0016225945952365942,5896.7085110752905
1.496,0.263993812500881,5905.93327404784
1.5,0.6250961814258187,5896.405640173276
1.504,1.0503720980690032,5902.806385139381
1.508,1.479490656602958,5894.583775057471
1.512,1.8358316507426977,5902.692157335227
1.516,2.0415535733864187,5893.999954165284
1.52,2.035427033546306,5902.0136189606255
1.524,1.7900880074030974,5898.425351876159
1.528,1.3241184910623904,5901.154259891765
1.532,0.7036257494096307,5911.042913069091
1.536,0.03031568552020698,5887.310482264214
1.54,-0.58163764157044,5899.865655162333
1.544,-1.0327351522275379,5903.756287814756
1.548,-1.2607293377281077,5902.001610602767
1.552,-1.252276047792361,5901.2072133373285
1.556,-1.041359314379741,5907.961099671821
1.56,-0.696333830152655,5903.1780947353645
1.564,-0.30033784581603057,5905.224484392153
1.568,0.06922136271406674,5901.387192388692
1.572,0.35700341077417225,5896.330084980239
1.576,0.5380809519103326,5901.492800955909
1.58,0.6164729602175472,5895.961288392279
1.584,0.6151347063395467,5909.315023380592
1.588,0.562192689287213,5899.649801044362
1.592,0.48004180182693335,5905.713465548102
1.596,0.38199327316021264,5896.122758362171
1.6,0.275988771054195,5903.211920429768
1.604,0.1703550478259961,5899.431241942683
1.608,0.07643882869862488,5898.756453997337
1.612,0.0066969504885850215,5898.521665307559
1.616,-0.029497249679148536,5908.471262288601
1.62,-0.029078174614847702,5903.514063359315
1.624,0.004497198933624032,5906.309430791402
1.628,0.06410409674227548,5904.318185110223
1.632,0.14294324721003263,5911.129454774278
1.636,0.23660196171258002,5901.913554805476
1.64,0.3410912282055308,5904.834180653676
1.644,0.4478880295000808,5904.776426968144
1.648,0.5400165239179918,5898.132467556898
1.652,0.5933904824807738,5892.25329469025
1.656,0.5847004107636515,5898.470144577826
1.66,0.5030725765369769,5900.657681615975
1.664,0.3596456576563347,5900.454999150283
1.668,0.18891070314802458,5902.050549274806
1.672,0.03958591898973373,5907.6397546165845
1.676,-0.04087311405191898,5894.681117085143
1.68,-0.02057634521838528,5899.754525872272
1.684,0.10921725598121426,5894.731715557365
1.688,0.334540060231115,5899.390689127294
1.692,0.6258068856114855,5899.319687218521
1.696,0.9489838370636401,5905.635743000922
1.7,1.2772048608487228,5897.977167907669
1.704,1.598488190800629,5902.873829023916
1.708,1.9158651184545734,5902.820258883753
1.712,2.2390052578015465,5897.242345057911
1.716,2.570756607333715,5899.784213126333
1.72,2.895342612697271,5902.737602946
1.724,3.1744097813426295,5905.68717010748
1.728,3.352737241339664,5901.9110609819045
1.732,3.3707002977643703,5889.299081375191
1.736,3.179153099658023,5906.43799194049
1.74,2.754098442804714,5904.967456765208
1.744,2.1096388254523974,5902.742977288661
1.748,1.3058960136368216,5909.614730851333
1.752,0.4462879537836501,5899.450867620732
1.756,-0.33994173423115176,5894.721173651174
1.76,-0.9280464512566963,5910.046481899208
1.764,-1.2322073681801586,5896.650905716414
1.768,-1.2316925240313121,5912.238269335477
1.772,-0.9778987426052159,5908.760398504507
1.776,-0.5781817901732176,5897.677832817253
1.78,-0.16202940871279944,5904.305450440636
1.784,0.15721013712996154,5906.958677137021
1.788,0.31056197351114034,5900.313173916047
1.792,0.2826072347405471,5904.012724711047
1.796,0.10141665141108898,5908.020333154613
1.8,-0.18308846385620364,5906.961680808791
1.804,-0.5210522628749076,5905.357475997742
1.808,-0.8755899997399673,5899.786971487994
1.812,-1.2234680408765528,5893.916618852871
1.816,-1.5467866959617105,5902.162266928332
1.82,-1.8226723863722956,5895.837644183305
