时间(s),电压(V),幅值(高频80K)
0.0,1.6859290206904847,5898.971992054098
0.004,1.202494867689885,5892.953930623407
0.008,0.7886991835945777,5901.056796154051
0.012,0.4924384699415813,5905.008952478956
0.016,0.326228260012146,5903.044442071091
0.02,0.26403445591047536,5903.761368496252
0.024,0.25055585353368237,5898.9868393411525
0.028,0.220860203648804,5899.459794497495
0.032,0.12345211486047085,5900.486592327565
0.036,-0.061604669179037806,5897.506974511876
0.04,-0.31507922673742605,5908.9826680471815
0.044,-0.5826491214593691,5892.9940420454
0.048,-0.7888370905006592,5900.8144507738325
0.052,-0.8577168189436287,5900.14482744162
0.056,-0.7358661908772102,5910.739366777452
0.06,-0.4108666056862312,5893.661505338126
0.064,0.08152395632733495,5903.241708056601
0.068,0.6640083440467642,5897.469143373765
0.072,1.2344358400442255,5899.365658307663
0.076,1.6862587878289075,5896.340638494592
0.08,1.9285491894438322,5899.173835683306
0.084,1.9034208814604934,5899.913445446799
0.088,1.5981264213763227,5903.565124049221
0.092,1.048514801520966,5906.930880633635
0.096,0.3326957445026611,5904.131695578564
0.1,-0.4428684155438763,5903.990782679973
0.104,-1.1613177432236144,5903.4956233939
0.108,-1.7149358795838978,5896.220860137221
0.112,-2.0244716740858633,5895.2256171885065
0.116,-2.0550948838489473,5906.576564758697
0.12,-1.8242829784410426,5898.710128450443
0.124,-1.3976243497800216,5901.677322207211
0.128,-0.8718904676186477,5901.751203253225
0.132,-0.34946679006189135,5901.104586650213
0.136,0.08795977198173073,5895.632808415285
0.14,0.3980641125823706,5902.660155417744
0.144,0.5836679821437437,5895.629211984982
0.148,0.6849936650843577,5907.466978306483
0.152,0.7613646980935241,5905.92957633688
0.156,0.8676650996622698,5894.842200454158
0.16,1.0325333557160827,5899.041908112637
0.164,1.2456513417517163,5900.77751930747
0.168,1.45908747282032,5901.475166216505
0.172,1.6027257360690566,5903.234323574419
0.176,1.6088380661483557,5892.85469771196
0.18,1.4377598491095696,5906.382387250577
0.184,1.0955817780713961,5887.021570970284
0.188,0.6363496224511896,5907.812967125569
0.192,0.14665456328142634,5905.048637195021
0.196,-0.2816931763840809,5904.421731346481
0.2,-0.5794335760070292,5909.1646039354055
0.204,-0.7165788515099942,5902.818412336828
0.208,-0.7024468733728833,5895.4248828314885
0.212,-0.5715719849639458,5895.656307235034
0.216,-0.3638699833911371,5898.656153255727
0.22,-0.1083554847000381,5910.389855774605
0.224,0.1833551420645315,5900.327713935354
0.228,0.5124195044018619,5899.542490742893
0.232,0.8805934121263121,5895.860697058011
0.236,1.27729867763064,5903.521777602435
0.24,1.6728652529918042,5904.43317012718
0.244,2.021530478915509,5904.437215058461
0.248,2.2723663426854657,5903.280591673018
0.252,2.382274859782033,5895.134242527617
0.256,2.32558886287799,5901.165433750284
0.26,2.098683529259469,5902.603705987294
0.264,1.721095585630429,5900.058258108816
0.268,1.2344897866920417,5909.865693628052
0.272,0.6990799963200677,5894.9477244085965
0.276,0.18638724381623434,5896.73134298908
0.28,-0.23200356523258128,5898.547947252819
0.284,-0.4982864547919351,5899.41258514878
0.288,-0.5814460907205434,5902.086303296501
0.292,-0.48522334964652164,5902.7996761316335
0.296,-0.24837375607676299,5900.84313293816
0.3,0.06272547790337772,5900.59134162673
0.304,0.36720825626094583,5903.586056536735
0.308,0.5861623771111716,5894.738315408456
0.312,0.6597219710229129,5901.255453938523
0.316,0.5614543026912195,5902.73857200881
0.32,0.3061633716379518,5904.452784147743
0.324,-0.0520618381592133,5891.680114265237
0.328,-0.43250878052332703,5895.887148020796
0.332,-0.7487451376916688,5903.334607236463
0.336,-0.9316666359469785,5891.572876223415
0.34,-0.9468473222981278,5900.087165578797
0.344,-0.8002537131112268,5894.953789228151
0.348,-0.531296451239411,5899.276939180362
0.352,-0.19734511290153944,5902.137030264863
0.356,0.14355830465538785,5898.202772483918
0.36,0.44584015431724683,5902.946147121146
0.364,0.6822606697388712,5896.961187211057
0.368,0.8424834155109754,5891.796638647559
0.372,0.9269891559394866,5909.561117839792
0.376,0.9403118661997684,5905.019124422286
0.38,0.8864735600690672,5901.937427363748
0.384,0.7669441135859846,5902.916558983862
0.388,0.5802557757530955,5900.257889203832
0.392,0.3234366309953625,5898.960148556551
0.396,-0.003555284878151377,5897.173798000417
0.4,-0.3904397488045258,5906.782317743919
0.404,-0.8092208762823186,5902.251248184783
0.408,-1.2117376443898855,5900.298582156099
0.412,-1.535979194667811,5899.02634424023
0.416,-1.7208107987198786,5899.706046641348
0.42,-1.724023802095157,5902.060197499861
0.424,-1.5365666826083433,5896.383033634264
0.428,-1.187726167992308,5905.047301941621
0.432,-0.7401193464464397,5903.817635738032
0.436,-0.27675118914353614,5902.174879904377
0.44,0.1162042436388033,5899.206799247635
0.444,0.3673742251147934,5896.246151527
0.448,0.4360096279643471,5904.951765807998
0.452,0.3227190310562808,5904.551864855392
0.456,0.07139591874934656,5901.058234958768
0.46,-0.24077067574427144,5899.801643201608
0.464,-0.5242944717284164,5896.5029211452165
0.468,-0.702685989840332,5909.958023655991
0.472,-0.7321571439984873,5910.1081508559255
0.476,-0.6081105562109498,5892.731475942674
0.48,-0.35734052353755025,5903.777585458594
0.484,-0.02188545672275066,5892.931142625507
0.488,0.3562651425131524,5900.798511355387
0.492,0.742795484251082,5905.115599178867
0.496,1.1101225245756157,5899.457296422474
0.5,1.4321892417974214,5903.336236853157
0.504,1.6808923867767265,5906.643587328594
0.508,1.82775080056345,5897.161336632694
0.512,1.8501943065602722,5900.100648738407
0.516,1.7388692482021033,5913.738527923978
0.52,1.5024291284281526,5904.79360155108
0.524,1.1683242014453292,5898.936836859186
0.528,0.7798080114065827,5900.984437783877
0.532,0.38959307474477844,5906.357632248346
0.536,0.05021922194254551,5900.669029809295
0.54,-0.19786330693355664,5904.47419572539
0.544,-0.33708347289015317,5897.277098106396
0.548,-0.3776312443654579,5899.845213915164
0.552,-0.3534863129748216,5900.28511522218
0.556,-0.31066288263459757,5892.503421224208
0.56,-0.2920710997103705,5892.341412243047
0.5640000000000001,-0.3242837472253757,5906.229959499147
0.5680000000000001,-0.4101475873621941,5897.22042018289
0.5720000000000001,-0.5288611788871761,5902.259734352131
0.5760000000000001,-0.6429764272960935,5901.031159020267
0.58,-0.7100937704691452,5902.105164505676
0.584,-0.6958181669732294,5892.800926554999
0.588,-0.584132344086859,5891.17852206115
0.592,-0.3820862414684796,5901.109624685193
0.596,-0.11762292807372274,5909.265458788564
0.6,0.16806899463815342,5902.5389330067765
0.604,0.43036792036910826,5906.06106652006
0.608,0.6299068159960168,5907.458115671757
0.612,0.7384512106872195,5903.335809421188
0.616,0.7417264998244371,5909.044292496912
0.62,0.6394948149232932,5899.719566595201
0.624,0.4435950173917906,5909.894168801955
0.628,0.17512118272082344,5904.601443303265
0.632,-0.13827030227369427,5905.565186911327
0.636,-0.4646420991534321,5896.258471359459
0.64,-0.7698699662320487,5901.300807202131
0.644,-1.0198870642532076,5899.304272860098
0.648,-1.183204985017673,5893.6516010529485
0.652,-1.2335610060429179,5892.464822642233
0.656,-1.1526506932341545,5897.691322190474
0.66,-0.9331475704623571,5894.4273355843525
0.664,-0.5819945687309731,5891.993136353172
0.668,-0.12347512120838305,5895.929867375012
0.672,0.3989192933280207,5900.986913436701
0.676,0.9235474980948272,5897.594360715463
0.68,1.3766874852104343,5912.832754701467
0.684,1.6843325841501893,5901.796296425407
0.6880000000000001,1.7875388542398252,5906.552365399173
0.6920000000000001,1.656927583915415,5906.926466969274
0.6960000000000001,1.3020552058146355,5895.404955149051
0.7000000000000001,0.7730472756641361,5900.012700103225
0.704,0.15345929671390915,5912.56518225982
0.708,-0.4552959928297628,5901.703794290876
0.712,-0.9552895591322336,5900.6544565664
0.716,-1.273620384801,5912.144645002788
0.72,-1.3774366595193341,5901.985855182916
0.724,-1.277861704145326,5905.599702507849
0.728,-1.0226803486165625,5906.539971698256
0.732,-0.6817007270029024,5903.42111922693
0.736,-0.3303114660684509,5890.081643256843
0.74,-0.035573789536087155,5902.130296338956
0.744,0.1534232837374066,5901.206389417137
0.748,0.21120799535319587,5898.767755607127
0.752,0.13800266614227333,5906.134785456841
0.756,-0.04222935464623501,5905.555036545007
0.76,-0.2882148138680206,5898.657992001602
0.764,-0.5511154176813574,5902.0591083910695
0.768,-0.7848691662925302,5910.46916775536
0.772,-0.9546501005759274,5901.157083584498
0.776,-1.0424032425914,5899.5750945195405
0.78,-1.0492234452378773,5905.498991532916
0.784,-0.9941856839477772,5902.141857282407
0.788,-0.9093363448135391,5911.091968010186
0.792,-0.8316058731696611,5896.534045877856
0.796,-0.793661647548628,5902.107890185469
0.8,-0.8160768085278785,5905.197554144209
0.804,-0.9023314753665744,5895.775366020574
0.808,-1.0369814513921667,5905.390176095417
0.812,-1.187064489795322,5898.953446886193
0.8160000000000001,-1.3073073064747067,5900.557657062777
0.8200000000000001,-1.349427096340663,5904.908591454778
0.8240000000000001,-1.2741907852394696,5907.369429161641
0.8280000000000001,-1.063134668651008,5901.292004516643
0.8320000000000001,-0.7263143887304936,5899.279947898146
0.836,-0.3034104425830478,5893.608171165242
0.84,0.14253049815175473,5904.65849645323
0.844,0.5372440529964116,5902.604602592233
0.848,0.8101106555792809,5904.923566389115
0.852,0.9079804037145541,5896.0683794852175
0.856,0.8051222024895012,5898.100162683825
0.86,0.5082005996089298,5894.052720274258
0.864,0.05637971377543092,5901.293395437248
0.868,-0.48320079616774403,5896.866945652962
0.872,-1.0246361856984527,5898.521450133541
0.876,-1.4772191721866978,5908.032842463396
0.88,-1.7633243797037192,5899.985783480918
0.884,-1.8373175007041584,5900.436145936326
0.888,-1.700221824976127,5892.217505535919
0.892,-1.40410642967197,5889.193071162769
0.896,-1.0422383640381903,5888.320267229795
0.9,-0.7254184177051493,5898.7715959119005
0.904,-0.5500662309910184,5901.637056624382
0.908,-0.5678226048970693,5898.521526562731
0.912,-0.7677098032401352,5894.519571836998
0.916,-1.0787196743428722,5897.051444067427
0.92,-1.3934864204344872,5915.739675699889
0.924,-1.6051193693517134,5898.659344160445
0.928,-1.6432344310315763,5910.008406529073
0.932,-1.494993697056488,5896.690572872716
0.936,-1.2032648052527315,5906.723583177238
0.94,-0.8443670446355575,5902.140957406376
0.944,-0.497243304149459,5909.561624533836
0.948,-0.2187806640202699,5900.155902918039
0.952,-0.034498265215543035,5909.304757073947
0.956,0.0558111545536425,5912.595146952631
0.96,0.06491343408155371,5900.621844263869
0.964,0.0060932340457652235,5894.046290724927
0.968,-0.1123292242995439,5907.614505826889
0.972,-0.285214952418557,5902.205647939816
0.976,-0.5043162400423788,5914.007902150132
0.98,-0.7513880570471622,5899.453789320589
0.984,-0.9945722132996817,5896.822016262026
0.988,-1.1913789363702318,5902.823868553805
0.992,-1.2991951870293676,5903.775730292356
0.996,-1.289884595528035,5900.327352142739
1.0,-1.1618029541405859,5904.602017085208
1.004,-0.9432606139856575,5900.031631364936
1.008,-0.6855143344020865,5903.535502571212
1.012,-0.44812914247240904,5894.986210373505
1.016,-0.2825805425199909,5897.252783604487
1.02,-0.21981423439551923,5897.618788255363
1.024,-0.2646875572837831,5904.261967735876
1.028,-0.3973330001761891,5901.691498557539
1.032,-0.5803607252940897,5905.562755199713
1.036,-0.7705003355837013,5904.196162038974
1.04,-0.9318631819073279,5895.23784080086
1.044,-1.0460676581236064,5903.15430264771
1.048,-1.1148356939760502,5898.90483851874
1.052,-1.154237357940888,5901.6151526271815
1.056,-1.1837887077470535,5893.446419525278
1.06,-1.2152697045517604,5905.109653324247
1.064,-1.2456204585064354,5906.00213639189
1.068,-1.2569824337138993,5900.031838525781
1.072,-1.224678755651433,5901.146520158521
1.076,-1.130254519035328,5904.337062536394
1.08,-0.9735969662630007,5889.551753086421
1.084,-0.7783531810975889,5899.34146156915
1.088,-0.588289895147973,5912.641089920184
1.092,-0.4562995876038586,5905.628635263669
1.096,-0.4302509499477323,5901.844148846555
1.1,-0.5402166523587476,5903.930545720192
1.104,-0.7902411368715492,5903.130890245096
1.108,-1.1557480688401969,5901.882356688312
1.112,-1.586181392342027,5909.791165521003
1.116,-2.0122834480190863,5898.403605249727
1.12,-2.357862334366857,5897.027124508798
1.124,-2.5552018466948083,5911.859020871631
1.128,-2.5608045729216964,5902.063195600101
1.132,-2.3660334397639926,5902.006179426149
1.136,-1.9982065501649373,5905.544736382863
1.14,-1.5118031808394217,5907.304530919177
1.144,-0.973706053075394,5895.387494092515
1.148,-0.44816881825636506,5890.985446839131
1.152,0.013759674259169321,5903.09698869029
1.156,0.37802065093523335,5905.031683200911
1.16,0.6249571144635032,5907.071695353736
1.164,0.7432701843786136,5904.0650782817465
1.168,0.7249147425974857,5903.769719230651
1.172,0.5647493036627195,5904.5555135444365
1.176,0.2659019314858528,5904.576372494147
1.18,-0.15187475230658792,5900.681729426454
1.184,-0.6458109320797629,5904.364950860327
1.188,-1.1501118887574362,5904.245538023501
1.192,-1.584227662429185,5904.430394611812
1.196,-1.868361480547824,5891.623208376872
1.2,-1.9425884117184224,5899.888001018205
1.204,-1.7840468853767666,5901.671321349514
1.208,-1.4164447340201989,5893.4200819715525
1.212,-0.9082841650302027,5906.185681663365
1.216,-0.3598114041246312,5889.614234272218
1.22,0.11811146494602477,5893.737113003386
1.224,0.42827681991609273,5900.98749065038
1.228,0.509058346608892,5898.696039321456
1.232,0.3485939163793168,5899.978718922236
1.236,-0.01310022199370213,5901.144527270967
1.24,-0.49544182415538385,5907.505764871373
1.244,-0.9989510742495221,5902.0133355924845
1.248,-1.4305073971407578,5913.696646490927
1.252,-1.7241927582297998,5908.63286186556
1.256,-1.8511574115638587,5892.070520711479
1.26,-1.8160821660357138,5895.556349762765
1.264,-1.643906590793815,5903.297911327744
1.268,-1.3651480897121535,5900.734725816514
1.272,-1.0075873983228214,5894.979146461702
1.276,-0.5966459186636093,5903.946667256367
1.28,-0.16072324499340992,5907.370542115696
1.284,0.2648247005075569,5892.173123740357
1.288,0.6395549500518672,5901.739004812208
1.292,0.9257115529314198,5914.404096700638
1.296,1.0979023129986034,5900.4832069894965
1.3,1.1495265625257265,5898.195853262705
1.304,1.0930784301265788,5904.650498588481
1.308,0.9551551906688621,5899.686219213065
1.312,0.7692466149256667,5900.204200747697
1.316,0.5688858480621934,5903.935426067063
1.32,0.38189362881476857,5905.9829351559
1.324,0.2256072192932506,5903.667455622386
1.328,0.10377151652058751,5905.39787764028
1.332,0.006758552712245197,5895.783110486883
1.336,-0.08346780412980198,5898.262305036525
1.34,-0.18396989067165434,5893.533734377484
1.344,-0.29995449137872937,5908.499558054642
1.348,-0.41731046581257203,5903.201307121491
1.352,-0.5030845797161695,5899.0906414135325
1.356,-0.5151838546346352,5900.470066112606
1.36,-0.41843126768270933,5893.219702084175
1.364,-0.20133458557793432,5907.879604787739
1.368,0.11268878656737165,5899.699907861742
1.372,0.46460997385466446,5904.8339475163775
1.376,0.771519865442592,5905.586076741011
1.38,0.9482551119707029,5902.87766565064
1.384,0.9322727194663553,5908.48149850955
1.388,0.7036426399356068,5903.833088945277
1.392,0.2937413354214585,5894.703475825493
1.396,-0.22038377898577585,5891.7369957582405
1.4,-0.7351705550990428,5911.305656160218
1.404,-1.1481664124837736,5903.925629143796
1.408,-1.3854710001908745,5894.5040269374285
1.412,-1.4199028038411698,5908.024123014561
1.416,-1.274451236534979,5898.098087070003
1.42,-1.011202945386578,5904.796272151711
1.424,-0.710629757180249,5898.021336904008
1.428,-0.44847407634309927,5895.667220694224
1.432,-0.27732698791835697,5900.9530606272965
1.436,-0.21779902500157464,5904.451314683539
1.44,-0.2607089401715044,5899.87510476429
1.444,-0.37786141865400735,5903.423639245929
1.448,-0.5359941967883805,5901.291767827502
1.452,-0.7078814482377258,5889.881221898202
1.456,-0.8767467230008786,5897.343667784988
1.46,-1.0335500850488561,5906.656963644158
1.464,-1.169783717713971,5902.605679179793
1.468,-1.2704951489288017,5902.312337221998
1.472,-1.312280788069031,5901.8463769369455
1.476,-1.26805512551462,5908.849465877123
1.48,-1.1163281807956695,5899.800404078523
1.484,-0.8506739644693387,5910.3263521678
1.488,-0.48569133934339825,5892.547133566023
1.492,-0.05740613437174574,5906.998836746918
1.496,0.3822398517462852,5893.547767735921
1.5,0.775394399174119,5906.460006590702
1.504,1.069976639806334,5902.41011416028
1.508,1.2299024451666514,5903.681232028864
1.512,1.2413975897655538,5906.973954524102
1.516,1.1141435765495147,5898.472225895319
1.52,0.8774834875039617,5907.075125235304
1.524,0.5731259103721851,5909.185308959279
1.528,0.2462051839903484,5908.865001664142
1.532,-0.06327009376228682,5899.646825290523
1.536,-0.3261497481094976,5912.757034306086
1.54,-0.5251979525653496,5900.6407806222
1.544,-0.6522128886058356,5901.576776371343
1.548,-0.7047399062641138,5905.453874741215
1.552,-0.6857416898136627,5905.561225407336
1.556,-0.6062458316705378,5906.008275968385
1.56,-0.4877505788385243,5905.728392977076
1.564,-0.3610063458922413,5910.382349351336
1.568,-0.26043662677008605,5903.182128147721
1.572,-0.21629987745201507,5905.395233727708
1.576,-0.24757622146597125,5897.240793698297
1.58,-0.35753603329139727,5906.343871519161
1.584,-0.5325530606868402,5908.792159184414
1.588,-0.744164292705599,5899.490169768005
1.592,-0.9545677964123064,5900.584920086102
1.596,-1.1255554082986792,5902.331149755037
1.6,-1.2292821409283146,5897.42180273338
1.604,-1.256991240316713,5909.534255976936
1.608,-1.2211426124612494,5901.309527037406
1.612,-1.1487218157695784,5897.429096180496
1.616,-1.0678330754568994,5897.975860582408
1.62,-0.9936019418232958,5897.778982616008
1.624,-0.9203984343537229,5901.015312042161
1.628,-0.8243022216329492,5899.504144361295
1.632,-0.6746214232768817,5906.003336997474
1.636,-0.44972586565861017,5897.528133013747
1.64,-0.15145667522671777,5900.542487414653
1.644,0.18751743356052963,5900.690188493032
1.648,0.5078885101449766,5903.888131704636
1.652,0.7402151630759745,5904.482000052412
1.656,0.8286933761024999,5897.479631780283
1.66,0.7528103581434192,5904.861486778891
1.664,0.5378805661853118,5895.610720444336
1.668,0.2501802535807177,5898.11425346857
1.672,-0.02163895869318855,5904.772847553216
1.676,-0.19277662667718948,5909.140065800279
1.68,-0.20809589817582685,5905.9451356785785
1.684,-0.05952616182012023,5899.509761577231
1.688,0.21088591672275292,5897.778113950631
1.692,0.5237811380876285,5905.017705620101
1.696,0.7867527165094497,5899.077756614405
1.7,0.9211318092024975,5896.333410591218
1.704,0.8818444720957235,5906.316563830453
1.708,0.6647040445871901,5897.582700074176
1.712,0.30133463262548354,5901.333069856071
1.716,-0.1535077924516995,5898.464223877655
1.72,-0.6362019660132541,5906.63537217764
1.724,-1.0857860716623844,5900.937761914067
1.728,-1.4510597751096665,5898.078545715285
1.732,-1.6936649203741865,5906.489418409814
1.736,-1.7887169120760145,5904.282326338213
1.74,-1.7247980678338146,5896.337080411377
1.744,-1.5043703536339184,5902.639309746797
1.748,-1.1443131721117892,5906.553806116191
1.752,-0.6751225452043735,5907.481974211739
1.756,-0.13706567213056714,5902.229005936712
1.76,0.4271126136908703,5904.532377499501
1.764,0.9806587084126548,5904.57625075371
1.768,1.4979750427131693,5901.2799345302765
1.772,1.962765046285131,5901.080662846734
1.776,2.3597206094145116,5910.422251436154
1.78,2.665327777509628,5902.884326523989
1.784,2.8449019670491897,5903.382638347117
1.788,2.85946352165008,5895.0757747364505
1.792,2.6802692563365027,5893.119527674362
1.796,2.3046540549511128,5893.643360111968
1.8,1.7660590266436273,5902.97674612787
1.804,1.1333137106774405,5896.399061020384
1.808,0.4981689590226175,5900.279022378015
1.812,-0.04559735644225669,5904.222497006209
1.816,-0.4247672098296534,5907.405811876992
1.82,-0.6031218448464313,5899.922673463688
