时间(s),电压(V),幅值(高频80K)
0.0,0.6137913442966891,5899.317130131332
0.004,0.7777062529725022,5898.171283528423
0.008,0.8857023153991085,5898.723024915666
0.012,0.884975316409664,5896.683654302793
0.016,0.7446752222004192,5905.47295614038
0.02,0.463390264438115,5894.411921502929
0.024,0.07079838429030605,5891.961010960292
0.028,-0.3782866121205724,5899.471813018992
0.032,-0.8175548256509101,5894.357679156887
0.036,-1.186461746340741,5898.613460159285
0.04,-1.4435727291302407,5891.700436635716
0.044,-1.5701201665521476,5903.253556456771
0.048,-1.5645267353941605,5894.157992919821
0.052,-1.4344886189656365,5898.996679029047
0.056,-1.1932547172197683,5899.92388917906
0.06,-0.8618387085422203,5889.3224675106
0.064,-0.4737496939849483,5896.35405869188
0.068,-0.0768473017449987,5893.82024846285
0.072,0.27158293299151526,5897.103079631654
0.076,0.5169540810500761,5906.937857902003
0.08,0.6232780951913995,5901.67250998997
0.084,0.5863302526265669,5894.875934554591
0.088,0.4366735141930791,5900.143668652062
0.092,0.22869938484763874,5892.060660699416
0.096,0.019729703972035374,5897.238954085548
0.1,-0.14999638373799107,5898.281713372937
0.104,-0.2662284975938638,5900.232563441221
0.108,-0.33609989241642363,5901.788724237682
0.112,-0.37606320631059753,5906.500526383684
0.116,-0.4011668995373234,5902.711876011149
0.12,-0.42068839460922175,5905.671536922461
0.124,-0.43927362023621525,5896.865127711452
0.128,-0.4597500669130836,5907.264480821849
0.132,-0.4847945686852152,5902.404539225924
0.136,-0.517183791791022,5897.101753995436
0.14,-0.559701647604206,5903.953371431656
0.144,-0.6152451454638969,5897.839518357727
0.148,-0.6865656335152897,5909.719569834166
0.152,-0.7749230923961428,5890.001305636778
0.156,-0.8778958191102328,5909.447833764733
0.16,-0.987670936456105,5896.883712365031
0.164,-1.0912423564044413,5904.127095390506
0.168,-1.1728470590066657,5902.939022858509
0.172,-1.2176889430526057,5903.193927102637
0.176,-1.2156661449389532,5905.778709879091
0.18,-1.164234126815906,5905.18704455308
0.184,-1.0697152741670852,5892.03894868896
0.188,-0.9462291518880569,5896.973950490585
0.192,-0.8118408378711389,5896.052464505459
0.196,-0.6827551827556573,5893.3171268823135
0.2,-0.5674533345095705,5903.036427536548
0.204,-0.46280536995420124,5895.4793425327225
0.208,-0.3537863443544381,5910.855150968047
0.212,-0.21777720090615243,5900.852063845819
0.216,-0.0330766124583654,5900.061094025078
0.22,0.2106139960316377,5895.42474205624
0.224,0.5031589914377544,5901.279302008351
0.228,0.8098488595665289,5904.165694602556
0.232,1.0748253204402962,5893.824457059252
0.236,1.2331774915215612,5904.285578747485
0.24,1.2299509717520078,5899.454714778149
0.244,1.040511131589926,5897.53283185788
0.248,0.684074392625978,5900.637046728088
0.252,0.22350118471177402,5899.517208501944
0.256,-0.2500378324926491,5900.288586208632
0.26,-0.6423637654605252,5900.741785276474
0.264,-0.8826344056161444,5892.722632133557
0.268,-0.9421871944664892,5905.803892588923
0.272,-0.840650381864989,5903.444134220478
0.276,-0.638083413649118,5909.913332003275
0.28,-0.4153789116759011,5900.265330198956
0.284,-0.24864009644086513,5907.848333811455
0.288,-0.18641340418068297,5895.315068397277
0.292,-0.23862987777867667,5892.65708009256
0.296,-0.3808667861808062,5901.911162480397
0.3,-0.569754136280226,5894.854661046742
0.304,-0.7604791855260653,5900.695017809152
0.308,-0.9184563392578581,5908.482041587385
0.312,-1.0226703670004633,5902.701795438076
0.316,-1.0635541565174151,5906.52300852201
0.32,-1.0400631798076503,5898.132440215868
0.324,-0.9585999419115557,5904.471588055329
0.328,-0.833067549670315,5908.9487899080295
0.332,-0.683600671402466,5905.293793147164
0.336,-0.5326948019887523,5887.563771719464
0.34,-0.39992449499691596,5901.27396407141
0.344,-0.297570013053453,5899.229454290541
0.348,-0.22881589025871418,5895.617951342114
0.352,-0.18935679959660343,5902.414714801671
0.356,-0.17263836055675227,5893.022900303644
0.36,-0.1771899468526849,5889.61264927574
0.364,-0.2118219930811301,5894.957184116241
0.368,-0.2939819824451642,5897.69297606172
0.372,-0.44023590904292875,5896.427317068285
0.376,-0.6532186349191537,5892.7434645089625
0.38,-0.9123825641034669,5899.789389618268
0.384,-1.174628247005447,5901.146068104436
0.388,-1.3860771858786982,5900.318625017827
0.392,-1.500190981055419,5904.323342480505
0.396,-1.4937774148153942,5910.177554417243
0.4,-1.3739298790745889,5902.093534875654
0.404,-1.1746434534101289,5903.329517335998
0.408,-0.9470357678501162,5905.05484091318
0.412,-0.7477202803922933,5907.21360431602
0.416,-0.6270205381942663,5898.004748698423
0.42,-0.6170264001704372,5894.2472051024
0.424,-0.7211782515159516,5897.485645827596
0.428,-0.9095863228946546,5910.440701881763
0.432,-1.1240135143504384,5906.605553251235
0.436,-1.292669456709813,5907.352674183198
0.44,-1.3502222316069212,5897.994501023508
0.444,-1.255989751827023,5895.310914224488
0.448,-1.0045007017111265,5908.46011048521
0.452,-0.6262484148174857,5904.668008256422
0.456,-0.17994135384275875,5893.640018632501
0.46,0.2607745201968047,5906.890919563164
0.464,0.6230369073425857,5898.52715588088
0.468,0.8501074872141958,5901.192236135197
0.472,0.9134401622238378,5900.643093446328
0.476,0.8185722975455816,5902.709991298291
0.48,0.6029445073489293,5901.081839988528
0.484,0.32597546526586674,5904.123813159494
0.488,0.05394326861845498,5904.450286333249
0.492,-0.15667629046641343,5905.197862154631
0.496,-0.27358698550982025,5899.188354194368
0.5,-0.2970888345053207,5906.277257231597
0.504,-0.25962126714123757,5895.921774369262
0.508,-0.21570228017095758,5897.61306967238
0.512,-0.2250276578488984,5901.049013104376
0.516,-0.3343996698383052,5904.323973583514
0.52,-0.5642058958754134,5895.411590542955
0.524,-0.9024888219171273,5908.260239784717
0.528,-1.3066341356991673,5891.984039300909
0.532,-1.7110814610763558,5898.133088604999
0.536,-2.039324192524581,5895.071804064894
0.54,-2.21914511687286,5905.79703977078
0.544,-2.199910652096484,5899.560504917671
0.548,-1.968523879362419,5902.076572834501
0.552,-1.558060509519632,5910.235566312098
0.556,-1.0437093846429943,5897.11360912316
0.56,-0.5253313956295099,5904.025182800522
0.5640000000000001,-0.10190374234555027,5899.930264068358
0.5680000000000001,0.15337290870379183,5898.91360182451
0.5720000000000001,0.20930191097795509,5898.907355709287
0.5760000000000001,0.08055019955429699,5896.773875514048
0.58,-0.17958808226483905,5899.700215568605
0.584,-0.49357151642603164,5903.645860504217
0.588,-0.7772705858146766,5898.456280983541
0.592,-0.9578610995849471,5905.9009825762805
0.596,-0.9888096987311635,5893.534439322129
0.6,-0.8584043314546868,5899.037721818851
0.604,-0.5892518823127963,5907.4982477474805
0.608,-0.22906906477543423,5896.405209211667
0.612,0.1635122531463565,5904.460345099204
0.616,0.5328647952023609,5903.919328765288
0.62,0.8360685725447572,5902.435593531225
0.624,1.047280843554535,5907.617423913544
0.628,1.157861440274916,5894.147454180113
0.632,1.1740031730507456,5904.588498164964
0.636,1.1131937503225604,5903.650366284661
0.64,1.0002095789938044,5895.007091193097
0.644,0.8631062403947954,5907.834333897675
0.648,0.7298176667882629,5905.608913974303
0.652,0.6258474034947684,5904.577099747749
0.656,0.5725198615063124,5901.032579575743
0.66,0.5841750745757841,5906.953015307683
0.664,0.6634274456410927,5905.719512249
0.668,0.7962062931518276,5892.828660954004
0.672,0.9500212048176475,5890.819054103485
0.676,1.077756258428841,5902.124141030004
0.68,1.126641515236773,5896.897464382884
0.684,1.0503199994849617,5910.471646990906
0.6880000000000001,0.821589800858271,5903.76275203931
0.6920000000000001,0.44325709043572864,5902.090297418763
0.6960000000000001,-0.046062697561254265,5907.08830050132
0.7000000000000001,-0.5745100870484505,5904.025652732582
0.704,-1.0496388920663096,5903.066162746628
0.708,-1.379584906755823,5903.456129800579
0.712,-1.497453945500814,5899.7590695976405
0.716,-1.3810779648693656,5899.464710188379
0.72,-1.0604868766698041,5905.649558895557
0.724,-0.6095438941763808,5902.66305876156
0.728,-0.12498337971405468,5898.877908475775
0.732,0.29857986230132505,5905.2073146669045
0.736,0.5890482301878193,5905.070302536637
0.74,0.7085441183366894,5897.696295288164
0.744,0.6568955620235041,5895.588316775855
0.748,0.468822414664672,5893.69474723676
0.752,0.20586302858798322,5889.255566167094
0.756,-0.05652862027533283,5893.481311660483
0.76,-0.24538610950509904,5910.165094222022
0.764,-0.307115478120947,5901.656273246781
0.768,-0.22062705851081058,5898.769470415396
0.772,-0.0023959095544279028,5903.294891389233
0.776,0.2993155339203527,5899.884633944006
0.78,0.620146666264907,5900.120909802412
0.784,0.8995618484253447,5893.609579059775
0.788,1.0966682669482655,5903.406983828788
0.792,1.1955494365684705,5907.309223417533
0.796,1.199477710393599,5902.836206284834
0.8,1.11930443257492,5903.205918227888
0.804,0.9639869261885418,5892.920700378643
0.808,0.7392026272557713,5901.165030551669
0.812,0.4544191031046005,5898.768748877757
0.8160000000000001,0.13297355829132373,5900.615729214067
0.8200000000000001,-0.18254781893673266,5900.575870151542
0.8240000000000001,-0.4348214838903166,5902.2447124341925
0.8280000000000001,-0.5660783510137987,5902.128822848687
0.8320000000000001,-0.5368519149287662,5900.656453315215
0.836,-0.3409229498223843,5906.796867383263
0.84,-0.009322926860485522,5905.794618925915
0.844,0.39828671979805047,5900.390144909537
0.848,0.8100609662129123,5908.1943906021
0.852,1.158895999807581,5906.247517676268
0.856,1.3949343585446543,5900.71020862156
0.86,1.4922922781348724,5900.424174695171
0.864,1.450089176417112,5895.781756173185
0.868,1.288239616818284,5900.838609368892
0.872,1.0396385474972527,5908.917814908616
0.876,0.741591450786088,5898.925354750723
0.88,0.42906947274943924,5899.906659806939
0.884,0.1309544843959465,5903.642409306368
0.888,-0.13075367528910808,5909.086815207224
0.892,-0.3396916204934312,5904.625701362328
0.896,-0.48400682629530845,5902.29042873271
0.9,-0.5580099692331952,5906.471418686887
0.904,-0.5670718976419583,5902.927587611677
0.908,-0.5322123976201122,5900.476878567034
0.912,-0.48893252434300855,5897.056299884698
0.916,-0.47755545300211166,5903.9790440201405
0.92,-0.5277769290294448,5901.989661638552
0.924,-0.6444293580477851,5901.641628803693
0.928,-0.8020500076345384,5889.104187643462
0.932,-0.9521781650644702,5897.972361450407
0.936,-1.0410977677538429,5899.027033205623
0.94,-1.0305408531866782,5899.330632629153
0.944,-0.9126540808246232,5897.381965187932
0.948,-0.7135820786180881,5894.661162209064
0.952,-0.48521667617086744,5896.109132940537
0.956,-0.28910929071112534,5896.24042073839
0.96,-0.17833084739164906,5907.23726293542
0.964,-0.18241186965929837,5904.144127007501
0.968,-0.29894498446298806,5900.45174246857
0.972,-0.49377941183458096,5906.133742824674
0.976,-0.7096891659848503,5897.193863233945
0.98,-0.881061652031684,5900.8591430668685
0.984,-0.9505047335632554,5909.871813044354
0.988,-0.8829353356596683,5903.036983785323
0.992,-0.6734615002579437,5898.969432124001
0.996,-0.34703017757788224,5904.497799025568
1.0,0.0495770928139115,5885.577303111767
1.004,0.4599566144163957,5903.936503533375
1.008,0.8294600423422398,5899.471385151779
1.012,1.1117603900874502,5887.779722860609
1.016,1.2703530319586431,5906.594958607942
1.02,1.2786088014986035,5910.918178507541
1.024,1.1225183524330615,5907.523689076674
1.028,0.8067400894649878,5900.389212198503
1.032,0.3601739367600966,5904.723095951472
1.036,-0.1640112763203258,5907.917497296867
1.04,-0.6960103581326493,5911.838236942516
1.044,-1.1621369721350123,5908.254658076207
1.048,-1.497652554162626,5904.930765352933
1.052,-1.6557268220117916,5909.923438461513
1.056,-1.611533744803851,5905.565359016671
1.06,-1.3626648130736287,5902.994099666242
1.064,-0.9275341756042182,5903.959307212493
1.068,-0.3429959554436808,5888.476747511634
1.072,0.3382751967700597,5893.898302094713
1.076,1.0509294913770555,5908.156566668258
1.08,1.7218209228498234,5902.687783029277
1.084,2.2780557880115935,5900.373932009443
1.088,2.6583233795939933,5895.488646854658
1.092,2.825203049951316,5892.743047341138
1.096,2.7745079409517115,5900.834607224481
1.1,2.538186650543492,5905.827453325481
1.104,2.1793446517312245,5902.695322549856
1.108,1.7802180816975006,5893.967871038259
1.112,1.4254832003278828,5900.610581582524
1.116,1.1839889571419326,5898.273187606767
1.12,1.0924548107219527,5909.075112929303
1.124,1.1452592686795986,5886.842691658184
1.128,1.2943238253354559,5903.129206148106
1.132,1.4608574232354827,5908.332838642289
1.136,1.556348208122145,5910.914597828546
1.14,1.5060524522827239,5894.599823168602
1.144,1.2673739105160409,5909.286880733125
1.148,0.8385166973150711,5900.918772113613
1.152,0.2569836957150932,5906.267909182111
1.156,-0.4100111738547146,5906.617858885724
1.16,-1.080475859899918,5892.002954555205
1.164,-1.6745969113680235,5908.328104533421
1.168,-2.129574688812004,5892.686227251112
1.172,-2.4086858535991613,5911.194860380583
1.176,-2.5032085618577216,5899.701451581393
1.18,-2.428178733357936,5908.065444410949
1.184,-2.2140521670913924,5897.482919961028
1.188,-1.8968472094699422,5905.2688488141775
1.192,-1.5098020505311622,5896.803322514451
1.196,-1.0793557455145686,5902.79216693337
1.2,-0.626610740222794,5896.206407610981
1.204,-0.17254964707965342,5904.725292639399
1.208,0.25733331045865737,5900.830063208704
1.212,0.633358775627906,5910.371376033763
1.216,0.9280307262362187,5908.036347026701
1.22,1.1253719566097313,5901.355947800043
1.224,1.2283263258297292,5888.391941935405
1.228,1.2604076649543292,5903.548702976946
1.232,1.2602750231398505,5905.127190093172
1.236,1.2706595203263746,5901.706388028608
1.24,1.325278902374552,5899.220410638232
1.244,1.4381058073565418,5909.138265827271
1.248,1.5982885591248086,5900.998684372511
1.252,1.7718711960451548,5893.0725101411845
1.256,1.909334173638462,5905.109186300388
1.26,1.956833423444373,5908.623891243653
1.264,1.8690865084130628,5909.972834171127
1.268,1.6222481193291194,5905.716722043834
1.272,1.2246346418399616,5915.52570399436
1.276,0.7218454938292463,5894.8278237127615
1.28,0.1923458122381985,5904.007749593112
1.284,-0.26830891742969576,5898.729483120941
1.288,-0.5717505481048425,5907.063814091986
1.292,-0.6618022461055727,5901.16190059388
1.296,-0.5305799810406983,5909.127339807742
1.3,-0.21931372539395902,5911.205603702684
1.304,0.19556587833044028,5902.289110870614
1.308,0.6244083969865185,5902.53498342343
1.312,0.9860708604101168,5903.091157262428
1.316,1.2235475002466782,5902.788307212825
1.32,1.3111023163497004,5897.464208846178
1.324,1.252738023910487,5909.593895567431
1.328,1.0734974356425642,5902.203433623365
1.332,0.8073455059629656,5910.127074484694
1.336,0.48707763108941676,5904.619785792362
1.34,0.1406189901547868,5895.769269233787
1.344,-0.20585121434553072,5902.522879572772
1.348,-0.5217918140647316,5902.850585452074
1.352,-0.7687766198134918,5905.652414039653
1.356,-0.9033046200739284,5899.52788430476
1.36,-0.8860969444760328,5901.16244611861
1.364,-0.6952493199622405,5895.69923410371
1.368,-0.3391841598533364,5891.416048796903
1.372,0.13547723099266293,5898.466319552354
1.376,0.6457353337596993,5902.872774344895
1.38,1.085885341567487,5894.917573054993
1.384,1.3510738715873836,5896.117865452858
1.388,1.364822164900549,5895.127088600361
1.392,1.1024062018449376,5903.24422327418
1.396,0.6023417358400244,5904.86930798756
1.4,-0.03872257763000271,5896.595393899825
1.404,-0.6873577574168244,5903.991289284885
1.408,-1.2052902136621249,5902.141139330077
1.412,-1.4827123908929998,5907.28676382168
1.416,-1.463307342132105,5910.633055683675
1.42,-1.1541908161724423,5897.752084713016
1.424,-0.6192896671847966,5900.610199641687
1.428,0.03974368446167415,5898.338021983817
1.432,0.7079016717552626,5906.274789229901
1.436,1.279846001311581,5902.848632895092
1.44,1.6775206045485247,5900.56826289911
1.444,1.8604176740302354,5899.2559718125
1.448,1.8275745204979208,5894.15717252978
1.452,1.6114677707320182,5906.701200820303
1.456,1.26589016883015,5901.874187958175
1.46,0.8516473872803957,5905.068530919104
1.464,0.4242554918121006,5896.875515292918
1.468,0.026651667913828614,5912.801843207442
1.472,-0.31239510968064604,5901.972372569754
1.476,-0.5762477078634044,5900.918941543168
1.48,-0.7581113420655012,5896.418335419815
1.484,-0.8602100085340229,5900.011276816619
1.488,-0.8930612787974921,5901.12711803728
1.492,-0.8724177534657434,5892.925883589874
1.496,-0.8137719679746386,5898.786553977191
1.5,-0.7275964762713607,5904.176654477869
1.504,-0.6191405474984658,5905.345328110963
1.508,-0.4936975581275523,5912.580478389814
1.512,-0.3641513080370083,5899.402325490937
1.516,-0.25543650592927936,5898.210647231753
1.52,-0.20167072434194225,5907.020379304952
1.524,-0.23528459113389924,5901.878225972705
1.528,-0.37165774939521845,5901.04718788102
1.532,-0.5958256929491267,5896.252176321228
1.536,-0.8582807727261978,5904.191293733496
1.54,-1.083922404834609,5902.666237148441
1.544,-1.1927476217389616,5899.742179832159
1.548,-1.12563111753474,5908.25748276188
1.552,-0.86613307815427,5903.975559762199
1.556,-0.4504329290343187,5906.077393454219
1.56,0.038736294309079856,5901.866739185849
1.564,0.49317569220483937,5908.411421891107
1.568,0.8090414043827753,5904.632261984548
1.572,0.9154773944979157,5907.489521228851
1.576,0.7926504090457591,5902.4040584195245
1.58,0.47464182585934755,5896.889738492782
1.584,0.03857553599207815,5914.762989449067
1.588,-0.41516388986799957,5895.600405311379
1.592,-0.7862320695075341,5907.309898699933
1.596,-0.9964015520035885,5897.094314573592
1.6,-1.0059904413076708,5899.177756423083
1.604,-0.8205733230127477,5905.764796192864
1.608,-0.4861170065573675,5905.807902040401
1.612,-0.07487066003692283,5897.408057678677
1.616,0.33258492946530366,5906.277413276072
1.62,0.6641386983758523,5906.788994671274
1.624,0.8691906505805348,5900.568619461462
1.628,0.9269177298164248,5904.322722723537
1.632,0.8489731996263231,5899.7602329688725
1.636,0.6759260113475023,5903.221610314211
1.64,0.46778748392702885,5901.149797858806
1.644,0.29062415334242986,5902.553693829608
1.648,0.20232930827697557,5900.495926153016
1.652,0.24066550444156432,5908.326336527675
1.656,0.416067200909594,5900.209745601298
1.66,0.7104368611502954,5901.051561346832
1.664,1.0813320907631523,5906.0321730168325
1.668,1.4696669803758875,5907.57271490615
1.672,1.8094254331084583,5898.612728661819
1.676,2.0390550336357363,5899.149506845844
1.68,2.114160456320229,5903.049333705799
1.684,2.019282990364168,5900.1186992347
1.688,1.77469928717035,5914.8140677680285
1.692,1.434435392021414,5895.673593705098
1.696,1.074364691797158,5904.682445976223
1.7,0.7728288283935943,5899.312186535612
1.704,0.589057207730394,5902.645809462061
1.708,0.5459505328255475,5906.151423765701
1.712,0.6231181753860241,5900.1306836511485
1.716,0.7632696444847389,5904.049606787143
1.72,0.890852339566731,5901.456015214648
1.724,0.9375927542367143,5899.360608585542
1.728,0.8668011248555817,5904.739375285922
1.732,0.6881652181044254,5903.412279600081
1.736,0.45754539553334955,5900.19104554899
1.74,0.26085860959274215,5903.053219659536
1.744,0.18613660299140866,5908.579153892446
1.748,0.2924022299614429,5899.280748588922
1.752,0.5866119549164238,5903.725870317824
1.756,1.018182646416554,5906.824489714016
1.76,1.493798985499802,5907.801771070269
1.764,1.9061565125557638,5904.293419649754
1.768,2.1641880471241155,5908.489254505255
1.772,2.2130166261276645,5904.075009580545
1.776,2.0388758613458307,5895.214872725006
1.78,1.6625366618025352,5901.549368162731
1.784,1.1288057889115986,5906.53413465686
1.788,0.49795024559269485,5905.627932289277
1.792,-0.1596625355949164,5907.644187388246
1.796,-0.7680968526575945,5902.221971163456
1.8,-1.2527013705518668,5905.026616549345
1.804,-1.5504150101508067,5890.455042816903
1.808,-1.6216312298535505,5901.128162506559
1.812,-1.4597638664189592,5899.775903016115
1.816,-1.0949186775062176,5900.443666907878
1.82,-0.5902169469740123,5898.633678197114
1.824,-0.0316997716551653,5904.611034590808
1.828,0.48606042253461973,5898.777672457012
