时间(s),电压(V),幅值(高频80K)
0.0,0.648590764400208,5891.291806914284
0.004,-0.5738557596440377,5903.89086167229
0.008,-1.5595486866119466,5904.713649839081
0.012,-2.1281766303764043,5896.5101152486895
0.016,-2.196056034300622,5905.794618767601
0.02,-1.7842483466144456,5904.288761683578
0.024,-0.9994249624018094,5902.846571680839
0.028,0.0012293447227854084,5900.973167471574
0.032,1.0473326579921447,5896.235304352689
0.036,1.9848654862414834,5902.024230032575
0.04,2.6951113934826365,5902.905687681886
0.044,3.105675214061244,5895.34910204625
0.048,3.1964845376924806,5895.887785434993
0.052,2.999853643003743,5896.447802889346
0.056,2.5914150297648884,5897.256614930109
0.06,2.07159929919219,5897.958433285947
0.064,1.5426794539203466,5909.410013841953
0.068,1.088741133601562,5901.612714058622
0.072,0.7636514114664443,5906.669779963136
0.076,0.5881499485974201,5904.973764380202
0.08,0.5544691281413442,5898.5583980020665
0.084,0.6354958091890877,5902.945626168244
0.088,0.794700134443924,5905.300462885917
0.092,0.9935398038912672,5890.746213461704
0.096,1.1955168172809088,5906.127733507364
0.1,1.3689119842746345,5902.474754277578
0.104,1.4905850826476887,5906.879755735628
0.108,1.550541984923365,5895.896628772625
0.112,1.5540491660673508,5900.343395612923
0.116,1.5182212827162107,5898.4615620743225
0.12,1.4635333333612028,5901.720782773598
0.124,1.404585153679845,5905.047672936796
0.128,1.345263215825845,5900.1149430905925
0.132,1.2804961187157113,5910.07188815546
0.136,1.2024908044139173,5896.820953389463
0.14,1.1069985079566915,5901.446284853179
0.144,0.9960517290683033,5904.16551754484
0.148,0.8760575179949353,5901.105641046371
0.152,0.7523831984910334,5907.191750438749
0.156,0.6237850520802211,5903.4665431855465
0.16,0.4814604882568531,5904.705020639923
0.164,0.3153615525469824,5899.7293246498
0.168,0.12468983618863315,5898.474876850809
0.172,-0.0747896671005687,5902.805234949054
0.176,-0.25246937602044534,5903.603752078259
0.18,-0.37369109114703003,5899.15804384884
0.184,-0.4143721227480865,5900.941928782876
0.188,-0.37245552636242335,5907.526066382786
0.192,-0.2707806470471337,5904.9685390932045
0.196,-0.14960564308938956,5896.463893812614
0.2,-0.05129627473197265,5900.417741152083
0.204,-0.0033283532190659065,5906.409266035512
0.208,-0.0072422749748630565,5892.297826439588
0.212,-0.03904443044786032,5899.943587160156
0.216,-0.060877232253279165,5904.724646173479
0.22,-0.037698934179825096,5894.206110864978
0.224,0.04939568774051392,5896.595722329983
0.228,0.198352395339497,5905.435294910822
0.232,0.3895933250822552,5903.532618058579
0.236,0.594116808937348,5898.7257726714015
0.24,0.7825025570894664,5889.765630776402
0.244,0.9324057079852316,5898.91319321027
0.248,1.0331413275730439,5905.123098543689
0.252,1.0864654802882265,5898.641482317714
0.256,1.1034587144457755,5901.310408476415
0.26,1.0985932474784241,5901.280806950978
0.264,1.082922779420365,5896.54563639647
0.268,1.058742298399773,5906.119278304971
0.272,1.0182026017565975,5896.165156945296
0.276,0.9474674507504328,5895.053524311543
0.28,0.8352885874489074,5902.194008348219
0.284,0.681511052355099,5903.237300716207
0.288,0.49972556701384946,5890.644946905852
0.292,0.31093732592782264,5899.467049766344
0.296,0.1308233798098739,5904.398754733576
0.3,-0.041747699600515456,5894.417048381109
0.304,-0.22672183353379724,5909.156016154528
0.308,-0.4522869364390076,5892.968421332587
0.312,-0.7363727740580758,5892.79242904538
0.316,-1.0700640619392334,5902.232878020828
0.32,-1.4119505534690604,5903.096152053106
0.324,-1.6968116815243526,5897.632751818003
0.328,-1.8556471749043628,5904.053950364056
0.332,-1.8396126723027135,5897.73001387194
0.336,-1.6386046635628984,5895.627683385156
0.34,-1.2868158620269368,5903.4530121334965
0.344,-0.8528032366198467,5896.431312584092
0.348,-0.41837511636490465,5888.084010855615
0.352,-0.05523666370625301,5908.378089492121
0.356,0.19184316908802587,5897.113516765987
0.36,0.31118237975397584,5895.142234454382
0.364,0.3209804407679925,5898.552625610773
0.368,0.2606484480256544,5906.355995795986
0.372,0.1797379030639462,5896.339791368006
0.376,0.1260379783518813,5895.325997853677
0.38,0.1343924102238721,5898.917061043343
0.384,0.21846667814423223,5899.811224050453
0.388,0.3672961925686736,5902.396988007684
0.392,0.5470611286708227,5893.638662053253
0.396,0.7077699734314135,5903.09287833217
0.4,0.794700249189401,5909.034719596239
0.404,0.7638172677435583,5898.104897330001
0.408,0.5979286892994643,5900.132307983069
0.412,0.3177795259315124,5903.031544558419
0.416,-0.017491904191233924,5899.710649627333
0.42,-0.3224336256624182,5895.911525442551
0.424,-0.506881814906711,5898.90218474585
0.428,-0.5006392376169034,5901.56928612954
0.432,-0.273755691623959,5910.526591741598
0.436,0.15386659341195577,5897.829752150164
0.44,0.7163998571764364,5894.264921811333
0.444,1.3175968882569098,5890.344217724601
0.448,1.8522754141139617,5897.339971578413
0.452,2.227769182730811,5897.768445576363
0.456,2.3813393713025635,5893.75801251233
0.46,2.2914068842951947,5904.102389905251
0.464,1.9808963551717946,5891.493001288941
0.468,1.511146146223674,5903.934124712083
0.472,0.9667783677635622,5901.96868834539
0.476,0.435531029828623,5903.314906489512
0.48,-0.010542397301152523,5902.716334107568
0.484,-0.3270150807367002,5907.08461645587
0.488,-0.49994441866861256,5904.1523096030805
0.492,-0.5411538721636098,5900.892632759576
0.496,-0.48020754340157795,5902.786917315175
0.5,-0.35732066795052964,5899.961916947277
0.504,-0.21831553731311898,5901.083780252245
0.508,-0.10947791542003786,5911.333273188058
0.512,-0.0700237294621112,5898.20451341085
0.516,-0.12275796826572406,5900.881874572882
0.52,-0.26659102885918007,5901.3522208338345
0.524,-0.4751444929138952,5900.741060594055
0.528,-0.7031478593543546,5890.8714154229865
0.532,-0.8983900387437282,5898.2051717530985
0.536,-1.0143147124794472,5901.231216168615
0.54,-1.0190383133415584,5896.826095105805
0.544,-0.9001324641068855,5902.254853244891
0.548,-0.6671966211688417,5912.263396161365
0.552,-0.3528577912477959,5899.175830136752
0.556,-0.009384163950423002,5900.949363391816
0.56,0.30208583716502607,5887.979781223848
0.5640000000000001,0.5280126078726282,5901.771045860111
0.5680000000000001,0.6379292964752983,5904.695668213493
0.5720000000000001,0.6318542342751851,5902.5345448486205
0.5760000000000001,0.5368217562881299,5901.168474968222
0.58,0.39518990283500854,5909.755611184998
0.584,0.25096387998069475,5901.918055464219
0.588,0.14015619769917792,5898.12129440012
0.592,0.0872855653971827,5903.172709129677
0.596,0.10556055384754845,5900.195599805235
0.6,0.19694811088106154,5902.09883845213
0.604,0.35078393400789654,5900.980102344427
0.608,0.5428284388287453,5890.747945881994
0.612,0.7377820849101573,5899.014985066623
0.616,0.8967250324018157,5895.361394265572
0.62,0.9879333189986774,5900.634991203584
0.624,0.9970346416940825,5903.850489656222
0.628,0.9321296960481693,5892.8989277968985
0.632,0.8210927424396703,5897.57259698527
0.636,0.7007005686689765,5900.663502041076
0.64,0.600488712792599,5896.315811844137
0.644,0.5277732369785904,5891.267728976548
0.648,0.461519686729563,5902.728844931212
0.652,0.3597802864457325,5898.331525978165
0.656,0.17945921035982973,5892.959416506995
0.66,-0.0990194499295952,5901.170000616349
0.664,-0.45332157016109664,5904.275937311023
0.668,-0.8172250675852605,5892.623967708157
0.672,-1.098564104266201,5901.520282914413
0.676,-1.21116236497051,5897.060428537096
0.68,-1.1077854911112248,5900.607473638638
0.684,-0.8002495096717502,5903.150114248155
0.6880000000000001,-0.3581065590640586,5899.1394696839
0.6920000000000001,0.11375309023163377,5901.877101006802
0.6960000000000001,0.5094685946506259,5904.000222731597
0.7000000000000001,0.7547995965540747,5894.409904262153
0.704,0.8258126411549147,5897.898425521272
0.708,0.7482904201423117,5897.705608717376
0.712,0.5809325386510805,5900.877879152533
0.716,0.39141299094428267,5902.817389165846
0.72,0.2351601852393539,5899.356612714308
0.724,0.14292336791739166,5896.194998987095
0.728,0.11819280957862544,5906.158613821881
0.732,0.14228212173074972,5900.217664369556
0.736,0.18364067393736025,5889.675274893814
0.74,0.20789314431069805,5908.345100695942
0.744,0.18610422553792597,5896.706500889414
0.748,0.1005077508868526,5902.200666949965
0.752,-0.05190937990238017,5903.618370314317
0.756,-0.25769888708019045,5897.08002507425
0.76,-0.48760270108642156,5908.394912359332
0.764,-0.7005781652793541,5898.903047604257
0.768,-0.8518035281326941,5902.4815923887145
0.772,-0.9035983231764515,5903.071296730949
0.776,-0.8361343457721463,5901.22732446059
0.78,-0.6540583263848525,5895.000567962315
0.784,-0.38647677493838095,5895.471964118431
0.788,-0.08024283907730509,5905.359349919067
0.792,0.21123566176992895,5896.923844254116
0.796,0.44000869448300783,5895.747328045137
0.8,0.5726147504242761,5899.079387377426
0.804,0.5938778416947776,5893.0589404588845
0.808,0.5057128302781831,5903.838906351228
0.812,0.32304265020467415,5903.011449642577
0.8160000000000001,0.06929490440821211,5905.330706932847
0.8200000000000001,-0.2269268132215158,5902.199901582252
0.8240000000000001,-0.5336642896464681,5895.250695430573
0.8280000000000001,-0.81652300315989,5903.381370758265
0.8320000000000001,-1.0398466004591194,5898.1884367783705
0.836,-1.1694965054937838,5899.60218251505
0.84,-1.1779098235430572,5895.935472088101
0.844,-1.0506609438395897,5905.386060426221
0.848,-0.7927057831783841,5903.33038488105
0.852,-0.432394664567787,5902.989356838657
0.856,-0.021532140725394104,5900.84331260105
0.86,0.3701058492098736,5907.978668290056
0.864,0.6666519757743142,5899.220921217188
0.868,0.8031368447382279,5900.691407429838
0.872,0.743090440762773,5900.808172323725
0.876,0.4901924092312507,5904.51856190907
0.88,0.08889592797740045,5896.235530616757
0.884,-0.3863735230228832,5902.499410946651
0.888,-0.8492372518715798,5902.745258842056
0.892,-1.2207968224915753,5893.122011730688
0.896,-1.4458818126212492,5893.496493165472
0.9,-1.5031292897851454,5903.930464696762
0.904,-1.4070664446307382,5907.594415637942
0.908,-1.202126186409929,5900.553400952214
0.912,-0.9505595063078159,5900.545963662009
0.916,-0.7170236321819582,5899.681537213498
0.92,-0.5528950673575581,5911.373264576141
0.924,-0.48434779013290047,5901.113303046255
0.928,-0.5082346143997742,5896.922599248903
0.932,-0.5967896059483188,5896.277139631816
0.936,-0.7081067519933908,5899.730684587155
0.94,-0.797955615881269,5896.767339928806
0.944,-0.8301449872290126,5897.779223892208
0.948,-0.7843269226532735,5894.701541772723
0.952,-0.6599517733648429,5899.283153306041
0.956,-0.4746022751485727,5906.519997848701
0.96,-0.25632189177283793,5898.126731110983
0.964,-0.03250698474090494,5892.112851032781
0.968,0.17955175974503587,5897.83883290527
0.972,0.37525623214962145,5909.003985481101
0.976,0.5565101005227481,5906.442309498098
0.98,0.7204029869900886,5894.470612370401
0.984,0.8503370458804558,5899.240389144915
0.988,0.9160612366305991,5912.899045763195
0.992,0.8836158214674167,5898.827017044775
0.996,0.7304185825249491,5903.91399448163
1.0,0.4583560195768592,5897.322225034445
1.004,0.09930495024092965,5900.43527716627
1.008,-0.289178506203592,5906.0980502628345
1.012,-0.6371546555603886,5899.641052452892
1.016,-0.8809792751214575,5894.990219873555
1.02,-0.9813559712469813,5912.932210113411
1.024,-0.9341011282283532,5895.697555936623
1.028,-0.769613180676506,5902.843080740627
1.032,-0.5421541151403624,5899.167649702274
1.036,-0.31426329340887244,5909.098460105868
1.04,-0.1421954146943256,5899.829251717561
1.044,-0.06581825486491197,5895.146572657071
1.048,-0.10357856871015354,5903.668554944792
1.052,-0.2516977683766311,5900.809948806634
1.056,-0.48674783811739925,5900.536711645721
1.06,-0.7711541407890657,5898.751198958835
1.064,-1.060739596664184,5908.283464004468
1.068,-1.3123489313532037,5894.09235012754
1.072,-1.489556290698156,5897.1454379417
1.076,-1.5659181337312928,5902.715781580803
1.08,-1.526513450971565,5898.015686919367
1.084,-1.3686109699047642,5894.247565419122
1.088,-1.1020236919162891,5895.642500255685
1.092,-0.7495272353471203,5913.943971886979
1.096,-0.3470877502385229,5888.87007425742
1.1,0.05735696709788533,5899.358051444729
1.104,0.4082250559389604,5907.6605437603
1.108,0.6507109237341857,5905.542703938946
1.112,0.742779120454695,5897.104232903405
1.116,0.6681038938988841,5903.820575880075
1.12,0.4451907179544611,5898.665155955092
1.124,0.12746526408382267,5901.658438825347
1.128,-0.20800887849143004,5901.7104607935535
1.132,-0.4801033391591571,5901.955832605601
1.136,-0.6241390490029485,5900.207229922402
1.14,-0.6062711197907324,5904.435004180972
1.144,-0.4286238949279595,5901.609976711339
1.148,-0.12571922316093587,5895.935069786338
1.152,0.24577545347044324,5904.680657333662
1.156,0.6212682648938211,5905.755487874731
1.16,0.9426655636139768,5893.721774979158
1.164,1.1688091160346008,5896.648699560471
1.168,1.2794708143043931,5907.164574930594
1.172,1.2739028215230703,5902.522384932007
1.176,1.1675146812958217,5906.236244125953
1.18,0.9896408177621248,5891.18659536617
1.184,0.7821581402082096,5903.677754840366
1.188,0.5959325430066906,5902.811208913639
1.192,0.4822756599515289,5904.422138634309
1.196,0.47982606431100105,5903.574655865386
1.2,0.601251470415227,5899.410622856004
1.204,0.8259091691785315,5903.223518331894
1.208,1.1026279857621697,5900.250262508399
1.212,1.3623800575684237,5899.244775074044
1.216,1.536550920828318,5892.11922760873
1.22,1.5747536798564898,5903.572723994345
1.224,1.457022842904686,5899.275332148046
1.228,1.197863295112101,5902.585012541398
1.232,0.8424363606015896,5904.275228848726
1.236,0.4567250907685459,5901.1433939291655
1.24,0.11359560564290233,5904.982809207433
1.244,-0.12361384247236251,5907.086930099253
1.248,-0.21775024250151728,5903.671875675421
1.252,-0.17100794815797288,5891.452856991315
1.256,-0.029522480553078424,5898.621048464889
1.26,0.12514167054335473,5905.193064103127
1.264,0.19831867212589954,5900.871115464762
1.268,0.11269754691517869,5901.1494241356095
1.272,-0.16405191331065186,5904.138299597641
1.276,-0.6056578457635257,5903.853309164252
1.28,-1.1332801113438025,5901.012968267625
1.284,-1.6385192344686177,5904.000153013007
1.288,-2.0140155577262084,5895.735370383903
1.292,-2.180584285880682,5903.340969963418
1.296,-2.1034406575126527,5901.590190533388
1.3,-1.7957919443571018,5901.898601743005
1.304,-1.312106554699233,5899.828606499737
1.308,-0.7345105705740501,5903.557994984439
1.312,-0.15557028275724444,5899.553984248986
1.316,0.3391037567424463,5896.239872369448
1.32,0.6846580157979771,5902.675117580036
1.324,0.8443466972501827,5897.090136192828
1.328,0.8101873242320661,5903.092315070292
1.332,0.5994576872090503,5902.00011281079
1.336,0.2503134493005479,5913.943627494673
1.34,-0.1819823253428914,5903.780532211116
1.344,-0.6291535407545289,5906.683276833354
1.348,-1.0162827402764631,5906.2764156630665
1.352,-1.2716086001320253,5899.725629364935
1.356,-1.3389250899812872,5903.884308745993
1.36,-1.1897118368842723,5897.6156651574
1.364,-0.8312358546498225,5894.5979715651565
1.368,-0.307671583478751,5897.772094749337
1.372,0.3066856336888917,5901.63936045924
1.376,0.9208533343115782,5901.2216287999245
1.38,1.4444492471532475,5898.6840365627895
1.384,1.8051037628362272,5892.281141142635
1.388,1.961909323922817,5896.879098834484
1.392,1.9117027185442308,5898.209926961647
1.396,1.6871446526322829,5903.529929422194
1.4,1.347759167266969,5894.22762397095
1.404,0.9663591687346702,5892.683430191149
1.408,0.6138464383094319,5901.370735935261
1.412,0.3456147981984736,5901.57455466332
1.416,0.19255404780592608,5893.052527536387
1.42,0.15869173959104094,5900.351600328339
1.424,0.22570172774438027,5904.190186860022
1.428,0.3621141160260161,5903.566375035939
1.432,0.5331987125627639,5910.603137968194
1.436,0.7076392809927873,5906.214693065551
1.44,0.8596426134915514,5893.6958235936445
1.444,0.9684808120108463,5903.608055252642
1.448,1.0189073894652962,5897.715767751964
1.452,1.0038916473862627,5899.532897388619
1.456,0.9275511672721416,5906.435819215437
1.46,0.8048191903963317,5910.207622396511
1.464,0.6567453099919359,5900.533421261282
1.468,0.5039653756541665,5895.963615467751
1.472,0.3621864830924707,5902.106183129592
1.476,0.24137657561525935,5896.102800720673
1.48,0.14706938785166918,5898.747323706455
1.484,0.08104932111365823,5908.89615129689
1.488,0.040333183492516675,5909.543575240768
1.492,0.015517151156858554,5903.246651171541
1.496,-0.010053934118561885,5908.19521555767
1.5,-0.05981513380862727,5896.80029211388
1.504,-0.16199950796211632,5903.277778459636
1.508,-0.34501117805455056,5907.046213472388
1.512,-0.6288739990684924,5904.040413957155
1.516,-1.0137960692614998,5896.598519481233
1.52,-1.4704449348196862,5900.602400611354
1.524,-1.9380069838474387,5899.440587475189
1.528,-2.3335063710828394,5905.25084924895
1.532,-2.5706744709074463,5905.172108496064
1.536,-2.5822958893118235,5903.597069414871
1.54,-2.338538464855741,5903.549024521055
1.544,-1.8553676562750163,5895.984558465086
1.548,-1.190967296330424,5897.291293309221
1.552,-0.4325720682430353,5904.369143021609
1.556,0.32111522855815466,5901.565252469495
1.56,0.9768760879647117,5897.9086334820895
1.564,1.4601350786427116,5898.130816890224
1.568,1.7231743038721132,5902.408505860967
1.572,1.748784888482761,5902.937311925129
1.576,1.5505697075023115,5900.211472790629
1.58,1.1709061425119778,5895.81419679928
1.584,0.6765060163723919,5907.68065587943
1.588,0.15069109702112435,5899.217694350382
1.592,-0.3179540475218598,5896.458834049255
1.596,-0.6492639927151413,5909.804895230533
1.6,-0.7848844215729611,5906.566081541405
1.604,-0.6986724164744016,5896.77732615556
1.608,-0.40231412783027465,5899.807875223039
1.612,0.05488394831609649,5905.742292374785
1.616,0.5928983907853251,5907.702505821928
1.62,1.1146989017402191,5899.00803625535
1.624,1.5247731587552533,5903.375323922952
1.628,1.7481948043514972,5913.5224088971945
1.632,1.745238315827788,5896.685522671679
1.636,1.517960922004099,5897.398112169738
1.64,1.10790496913292,5891.628340275084
1.644,0.586537054041887,5898.456396595357
1.648,0.04113417439670767,5903.716634169526
1.652,-0.4412863283817103,5900.690065258828
1.656,-0.7897023786541241,5907.866443814001
1.66,-0.961797153676671,5896.685874883149
1.664,-0.9503477630117416,5900.856943828421
1.668,-0.7810457521515941,5902.594333745253
1.672,-0.5026132715266274,5900.178572765552
1.676,-0.17290558370299777,5903.872022745886
1.68,0.15462028686127738,5909.122720634394
1.684,0.44041661032818,5901.435436528073
1.688,0.6619458861608063,5897.536093985576
1.692,0.8101361194524767,5901.282721142883
1.696,0.8817442246779368,5894.5310771909735
1.7,0.8720485616284896,5899.700926057391
1.704,0.7718780876357652,5896.681202342597
1.708,0.5704132353193134,5903.103431767763
1.712,0.26213763770564463,5900.132925921796
1.716,-0.14530887538322032,5904.830276087984
1.72,-0.6253775683875701,5907.804346936567
1.724,-1.130792270381906,5897.856026952386
1.728,-1.596450605138227,5911.765249721654
1.732,-1.947339820183107,5904.849539968388
1.736,-2.111422471050967,5896.160272504269
1.74,-2.0362346409397403,5893.631916661888
1.744,-1.705588197808987,5907.172078677571
1.748,-1.1506647088416837,5893.437408324158
1.752,-0.44993701813288167,5906.455543920823
1.756,0.2844092436002078,5887.717159438083
1.76,0.9308022887724033,5892.232382992793
1.764,1.386182962688465,5902.787812920973
1.768,1.5886187366958178,5895.436621428158
1.772,1.527761023874627,5908.97437845126
1.776,1.2412828543478338,5903.414681852181
1.78,0.800793437733071,5901.792433979671
1.784,0.29323857532696973,5901.42345710067
1.788,-0.19732364285651643,5904.987724009239
1.792,-0.6052158674457125,5898.614847532608
1.796,-0.8947853384732773,5893.620936311168
1.8,-1.0662850156919539,5906.473194380595
1.804,-1.1527972670492719,5910.187671788415
1.808,-1.2058790246615296,5907.05092526368
1.812,-1.2722335560557285,5892.830793872876
1.816,-1.3701233084889495,5899.015626009627
1.82,-1.4772058574982068,5898.593769719481
1.824,-1.5372505892259005,5900.067712968428
