时间(s),电压(V),幅值(高频80K)
0.0,2.897346520205468,5889.658292705667
0.004,2.1672248397151983,5906.277630875167
0.008,1.4735277139891318,5891.929481783916
0.012,0.8500426502642179,5904.969582780366
0.016,0.3139258468880044,5910.697545634586
0.02,-0.13651802253586484,5901.945216980786
0.024,-0.516240960508658,5901.225099934304
0.028,-0.8405730521059742,5899.250505269364
0.032,-1.111028804240882,5901.2142351129805
0.036,-1.3078128892193224,5896.237092644784
0.04,-1.3935017236849985,5908.213421325629
0.044,-1.3266220147556207,5904.188918273667
0.048,-1.080133345144224,5907.165931059639
0.052,-0.6586284570354441,5906.852899769297
0.056,-0.10781465065083291,5903.696854078645
0.06,0.48914521071866796,5894.8791043985
0.064,1.029748838052609,5909.366506451331
0.068,1.419309240549141,5900.219711066363
0.072,1.5964985466484876,5907.934389466876
0.076,1.547120722352479,5899.028837300694
0.08,1.3019549178275718,5907.915081308599
0.084,0.9217677275489128,5913.414529265332
0.088,0.477159143185994,5903.898596215694
0.092,0.03150143396173914,5901.816226222626
0.096,-0.36775096531667206,5901.8333593002135
0.1,-0.6890433641966663,5909.440043277998
0.104,-0.9116224833019005,5889.501628406421
0.108,-1.0200232965296845,5904.296265473463
0.112,-1.0017533441203668,5903.866327549186
0.116,-0.8499536554481395,5905.5989881913565
0.12,-0.5701194070030414,5900.979282885155
0.124,-0.18697062157930988,5899.438606134622
0.128,0.25343980188137494,5899.673319219986
0.132,0.6890710753375403,5899.749162702014
0.136,1.053747276610811,5897.48143111832
0.14,1.2920086139415004,5902.215377500282
0.144,1.372303916124547,5897.72354945835
0.148,1.2937658949831756,5903.24503468053
0.152,1.0837217812565059,5896.9621435795325
0.156,0.7872501646855591,5892.925563454617
0.16,0.45389843975851724,5901.228237062429
0.164,0.12712980566740723,5903.404769516187
0.168,-0.1608205421320295,5898.457288081567
0.172,-0.3895420915193475,5906.826549979328
0.176,-0.5490821244937432,5907.2327398113175
0.18,-0.6387244803739537,5899.001032387021
0.184,-0.6665511782076227,5904.136367994011
0.188,-0.6491822896364509,5896.77481045527
0.192,-0.6105450317070549,5891.82690697685
0.196,-0.5786738878767416,5894.905259045407
0.2,-0.5802775155498596,5906.400284765838
0.204,-0.6338678129115226,5905.173026015097
0.208,-0.7434164569473694,5901.529190226594
0.212,-0.8954354851312992,5896.027407016748
0.216,-1.0619224022682243,5904.1688415304025
0.22,-1.208937734572083,5907.098898309124
0.224,-1.3072725416815116,5893.927708961829
0.228,-1.3406439136583412,5904.699805718655
0.232,-1.3088821332387368,5901.50673596329
0.236,-1.2263006251517334,5896.152514663594
0.24,-1.1165631688017443,5895.645425990662
0.244,-1.0053906215322874,5897.299951767456
0.248,-0.9130274678708084,5902.889010968443
0.252,-0.8490783648813983,5901.110662812832
0.256,-0.8113943095441616,5899.202873997846
0.26,-0.7883210674583575,5899.536695606547
0.264,-0.7620369246226933,5901.7401931629
0.268,-0.7114375993454265,5899.18347983691
0.272,-0.6152279319812768,5902.560137084933
0.276,-0.4569830712282983,5894.346473472832
0.28,-0.23220350315902893,5898.303951708343
0.284,0.04561984831750793,5907.42013589724
0.288,0.34367146728674536,5903.568840419035
0.292,0.614643493342898,5901.552608451297
0.296,0.80658407800083,5904.575727861663
0.3,0.875579825466791,5899.335084467544
0.304,0.7985032418997363,5892.530412225666
0.308,0.5820886000227127,5902.92657257156
0.312,0.26455197008761305,5909.007243458558
0.316,-0.09184043543617926,5901.612668642698
0.32,-0.4152509720169935,5900.967498251623
0.324,-0.6411688976626124,5894.700248054907
0.328,-0.7268728361808263,5893.766747875858
0.332,-0.6599851086053699,5901.727953375986
0.336,-0.45942276467656584,5904.78759838858
0.34,-0.1691360182898863,5909.0055782164345
0.344,0.1527530965223385,5903.175175604467
0.348,0.44574016616286954,5903.454970666882
0.352,0.6568851761786256,5899.26673279645
0.356,0.7479950374820283,5893.864230383084
0.36,0.7003554487838052,5897.987373602288
0.364,0.5172997736215719,5899.885815725274
0.368,0.2240905875097375,5908.760424398989
0.372,-0.1358134878549242,5907.682876589733
0.376,-0.5082570577054096,5900.955976891589
0.38,-0.8383497424630323,5891.9044902876485
0.384,-1.0804252228030142,5899.761428007956
0.388,-1.2053766543461495,5894.798830133816
0.392,-1.203951734438814,5901.222283885658
0.396,-1.0862707524225166,5888.121405330952
0.4,-0.878344950222057,5900.548847277882
0.404,-0.6159306888816432,5903.348708597987
0.408,-0.33645544968523405,5896.746877340171
0.412,-0.07105658242077427,5903.126580939204
0.416,0.1607251706039566,5903.230398626801
0.42,0.3519072402888583,5895.955456325865
0.424,0.5044812820652891,5900.383844811307
0.428,0.622894952939306,5898.495236546771
0.432,0.707840101230759,5898.511065976717
0.436,0.7536689110074057,5902.195693430536
0.44,0.750655988273314,5897.428363392745
0.444,0.6902589357703363,5892.785004271189
0.448,0.5697390630794549,5895.822162772925
0.452,0.39358515257324306,5896.315584091199
0.456,0.17229410818551985,5900.5751967030665
0.46,-0.07895947850206433,5903.780041222406
0.464,-0.3404440045363326,5897.535463375441
0.468,-0.5881938367512977,5891.187161200234
0.472,-0.796847364038301,5904.301194899804
0.476,-0.9451920792428672,5889.232735325238
0.48,-1.0215996673314889,5899.61624912564
0.484,-1.0257702420227872,5910.114742029716
0.488,-0.9654621203467337,5904.412960419589
0.492,-0.8500590859506931,5906.93975474504
0.496,-0.6847021001585807,5901.048280203977
0.5,-0.4686552231298851,5889.884601347062
0.504,-0.19967986981940355,5900.269805534501
0.508,0.11714077186536571,5902.216382553088
0.512,0.46092296151793055,5906.0103448837845
0.516,0.7923457792221026,5895.770728063705
0.52,1.0594574033932442,5894.348039539032
0.524,1.2100717952482625,5896.893346939843
0.528,1.2060162878437983,5902.791838010947
0.532,1.034183262484835,5896.613119410512
0.536,0.7108209049537724,5899.971184971686
0.54,0.2781345134837367,5893.633395007556
0.544,-0.20477879010704395,5900.755887385357
0.548,-0.6730340171074396,5900.772431845594
0.552,-1.0660379622525127,5894.5617822584
0.556,-1.3351481103961422,5899.317121938391
0.56,-1.448791106872961,5901.75910386419
0.5640000000000001,-1.3954201764279703,5902.228626144351
0.5680000000000001,-1.1848087530679752,5896.884921778169
0.5720000000000001,-0.8478597056495509,5898.598495923539
0.5760000000000001,-0.43394625121316877,5898.032209515044
0.58,-0.0037443858392405727,5905.1272796287085
0.584,0.3831819713880239,5897.222280471912
0.588,0.6828877378798663,5900.764913947089
0.592,0.8774499467965454,5898.266067993852
0.596,0.9762266575861862,5903.198692975708
0.6,1.0073793109183542,5900.144216483127
0.604,1.003314424797016,5895.128896100597
0.608,0.9857165073856593,5898.971363744259
0.612,0.9557728268192561,5899.3514785330135
0.616,0.8936508532519694,5903.142924561564
0.62,0.7683416707178288,5905.007652887076
0.624,0.5548445353698687,5897.477941999452
0.628,0.25196797689944245,5902.15176803834
0.632,-0.10710711937359577,5902.305989666715
0.636,-0.45727516163430826,5891.323645093454
0.64,-0.718091894662911,5896.709958994152
0.644,-0.8196301312823954,5896.63559833565
0.648,-0.727866915713919,5896.643579045228
0.652,-0.4592043070368826,5903.387641178046
0.656,-0.0782120273329934,5889.550702387802
0.66,0.32018373821725565,5903.691557738408
0.664,0.6370842489626165,5905.903476213056
0.668,0.7956527876178291,5902.637702314939
0.672,0.7593193899264362,5901.8690073789285
0.676,0.5377416044999234,5907.107151884904
0.68,0.1797349617898212,5896.717047945988
0.684,-0.24376382656905227,5905.735975317065
0.6880000000000001,-0.6605616914091554,5907.581025925721
0.6920000000000001,-1.015052668763701,5897.996928387594
0.6960000000000001,-1.2781443225329339,5913.113635602032
0.7000000000000001,-1.4476491558407012,5897.809059919117
0.704,-1.5407845009335674,5902.661807728529
0.708,-1.582714861135453,5906.301199589635
0.712,-1.5954099793692846,5897.163617097981
0.716,-1.5895629944461973,5897.208034311794
0.72,-1.560626112814062,5892.945485105121
0.724,-1.4894769964208494,5895.968211755486
0.728,-1.348167002240485,5900.897973330024
0.732,-1.1103633397786714,5901.253228283046
0.736,-0.764208494268492,5902.33055677957
0.74,-0.32319927568987744,5903.980072301082
0.744,0.16998240337504708,5900.16369342407
0.748,0.6495775533911006,5893.10221194817
0.752,1.041475190643963,5901.542748252551
0.756,1.2816233143936036,5893.2489774975065
0.76,1.3320325691867323,5906.871242284027
0.764,1.1896349684391705,5899.491400856717
0.768,0.8863427448250378,5901.249315914472
0.772,0.4817205454342661,5896.89150010804
0.776,0.050545348467946345,5895.059495445204
0.78,-0.333327956844671,5902.28956188631
0.784,-0.6145962265047544,5900.479973028287
0.788,-0.7703184065810381,5898.102214013604
0.792,-0.8133960480702893,5916.715069270178
0.796,-0.7832076806038334,5891.203694694224
0.8,-0.727452710037601,5897.4511118894125
0.804,-0.6833603681866989,5898.6208785435465
0.808,-0.6659263203927693,5898.324165488976
0.812,-0.6668255054160482,5896.635161491824
0.8160000000000001,-0.6624888178430604,5901.656086833873
0.8200000000000001,-0.6263126014822071,5896.670718693915
0.8240000000000001,-0.5397241189805605,5905.619888687495
0.8280000000000001,-0.398996261841714,5898.875325602038
0.8320000000000001,-0.2171445774785456,5896.887422719998
0.836,-0.02156406935430294,5902.233875860392
0.84,0.1517115333686399,5895.359000277119
0.844,0.2663563256307864,5894.699721838311
0.848,0.2956591025270888,5902.676212550102
0.852,0.2319137242670287,5900.269404258964
0.856,0.09181427667340336,5898.2459717741685
0.86,-0.08589122013937499,5896.14058165803
0.864,-0.2519156907470522,5894.405733307735
0.868,-0.3642478584240485,5902.833721169601
0.872,-0.4056599819272983,5900.258402540036
0.876,-0.39319493393485533,5899.8467562527685
0.88,-0.37399927104079,5900.127273225993
0.884,-0.40705546110582663,5902.989451466638
0.888,-0.5373365574714114,5898.776196999502
0.892,-0.7737452772102612,5897.823637218108
0.896,-1.0809737279490905,5898.443087551268
0.9,-1.3886305641727268,5898.729345497215
0.904,-1.613255948274275,5905.687069620603
0.908,-1.6844784018757724,5904.9900207754245
0.912,-1.5666273274319533,5897.412717615104
0.916,-1.2699587272497812,5891.100497961909
0.92,-0.8491925008452719,5895.6954982772
0.924,-0.3903455929887074,5889.700406171593
0.928,0.01040223859090732,5902.812008515552
0.932,0.2703010590618088,5907.332419489491
0.936,0.34003113016480885,5907.2813043156775
0.94,0.2146781203337341,5905.68080639959
0.944,-0.0676950670646205,5891.660610367296
0.948,-0.43955497939409,5896.435066459744
0.952,-0.8248004033251038,5903.906292972264
0.956,-1.1593140541654279,5900.733446867755
0.96,-1.403468970431726,5898.798711879992
0.964,-1.5428108043612032,5908.940384111675
0.968,-1.5792201894155493,5895.1812743600085
0.972,-1.5192406915112688,5894.380882875732
0.976,-1.3664055286371952,5902.039558614469
0.98,-1.1212872204716533,5899.485830818409
0.984,-0.7887996307284318,5898.648554749024
0.988,-0.388385411209741,5906.698948179696
0.992,0.03932871907568704,5902.1163256617065
0.996,0.43451456952736695,5906.233089063491
1.0,0.7296891233004169,5905.076747977492
1.004,0.8671480890240483,5902.890495009621
1.008,0.8158188889390633,5905.679507705017
1.012,0.5810116905871872,5907.281942611117
1.016,0.20323170695058593,5892.46733305398
1.02,-0.2532685247865981,5900.153927731847
1.024,-0.7172031963000387,5894.159596708221
1.028,-1.1253171237787483,5903.164877846302
1.032,-1.4304212060869959,5898.305411127194
1.036,-1.601334569140697,5906.4009767246325
1.04,-1.6182078401394846,5891.783191760051
1.044,-1.4686252568119418,5903.63199835397
1.048,-1.1485236700132078,5907.178716056122
1.052,-0.6687481705725112,5899.917593097804
1.056,-0.0645093633598441,5892.446016039585
1.06,0.5977583247470274,5894.851208975323
1.064,1.2223012262343877,5897.580852041456
1.068,1.6983219610116618,5904.666631188123
1.072,1.9248073201003684,5908.4473401258965
1.076,1.8384576559751484,5901.908918760112
1.08,1.4349058144301834,5893.403113369713
1.084,0.7753029741997541,5898.432443838003
1.088,-0.02526538404635674,5902.5642906864
1.092,-0.8254997557050927,5905.0934793620445
1.096,-1.4936706414566276,5894.959247478215
1.1,-1.9395808644741752,5895.043724028158
1.104,-2.1322802383373523,5898.778762124314
1.108,-2.0991100718957254,5892.5950401971695
1.112,-1.9084533681602909,5899.324671043209
1.116,-1.6434079132676054,5900.746092036818
1.12,-1.3754903135398624,5894.147258694672
1.124,-1.146055967455897,5892.763913720561
1.128,-0.9594591043698462,5907.539672976166
1.132,-0.7883033642766871,5909.782148971348
1.136,-0.5883544496539445,5906.468068836152
1.14,-0.3184080002365128,5898.972168776857
1.144,0.041168014733573816,5899.451259855695
1.148,0.47745558287362694,5892.609754279213
1.152,0.9454016735022616,5891.916663029437
1.156,1.3791188794154094,5903.937367779539
1.16,1.7095425677470248,5901.5414655491295
1.164,1.8823988679130543,5906.358253801327
1.168,1.87149027622763,5892.207472752636
1.172,1.6845819680960779,5898.173330594594
1.176,1.3614734875785623,5896.930378355515
1.18,0.9654609252423715,5897.58310199584
1.184,0.5701046748491151,5907.878885213501
1.188,0.24350195769935742,5899.43211655411
1.192,0.032994444329597084,5901.828613823404
1.196,-0.0457630184371741,5902.268884006375
1.2,-0.01182961913929717,5898.850150801083
1.204,0.08695599637974336,5900.113960911396
1.208,0.18703577982029798,5892.468738913671
1.212,0.22593539224552664,5893.016640423975
1.216,0.15895989054043894,5899.449872985288
1.22,-0.028273035217578738,5898.299820874929
1.224,-0.31507946566544764,5897.118123494467
1.228,-0.6505093831592125,5904.001778426332
1.232,-0.9664540332511969,5900.707104905907
1.236,-1.194880410225709,5904.783603192419
1.24,-1.2837902519257618,5897.198101246162
1.244,-1.2078212120627068,5902.36371698633
1.248,-0.9721434686564426,5897.906330871911
1.252,-0.610385760989642,5899.124741438509
1.256,-0.17813501501551393,5900.860760813818
1.26,0.25619759818422855,5898.492693895003
1.264,0.6215592524753334,5894.944231442591
1.268,0.8547933057021988,5900.214056549675
1.272,0.9114143609089165,5896.778439966845
1.276,0.7755446722173673,5896.590266822917
1.28,0.46626728527173583,5897.1417101582765
1.284,0.03720471218567558,5903.516064739918
1.288,-0.43254735675345074,5897.508186507751
1.292,-0.8554172408732418,5900.228067986763
1.296,-1.1562743710542007,5899.904103862136
1.3,-1.290850495722374,5890.811864483248
1.304,-1.2558355118154083,5899.885042839028
1.308,-1.0881559492988795,5896.754536754611
1.312,-0.854465434961071,5902.859088721062
1.316,-0.6339515514091008,5908.407268014395
1.32,-0.4986977734412106,5905.583591397728
1.324,-0.4966243667407155,5906.546332828637
1.328,-0.6417908875760131,5900.984648609987
1.332,-0.9147139711387025,5891.327982251843
1.336,-1.271787232123299,5898.338096149559
1.34,-1.6595985998963756,5891.325927901684
1.344,-2.0285804747048783,5900.342407585708
1.348,-2.341509223308729,5896.641323863451
1.352,-2.5751757377545013,5901.218837682618
1.356,-2.71667908243483,5894.704909760207
1.36,-2.7577999357290706,5903.24745855138
1.364,-2.6910163545883443,5904.181688843089
1.368,-2.5093392817833173,5900.109793257613
1.372,-2.2102154954461155,5900.554423238324
1.376,-1.8018218150389471,5895.726099831505
1.38,-1.3087035398757711,5895.978174614559
1.384,-0.7737765318264148,5900.686844005344
1.388,-0.2552741434920518,5898.754519811174
1.392,0.1810606699135267,5906.637051210038
1.396,0.4735403464239371,5898.006064220153
1.4,0.5786207173949878,5901.542772787559
1.404,0.48503622604947627,5908.109862567625
1.408,0.22326686956770386,5912.835197422369
1.412,-0.1354131691519677,5899.142534572077
1.416,-0.49356067746137844,5897.464845243372
1.42,-0.7533266706416708,5896.081827472795
1.424,-0.8449801495814718,5898.933859613021
1.428,-0.7476442563192266,5903.571353263136
1.432,-0.49444219993527483,5903.162347744789
1.436,-0.16025357017282246,5902.86268803951
1.44,0.16339534006810005,5893.591260079136
1.444,0.39750503995719166,5908.756297079943
1.448,0.49870116781908863,5899.685333674132
1.452,0.46800158044592094,5907.768279841213
1.456,0.3423629899399964,5897.633878912086
1.46,0.1734623852597575,5900.58061467069
1.464,0.003579621314202568,5897.1055866947045
1.468,-0.15106407829388557,5896.815839484499
1.472,-0.3030848718769057,5905.66260700914
1.476,-0.48240337526345817,5892.177909230329
1.48,-0.7159120432096059,5906.284177843256
1.484,-1.0076713462417795,5897.9588195236365
1.488,-1.3287585536153406,5901.328838537707
1.492,-1.62152249584321,5889.271110855167
1.496,-1.8167516356571787,5902.469852642566
1.5,-1.8570719478624849,5902.974653989412
1.504,-1.717371778381005,5899.25461175846
1.508,-1.4139719615749873,5898.381854517238
1.512,-0.9990319736177902,5894.789431250017
1.516,-0.5435867568304821,5899.686269108723
1.52,-0.11754000459309823,5899.286311541674
1.524,0.2251908914784558,5904.554170020292
1.528,0.45272419976587935,5896.794836245286
1.532,0.5541805177986703,5902.652709682986
1.536,0.5358337401129352,5898.372501020311
1.54,0.41746751840086066,5900.235053211435
1.544,0.22923288599870273,5901.845306791433
1.548,0.007978073940278997,5910.6171395239935
1.552,-0.20739920293745082,5897.251285178499
1.556,-0.3811427468441197,5892.325658823302
1.56,-0.48584010367658964,5898.426799953502
1.564,-0.5071725629830334,5897.085872281818
1.568,-0.4471423039544601,5905.9663452924415
1.572,-0.32392153800577556,5896.2592614655305
1.576,-0.16688580877079767,5896.098172571726
1.58,-0.007624797902846151,5902.265145325115
1.584,0.12950654877057888,5903.926490254057
1.588,0.23286257218651338,5899.733988704384
1.592,0.302709955669101,5898.806646077076
1.596,0.345325193942876,5893.798874543997
1.6,0.3654480349363078,5908.54083475229
1.604,0.3610442909058211,5894.871389173113
1.608,0.3234874256982786,5899.895240032002
1.612,0.24384755000301508,5890.682633131793
1.616,0.12229029917002024,5900.478411615267
1.62,-0.02501566671568472,5899.738104592682
1.624,-0.16632970796039145,5897.880976872394
1.628,-0.26323287516430455,5896.940378249845
1.632,-0.28475910609098165,5908.094006789316
1.636,-0.22072122504328887,5897.6362067999935
1.64,-0.08812852160923432,5896.77811169011
1.644,0.07247026610885478,5901.4773379611615
1.648,0.20924045461077617,5895.892226097176
1.652,0.2746804678482929,5911.385132266355
1.656,0.2385713642315259,5903.463634546513
1.66,0.09441919859554243,5907.599157394338
1.664,-0.14089862684321275,5892.702569579703
1.668,-0.4319953262295527,5892.986010627197
1.672,-0.7318720116718879,5905.951314631491
1.676,-0.9896477730725384,5898.924963993924
1.68,-1.1586346800031375,5900.402396353997
1.684,-1.2039602180579516,5892.502264856305
1.688,-1.1085358022082497,5900.949638103516
1.692,-0.8762337950833735,5896.288739387947
1.696,-0.5315715317514524,5909.146635840862
1.7,-0.1157603425681158,5899.135622864558
1.704,0.3204975824465166,5902.204370663475
1.708,0.7263790968458218,5895.323531519036
1.712,1.0602222125083265,5903.907202936242
1.716,1.2955832901190016,5898.731426845219
1.72,1.4219694780280216,5892.927606806743
1.724,1.4411212978031818,5898.913321651315
1.728,1.3620446473020678,5894.441915877958
1.732,1.1976612656716439,5904.757475715772
1.736,0.9640057392455419,5905.012861277241
1.74,0.6812757038653655,5900.3792021599065
1.744,0.37521951771380163,5908.939947131528
1.748,0.07720637378004089,5902.822943461333
1.752,-0.17804739251672663,5892.690034972274
1.756,-0.35708187051977724,5900.226125863797
1.76,-0.4337834016857962,5902.569779282031
1.764,-0.3957286925804504,5896.369006839835
1.768,-0.24948815648726397,5896.832219521316
1.772,-0.023426252916115605,5899.266957885226
1.776,0.233934341190396,5904.355636937346
1.78,0.4616152555000502,5899.262436489665
1.784,0.5993398221761189,5894.651638462863
1.788,0.6025486548963803,5890.84612768043
1.792,0.4543888755692261,5899.879588797147
1.796,0.17077989583686998,5900.1301341946855
1.8,-0.2029339038430458,5902.530650426902
1.804,-0.6020173949224747,5903.383298690816
1.808,-0.9547634077891569,5905.300035872884
1.812,-1.1933452189456055,5900.581511694019
1.816,-1.262460798652797,5904.086158226558
