时间(s),电压(V),幅值(高频80K)
0.0,-2.1830627945008745,5893.024729018528
0.004,-1.7458674612750509,5898.886567587896
0.008,-1.3399488535358726,5897.907880774465
0.012,-0.9891489911535041,5897.432597988738
0.016,-0.6998250469413293,5899.211598017159
0.02,-0.4627955140783793,5895.643633990963
0.024,-0.26023648795015025,5906.405809029206
0.028,-0.07424069538671912,5899.721862416927
0.032,0.10470214293537769,5908.383089366968
0.036,0.27068674599241455,5903.676379299041
0.04,0.4000712618529309,5898.393978108205
0.044,0.4578834876384394,5897.235101623156
0.048,0.4133916840902561,5901.822627762276
0.052,0.2588478692891431,5895.466691633519
0.056,0.02161486749837618,5901.598362910637
0.06,-0.23777402175626797,5894.719749323482
0.064,-0.4424516385897451,5903.798262237004
0.068,-0.5252010688973253,5900.309724548863
0.072,-0.45385923870300615,5900.1101193352215
0.076,-0.2456383795249343,5907.412797599518
0.08,0.03690544651371817,5894.601074453576
0.084,0.3078465543291011,5904.436933216595
0.088,0.4882585524437179,5903.096786944689
0.092,0.5311524728604683,5905.430349262598
0.096,0.43152701270145083,5902.021158919886
0.1,0.22143383189925833,5902.768387891354
0.104,-0.04345061771207049,5891.882869285074
0.108,-0.2992926707461905,5904.639897934554
0.112,-0.4886379346695427,5896.655655273456
0.116,-0.5726894914609488,5888.566623068023
0.12,-0.53904067267136,5896.81400698594
0.124,-0.4026314134686024,5905.705510320279
0.128,-0.20045447406973832,5905.623803887055
0.132,0.016985726267947365,5906.134149413619
0.136,0.19510787398021218,5897.729793499081
0.14,0.2853987614659423,5909.139154515587
0.144,0.25632901209228326,5902.290307652447
0.148,0.10292247625120214,5897.338190334706
0.152,-0.14899751109873924,5899.077294111453
0.156,-0.44695658490251156,5898.575631390437
0.16,-0.7241730334586968,5906.0416802756345
0.164,-0.9164998883103898,5900.254740573132
0.168,-0.9785620985536053,5895.943282307849
0.172,-0.894240372509433,5893.95181352974
0.176,-0.6793213599896539,5894.366913664686
0.18,-0.3768125256171482,5897.540284243957
0.184,-0.04619394311295037,5897.42488946413
0.188,0.25197868134737395,5905.379459137329
0.192,0.47300873680687777,5896.306093309986
0.196,0.6010844154325065,5901.93804162048
0.2,0.6527507818558879,5899.689616145841
0.204,0.6682377371960642,5908.883706621555
0.208,0.6932200396869883,5904.4434864285095
0.212,0.7584574641151323,5898.594733574292
0.216,0.8664493583959589,5901.05704119791
0.22,0.9910295030462581,5905.057552193012
0.224,1.0891998783486274,5894.809351662986
0.228,1.1187348093426277,5899.209638285695
0.232,1.053748633066948,5899.170739677475
0.236,0.8932541577967914,5895.530654099383
0.24,0.6616841112132636,5896.623634686129
0.244,0.40290751787922147,5899.079745365065
0.248,0.17000159252347086,5905.13278922283
0.252,0.01278707372694466,5903.271285697449
0.256,-0.034893254770769856,5895.419685574625
0.26,0.03467044875116212,5895.095505317262
0.264,0.19898514606655718,5903.67035994757
0.268,0.4095260697215015,5893.194923461005
0.272,0.6029527905806975,5897.068068005496
0.276,0.7154897136890848,5903.561485247724
0.28,0.6967088540710864,5893.961957115753
0.284,0.520934540870543,5905.373573169073
0.288,0.19548568770021274,5905.213144511762
0.292,-0.23626369298284722,5912.928030945553
0.296,-0.7003392946403548,5889.535519830425
0.3,-1.10777962122861,5896.015312636206
0.304,-1.3772348980262479,5911.595833463514
0.308,-1.4569144369952098,5892.72004253489
0.312,-1.3378660518685608,5897.470748672771
0.316,-1.0545740205754603,5898.785301082551
0.32,-0.6741029042454739,5893.074814338709
0.324,-0.27830403195626024,5898.661429561144
0.328,0.055755674588814134,5900.925182418479
0.332,0.27269555791825123,5897.225298484063
0.336,0.34939700983510424,5904.129676315934
0.34,0.2965443968109883,5889.543666962121
0.344,0.15048783435531735,5905.726747005105
0.348,-0.04193310500037642,5901.102429618589
0.352,-0.23997972376579146,5900.402376600086
0.356,-0.4205668117823011,5899.97659436884
0.36,-0.5802935289002916,5898.710646229235
0.364,-0.7274296135992665,5898.505870835415
0.368,-0.8677801996915611,5890.589152219814
0.372,-0.9914927623106266,5901.909559921725
0.376,-1.0679245425310193,5897.27491493673
0.38,-1.0521529906690466,5901.209216393862
0.384,-0.9013004206597083,5896.646606732164
0.388,-0.5941359815438013,5898.539769183752
0.392,-0.1452516688488623,5894.784264134877
0.396,0.39327005493213996,5893.173623057589
0.4,0.9442624211054084,5908.41270661088
0.404,1.4267754705472981,5906.483395501678
0.408,1.7774051276010898,5899.602747290986
0.412,1.9641021254915778,5897.025915901029
0.416,1.989305929892487,5903.3092220666185
0.42,1.8835518161129878,5894.425058009944
0.424,1.69329712304547,5895.853342520646
0.428,1.4674724106284345,5896.328142229375
0.432,1.2465149184691677,5892.798302295566
0.436,1.0560243603434085,5902.230107238202
0.44,0.9054407343227978,5898.870849888933
0.444,0.7907817580779745,5912.37966502712
0.448,0.699788703076985,5904.315506164517
0.452,0.6177384090548103,5900.958880705286
0.456,0.5323176666800032,5890.994683609421
0.46,0.436370977999658,5903.283126582307
0.464,0.3282589942092235,5896.727643562032
0.468,0.21057143661772298,5894.705705907097
0.472,0.08843228253074126,5905.556335035643
0.476,-0.031388598907323824,5901.707132581997
0.48,-0.139891929904829,5906.244988824302
0.484,-0.2244188749575775,5900.711742079397
0.488,-0.26839146333024694,5901.192450980644
0.492,-0.2541668524648212,5895.342162547056
0.496,-0.16889878810747785,5897.364869305016
0.5,-0.011085626329966798,5906.748659247787
0.504,0.20483542101879187,5904.588887126669
0.508,0.44727170899895535,5896.829168012364
0.512,0.6701617274289348,5907.402943829638
0.516,0.820130845023928,5890.008948680761
0.52,0.8483994078247572,5895.687268876034
0.524,0.7256441476329157,5902.12339976977
0.528,0.45471155844629363,5911.989423461972
0.532,0.07452443233405602,5901.4123373275215
0.536,-0.34878181069809655,5893.681315438722
0.54,-0.7413664622929026,5906.192152350933
0.544,-1.0439683098747825,5899.002796629627
0.548,-1.2273095473616884,5905.286100055099
0.552,-1.2941523408979765,5896.971910916035
0.556,-1.2680684415947627,5900.793079231227
0.56,-1.175588743204434,5892.176216359443
0.5640000000000001,-1.031369450570895,5908.9953041778335
0.5680000000000001,-0.8333759707698186,5906.237984039674
0.5720000000000001,-0.5689151591538957,5897.121003296889
0.5760000000000001,-0.2271391144734021,5893.406522832556
0.58,0.18810542849636483,5894.7799326718505
0.584,0.6502022715901653,5894.701081569752
0.588,1.1093969842834965,5906.816638523912
0.592,1.500812068110714,5900.765517484605
0.596,1.7596644225731217,5898.595091073002
0.6,1.8403689195324822,5899.814330856003
0.604,1.7334085210800694,5898.041361793778
0.608,1.472474655110728,5900.276908374148
0.612,1.1271531688757954,5894.143715669566
0.616,0.7827694470526964,5894.123781725391
0.62,0.5152275084017626,5892.78593737518
0.624,0.37112351182391934,5904.326647978013
0.628,0.3604357340112486,5901.571804180226
0.632,0.4622317055346178,5899.935061234644
0.636,0.6375543525523432,5899.711233444585
0.64,0.8419108538949578,5907.07838712016
0.644,1.032743466524529,5895.23846686161
0.648,1.1719043126106057,5904.112861280846
0.652,1.226274936621195,5904.198675944354
0.656,1.1698837858031157,5895.067840455073
0.66,0.9888423419642479,5893.219882587351
0.664,0.6878554810958101,5899.463283505837
0.668,0.2953156414302743,5910.032987539345
0.672,-0.13661882253946314,5893.908701164765
0.676,-0.5397877113363196,5903.4398045363405
0.68,-0.8455383479958632,5903.132213743732
0.684,-1.0034412920687552,5898.792471624786
0.6880000000000001,-0.9958639384590955,5906.573122611488
0.6920000000000001,-0.8424918757465509,5895.106960499671
0.6960000000000001,-0.5935339323850201,5899.143745727207
0.7000000000000001,-0.3149841914203477,5903.04059325094
0.704,-0.07169586535444468,5899.875119258417
0.708,0.08642484412729827,5896.556215267445
0.712,0.13226713187076103,5905.236293757821
0.716,0.06316456162128281,5898.226798696326
0.72,-0.10239105804643743,5893.6080779359945
0.724,-0.33089753688400547,5897.874012160835
0.728,-0.5805066917973135,5903.2621567051765
0.732,-0.8067298988105884,5911.040960525561
0.736,-0.9673058302639078,5903.423840210502
0.74,-1.0273604506089924,5899.8211657941965
0.744,-0.9657249624419934,5893.5671027863855
0.748,-0.7818097158536499,5894.53327872624
0.752,-0.5005601389539811,5898.717251565942
0.756,-0.17222407741231224,5893.348993068657
0.76,0.13521494971341544,5904.993100660475
0.764,0.3504882765859939,5899.14087400943
0.768,0.41690477661630565,5894.157568679253
0.772,0.3081091427701557,5903.684969799423
0.776,0.0365213455619259,5907.944939626093
0.78,-0.34817822271420384,5895.325209444372
0.784,-0.7700225475200617,5896.471155506249
0.788,-1.1443782033204424,5900.383527619403
0.792,-1.3977018390665927,5900.74548982614
0.796,-1.483831888559097,5906.327785591488
0.8,-1.3921071699836622,5898.630925083674
0.804,-1.1458769077619049,5895.675112053053
0.808,-0.7933990499561762,5900.703817804429
0.812,-0.39458532273254554,5905.8807578719325
0.8160000000000001,-0.006900916563258384,5899.049663443737
0.8200000000000001,0.32673294963531385,5900.94363794809
0.8240000000000001,0.5856196773493504,5897.710569220613
0.8280000000000001,0.7727501251933573,5902.09882526575
0.8320000000000001,0.9091501421605986,5899.219365584963
0.836,1.021825534120572,5894.07304500484
0.84,1.1285937719222874,5891.10361153171
0.844,1.2254194471978344,5895.999105255618
0.848,1.281870496122476,5900.13266626962
0.852,1.2474317098944392,5902.345890362766
0.856,1.0673278921055722,5893.429364015922
0.86,0.7032187050039228,5902.897920578369
0.864,0.15230637844961498,5895.598081921435
0.868,-0.5418650499631195,5894.385707268449
0.872,-1.291683918141191,5898.768056081743
0.876,-1.981291949891096,5906.352950970203
0.88,-2.491701815908195,5902.229428613842
0.884,-2.728320258099045,5905.885578829397
0.888,-2.644092563230841,5902.356225225208
0.892,-2.2530734141529796,5900.619073335497
0.896,-1.6310102916096538,5899.601006061216
0.9,-0.9015893656856655,5891.57661652842
0.904,-0.21010556982999043,5895.027030205339
0.908,0.30984522489061084,5892.330063923439
0.912,0.5680655276357938,5897.442745216324
0.916,0.5386637437113027,5894.667290324644
0.92,0.2634816786197855,5897.90379060358
0.924,-0.1635244106794945,5892.656175001039
0.928,-0.6262711832165788,5897.030701586271
0.932,-1.0208674338107855,5894.772237743041
0.936,-1.2822550888607092,5910.065017584794
0.94,-1.3946206483348915,5897.693399953885
0.944,-1.3846198135175098,5894.1403520262365
0.948,-1.3032775411830373,5896.549324277034
0.952,-1.204704079400719,5902.259218944579
0.956,-1.1282623604718354,5903.0544049147065
0.96,-1.0882895775022015,5900.167240357194
0.964,-1.0731333129649858,5892.158749501728
0.968,-1.0528771663586771,5908.070832518863
0.972,-0.9927245144270562,5903.996962728922
0.976,-0.8673744355984353,5892.26544735316
0.98,-0.6715711523282778,5899.861159546791
0.984,-0.42316431002878147,5909.615371265514
0.988,-0.15722162160601436,5903.378241240613
0.992,0.08674186206640089,5905.559985746369
0.996,0.27867236057195593,5899.627525831639
1.0,0.40662566751108353,5907.687942715103
1.004,0.4771962627676047,5899.463450597557
1.008,0.5090401022822798,5899.97605951549
1.012,0.5229082561137167,5893.004781724208
1.016,0.5322630135374871,5900.383956268571
1.02,0.5388481447020458,5889.891058442371
1.024,0.5360338911277286,5897.085567374772
1.028,0.5183701045324236,5898.500671851904
1.032,0.4914471535549898,5891.6782089643975
1.036,0.47582595556182994,5905.79647166006
1.04,0.5025015086773464,5893.553856338303
1.044,0.6017296001394611,5902.831388814886
1.048,0.789654946095616,5908.516935506498
1.052,1.0579956885809196,5899.158127694934
1.056,1.3712829277149172,5892.688431960786
1.06,1.6734770233173288,5900.671104867586
1.064,1.9019272650019898,5898.133279083496
1.068,2.003779681617267,5896.089441524229
1.072,1.9495519654815343,5891.448908880065
1.076,1.7402558943667918,5898.137922786755
1.08,1.4067769957271923,5892.889797217984
1.084,1.002256117169202,5896.479899108411
1.088,0.5899217142560783,5903.906301376365
1.092,0.23019962754169437,5902.80293717324
1.096,-0.029044635191186757,5903.027217627637
1.1,-0.1574382010494123,5907.061928749812
1.104,-0.1434794837161772,5900.019006630008
1.108,0.005122906268782471,5913.975355550312
1.112,0.2608878547712562,5898.2489993900135
1.116,0.5769299857347417,5900.912945420062
1.12,0.8910897376220965,5889.474361975392
1.124,1.1360249380255312,5902.430722431453
1.128,1.2542852700697373,5897.4887764847535
1.132,1.213551118005896,5896.2825931209945
1.136,1.0155470402028768,5897.914365992517
1.14,0.6942454750184207,5894.177816115127
1.144,0.3040589337473676,5895.514066279968
1.148,-0.09639217031328326,5894.584096161039
1.152,-0.4582458788197754,5911.8993033990055
1.156,-0.7505085612325243,5900.760217905442
1.16,-0.9625290370760742,5891.420002708571
1.164,-1.1023304739061393,5891.2630163240365
1.168,-1.1914621400482026,5899.123803225709
1.172,-1.2566481488703058,5903.00412820247
1.176,-1.3197181688287936,5894.885309243213
1.18,-1.3888708402057217,5900.368880146569
1.184,-1.4544980679032564,5887.642902500228
1.188,-1.4913035824757748,5908.739446393744
1.192,-1.4664224350037522,5909.88137370072
1.196,-1.35160118083781,5903.511956767259
1.2,-1.1360693850182075,5902.368260114205
1.204,-0.8355668149218225,5892.461979385844
1.208,-0.4933208538776231,5899.939029886007
1.212,-0.17144160077811493,5895.454058113533
1.216,0.06505576590450729,5906.261328032106
1.22,0.16677205140369855,5900.733231862339
1.224,0.11537339307549123,5898.581561769234
1.228,-0.0691064882698555,5894.912719746809
1.232,-0.3321730122961353,5896.701938984409
1.236,-0.5994287370619724,5904.105190426873
1.24,-0.7975061627520799,5895.377883802236
1.244,-0.8749932482510354,5901.745904084712
1.248,-0.8167896895062702,5899.629808778492
1.252,-0.6471216844892836,5889.348344862915
1.256,-0.42023532897037025,5901.107189347333
1.26,-0.20225039523910324,5905.061594913379
1.264,-0.05067385485199024,5898.810089535256
1.268,0.0015790678884185147,5900.95200632083
1.272,-0.04681127426245732,5898.040015823909
1.276,-0.16806495414512498,5898.689694073622
1.28,-0.31470601283037997,5895.904993666618
1.284,-0.4326088079000749,5899.890331871021
1.288,-0.47504723206869515,5906.167192969368
1.292,-0.4150366748870248,5903.765766104498
1.296,-0.2528921033809865,5900.181851468593
1.3,-0.016956982636805975,5904.945409904194
1.304,0.24238323308871354,5896.142558868911
1.308,0.46370861130419433,5900.773669250495
1.312,0.5883178512211341,5899.47000671103
1.316,0.5740900141167101,5890.463423681047
1.32,0.40651602167947554,5896.701389292335
1.324,0.10429512849602919,5897.068070700104
1.328,-0.2820375593969526,5892.107191886957
1.332,-0.6788509074310366,5904.57500691661
1.336,-1.0049835231186428,5892.776614743439
1.34,-1.1919967103654234,5905.691757447393
1.344,-1.2042605352942495,5892.815131613941
1.348,-1.0517890705306512,5891.00099361411
1.352,-0.7895727422065559,5899.103907550176
1.356,-0.5017805178603304,5894.496474641764
1.36,-0.2754000680765129,5892.002739200514
1.364,-0.17232676801873223,5897.3167829236445
1.368,-0.20969712941500873,5907.278387866314
1.372,-0.35546232641683434,5900.936179367123
1.376,-0.5408841353592015,5896.614180304484
1.38,-0.6854104087565347,5898.53837342227
1.384,-0.7246641484433974,5897.879780148539
1.388,-0.6314464892378513,5895.855793219023
1.392,-0.4229472370364533,5895.828710700735
1.396,-0.15260679158235815,5911.026628052068
1.4,0.10992522342048659,5889.9166983792165
1.404,0.3035071846760096,5896.823533644543
1.408,0.3958517421341798,5900.645033117477
1.412,0.39166381286923546,5903.599086906535
1.416,0.3255040579474411,5893.893359605808
1.42,0.24331496958281598,5885.697910643345
1.424,0.1821481646110922,5902.98188001586
1.428,0.15810148783092126,5896.595192014519
1.432,0.16730480449895693,5890.584643837501
1.436,0.19718366279928368,5900.502970864537
1.44,0.23972104052887994,5903.76076885045
1.444,0.29829669674591214,5902.50981587667
1.448,0.3849004863314494,5905.55671776249
1.452,0.5112463240212248,5905.689762947563
1.456,0.6804743057686414,5903.1587602439095
1.46,0.8839106014985896,5903.411205978583
1.464,1.1028455773860144,5900.6416369401295
1.468,1.3127459036734475,5904.229859481113
1.472,1.4876597533201292,5894.456636739349
1.476,1.6039219678015961,5901.875277797024
1.48,1.6432433114279297,5894.3688695620285
1.484,1.5955483818241238,5898.25742913725
1.488,1.4613279015094307,5906.141631504646
1.492,1.2524428139330481,5898.525555138263
1.496,0.9905352474568907,5900.444027884267
1.5,0.7033992173505423,5901.455725809596
1.504,0.42046821987819727,5903.241882453503
1.508,0.16845585941499813,5899.453696512877
1.512,-0.032073344357792,5894.453690165738
1.516,-0.16835109010986724,5899.516045512724
1.52,-0.23468049185653744,5894.288232109318
1.524,-0.22993355143256297,5890.805609360318
1.528,-0.1551429386085078,5897.0920006394745
1.532,-0.012958797389062646,5899.732816674796
1.536,0.19084911099483104,5902.083395968208
1.54,0.4452244859756508,5900.676332600422
1.544,0.7327312217112535,5900.271418976309
1.548,1.030653296731923,5903.160063142776
1.552,1.3143114003832077,5907.6193596390185
1.556,1.5612550287369336,5898.596356328195
1.56,1.754085605414816,5892.484828079216
1.564,1.88022584560786,5899.79461048415
1.568,1.9287948766626333,5894.78888397705
1.572,1.8865939604434347,5895.112978508646
1.576,1.7362226832364809,5894.061441289971
1.58,1.459164314213241,5898.29300010665
1.584,1.0445942489344209,5902.925142072782
1.588,0.5010174710954659,5905.862903810908
1.592,-0.13480682735908409,5891.243497264263
1.596,-0.7964680108144984,5893.809029938147
1.6,-1.3955067275060737,5896.592621887469
1.604,-1.8364804152162868,5900.125012025484
1.608,-2.0366488298869907,5901.380494413679
1.612,-1.946504600208805,5892.348506542785
1.616,-1.5659558179358204,5908.103694221617
1.62,-0.9505027960442001,5905.082318355392
1.624,-0.2037336520356685,5890.213857318943
1.628,0.5434253708333798,5903.769686980471
1.632,1.1617619760447353,5907.0445230436535
1.636,1.5533603095965118,5903.423900059965
1.64,1.6737407443497776,5898.558820738149
1.644,1.5404197136336715,5897.400294681261
1.648,1.2249878116467887,5904.038189031759
1.652,0.830322237514012,5897.043029407385
1.656,0.45945389462208513,5890.201495279282
1.66,0.1858418167093812,5901.98543636035
1.664,0.03459204873807979,5893.090411976828
1.668,-0.019629355853139085,5887.294405221529
1.672,-0.03805663594445636,5896.073718525888
1.676,-0.09234266315797329,5896.848813077459
1.68,-0.2373788374788743,5903.999316973928
1.684,-0.4920236777495408,5899.194282695605
1.688,-0.8340480187456273,5899.218990950688
1.692,-1.2096297113242505,5906.194524838913
1.696,-1.5520431911320043,5897.798884940864
1.7,-1.8016412088640426,5895.171297339741
1.704,-1.9202450263427786,5896.6662876535465
1.708,-1.8964943415569262,5899.733209297273
1.712,-1.7430612279229905,5891.7776063835445
1.716,-1.4896297522508555,5893.942243954502
1.72,-1.1754022033320686,5896.068416935729
1.724,-0.8425483235288841,5890.979197190304
1.728,-0.53005948721728,5894.627721657709
1.732,-0.26751255767951915,5894.890274143302
1.736,-0.06984958992755526,5894.275545085657
1.74,0.06466779753768823,5890.487737025624
1.744,0.15231787374391578,5894.650817607927
1.748,0.21885060781912163,5891.547914247852
1.752,0.2936834832211875,5900.737760088641
1.756,0.4045809078741237,5896.282972157428
1.76,0.5727419780308807,5901.169442974723
1.764,0.8080091490061377,5888.619302886407
1.768,1.1047373283537498,5901.395066866506
1.772,1.4396852953628274,5895.777172080049
1.776,1.7731402428121152,5896.551962832269
1.78,2.053508147261409,5897.104312068003
1.784,2.224859173952669,5901.928879502775
1.788,2.2367614811169747,5904.987847077138
1.792,2.0552597278456983,5895.288703795274
1.796,1.672609992484399,5892.612846684367
1.8,1.1125466730463194,5893.5744383088295
1.804,0.4287728339792016,5897.437022779761
1.808,-0.30317991336143596,5898.352515599346
1.812,-0.9980494615158245,5898.752307202172
1.816,-1.5731379579830376,5895.538472671516
1.82,-1.9581610196790922,5894.149228004315
