时间(s),电压(V),幅值(高频80K)
0.0,2.235945225692576,5896.212533138794
0.004,1.525342851020736,5896.643613487857
0.008,0.8502027314534318,5902.783576358609
0.012,0.25017068786118485,5897.108092812491
0.016,-0.2403546501423205,5893.048156032282
0.02,-0.595001933877899,5894.288335278493
0.024,-0.7982536785113972,5898.877570827972
0.028,-0.8483250029596461,5902.003416179989
0.032,-0.7598480899875898,5896.966024031766
0.036,-0.5650250948026102,5903.088272815441
0.04,-0.3112145465875762,5894.261803736995
0.044,-0.053964597434476055,5899.800880365118
0.048,0.1532225764272698,5898.707685047221
0.052,0.2693301523267057,5903.788323767876
0.056,0.2733488918833968,5898.44277868891
0.06,0.16729214170166712,5901.114952150996
0.064,-0.025259510639766804,5896.321450458534
0.068,-0.2645712906502846,5896.303240543593
0.072,-0.5035011183764486,5902.915422620985
0.076,-0.6977454590683067,5895.081007418666
0.08,-0.814419645721952,5896.1671497582
0.084,-0.8367090150661017,5891.785728670579
0.088,-0.7649140726125907,5899.566952078544
0.092,-0.6154580377253999,5897.848511149783
0.096,-0.4183202762269709,5913.332727939634
0.1,-0.21197629067251636,5905.996090958151
0.104,-0.035552589926309254,5902.70022412278
0.108,0.07949184602266968,5898.845411938747
0.112,0.11405083025344466,5904.203770096196
0.116,0.06033904609238422,5901.96532633685
0.12,-0.08199591502017874,5900.5844677619125
0.124,-0.30713400764693805,5896.4332971724125
0.128,-0.5996206903044783,5900.118840268056
0.132,-0.9300354396694543,5898.853973676271
0.136,-1.2552861149539343,5901.27935898415
0.14,-1.5250855575691136,5897.947939860203
0.144,-1.6919322315072687,5891.0113399859965
0.148,-1.7212128617789118,5891.434887104725
0.152,-1.5990648224602062,5905.495824678638
0.156,-1.335816697320271,5898.505046213772
0.16,-0.9632523794807274,5903.932446728574
0.164,-0.5262558163482285,5894.742950908465
0.168,-0.07209573289345717,5898.977355597196
0.172,0.35858770889634917,5898.047771752605
0.176,0.736346370256462,5898.386790002756
0.18,1.0427817032547229,5896.439953630789
0.184,1.2677915760273595,5911.545182785873
0.188,1.4068050851003902,5906.615682144567
0.192,1.4589432865697223,5911.664144884245
0.196,1.4253842937206391,5896.109814107815
0.2,1.307754381087676,5907.142583464818
0.204,1.10826815676355,5890.732046886796
0.208,0.8335708161554884,5900.138501560788
0.212,0.5016552061571106,5901.226037476493
0.216,0.14809078248588084,5894.000353859975
0.22,-0.17317583211741067,5900.683568290884
0.224,-0.3973804196485175,5893.47501606445
0.228,-0.4641985122522056,5902.409634086262
0.232,-0.33616971742639445,5903.513505855686
0.236,-0.01335855247310115,5903.458766363035
0.24,0.4619584059017406,5895.067127313246
0.244,1.012701494842337,5901.089966718993
0.248,1.5433470120077903,5894.672070443822
0.252,1.9588485275413596,5903.186461700437
0.256,2.180253085513199,5902.639343400649
0.26,2.154701219314381,5895.279307010743
0.264,1.86122378746758,5907.276129585222
0.268,1.3145400412253734,5901.268757692455
0.272,0.5668414219587704,5906.037642451281
0.276,-0.29462738478332035,5903.488696779512
0.28,-1.1563617765153358,5900.809697137925
0.284,-1.8943525859194472,5903.569538793182
0.288,-2.395300416550014,5888.672030355729
0.292,-2.57951554973201,5898.145576035787
0.296,-2.419917365797475,5901.835455515453
0.3,-1.9511586550929856,5898.421716621727
0.304,-1.264652660778733,5903.228760232487
0.308,-0.48936679116677784,5892.596327430867
0.312,0.23669739121911976,5896.980138191622
0.316,0.796220217592771,5895.995390145903
0.32,1.1155493071483715,5900.904115323555
0.324,1.1754452226430925,5905.54450932646
0.328,1.007283846062468,5899.731612392338
0.332,0.6764598097606065,5900.487382806165
0.336,0.259235889833451,5902.100314853473
0.34,-0.17819784713801,5903.258306849806
0.344,-0.591458039082335,5897.016703237675
0.348,-0.9588146279504279,5899.323286061806
0.352,-1.2747744565930803,5904.064297408835
0.356,-1.541830703065433,5891.938599087301
0.36,-1.7636965943446141,5901.160950714719
0.364,-1.9403688598315,5904.548164159333
0.368,-2.0646360566078275,5888.34787535092
0.372,-2.120897233968366,5901.434461283398
0.376,-2.087985624144882,5905.006281894071
0.38,-1.9468079446836541,5906.477442599962
0.384,-1.6912856616960095,5898.535209043474
0.388,-1.3383046423763691,5893.401119560676
0.392,-0.9310398077420662,5905.969405948881
0.396,-0.5320473984647747,5909.168186069671
0.4,-0.20740295435298753,5895.062490911868
0.404,-0.007731708116602655,5899.310388505142
0.408,0.04657911807916948,5908.274774061148
0.412,-0.029483582403979778,5905.462211588286
0.416,-0.19200821005248123,5906.23235148906
0.42,-0.3840293118404909,5902.887882132256
0.424,-0.5547595010543275,5900.354199149404
0.428,-0.6742102343765656,5894.560151505142
0.432,-0.7373214683948979,5905.379247742705
0.436,-0.7572763026135737,5900.3521247058125
0.44,-0.753218861655187,5893.474351828003
0.444,-0.739688558439069,5898.437149856434
0.448,-0.722917690992297,5904.334926280138
0.452,-0.7044748278997988,5911.531481754383
0.456,-0.6883857241609589,5899.740316985443
0.46,-0.6860966430940247,5900.510819261219
0.464,-0.7151196468938961,5905.685653507555
0.468,-0.7908493825610665,5898.909058120705
0.472,-0.9149408785737844,5903.942824348106
0.476,-1.0660853482820383,5910.213260261226
0.48,-1.198867983820406,5898.89362320995
0.484,-1.2531717835710425,5890.86705783559
0.488,-1.171598916492014,5901.358378885033
0.492,-0.9185831702066403,5901.69176701269
0.496,-0.4941952811045305,5893.296422096453
0.5,0.06225102924126432,5910.8215773325865
0.504,0.679852225388949,5909.343755293578
0.508,1.2718590008282735,5901.311921290775
0.512,1.7538128627450316,5900.224521920324
0.516,2.058972962543238,5897.453112240187
0.52,2.1487207621731574,5908.827518887801
0.524,2.017971135630032,5908.554306373235
0.528,1.6957954081879616,5893.644019908924
0.532,1.2406620750106512,5905.082367363485
0.536,0.7302954016032721,5895.237340650743
0.54,0.24799714431408848,5909.4368472088
0.544,-0.13196623525843548,5899.842867497775
0.548,-0.358048229248678,5902.556727959806
0.552,-0.4123633644845654,5894.368103937821
0.556,-0.31566478865017766,5901.501172270563
0.56,-0.12275860377178117,5897.289416407972
0.5640000000000001,0.09235161250411922,5897.128255002488
0.5680000000000001,0.25755655812033257,5899.216131815742
0.5720000000000001,0.32287937389226273,5899.0034183345015
0.5760000000000001,0.27314604642015033,5891.245321468176
0.58,0.12933265163564414,5894.924650289589
0.584,-0.06116056760645733,5907.854855987077
0.588,-0.24131816269072948,5902.454422501924
0.592,-0.3623618802971523,5892.8958248270255
0.596,-0.39714127874711574,5891.493200798856
0.6,-0.34597876495811414,5895.0313798224215
0.604,-0.2346396066435369,5890.674482731596
0.608,-0.10620614748417562,5907.590863937719
0.612,-0.009662453697961282,5899.759672382681
0.616,0.01233091622612912,5905.037004981847
0.62,-0.06500718467235854,5903.020525586973
0.624,-0.23924397991467228,5902.180821244501
0.628,-0.47682921020609204,5900.019418005168
0.632,-0.718654891342284,5893.547957551644
0.636,-0.8963156651269679,5903.453956283548
0.64,-0.9547444820818459,5901.701886227561
0.644,-0.872726389658541,5902.721590765843
0.648,-0.6731043737561194,5896.919624449557
0.652,-0.4185957700907752,5908.020662135452
0.656,-0.19419936178110003,5898.730441357221
0.66,-0.08118405379539048,5901.831196412186
0.664,-0.13024070753616537,5903.598483372061
0.668,-0.3423765897980864,5894.731520649232
0.672,-0.6645118344899598,5891.218668394696
0.676,-1.0019500284483813,5900.319213011447
0.68,-1.2437797248844886,5908.416979832604
0.684,-1.2931662119246163,5902.66467295553
0.6880000000000001,-1.09401413765842,5891.797254005543
0.6920000000000001,-0.6473108175785883,5895.003447574821
0.6960000000000001,-0.013026650638205678,5900.287852705291
0.7000000000000001,0.703112732582737,5906.663946477494
0.704,1.37440145112005,5895.260391386867
0.708,1.882640741661462,5895.70950806656
0.712,2.1447465458723856,5904.343951170729
0.716,2.1299485030208998,5906.418937245922
0.72,1.8632781523248512,5897.726177431656
0.724,1.4151302457544124,5894.523860537161
0.728,0.8816497019409764,5904.813684652704
0.732,0.3629788414471651,5891.274374272951
0.736,-0.055462003303606545,5905.53992585166
0.74,-0.3165056037212712,5898.629977389717
0.744,-0.3984574680368955,5896.645328292254
0.748,-0.31459878105853284,5903.285724621239
0.752,-0.10475931725301132,5898.535700175313
0.756,0.17807638688732944,5897.935896695503
0.76,0.4808367651774804,5909.4213188527965
0.764,0.7588557865895901,5896.621039964557
0.768,0.979137247020247,5901.418079660584
0.772,1.1208661585366821,5899.768908434106
0.776,1.1758715185966255,5896.668950435664
0.78,1.149260897220282,5899.979987701036
0.784,1.0582902409725865,5909.2192134003935
0.788,0.9284437735715859,5898.558898471409
0.792,0.7883471673733258,5898.064590754865
0.796,0.6657528480881381,5912.157326867613
0.8,0.5846481430173665,5894.228904624349
0.804,0.5617056555967317,5905.782470945269
0.808,0.6013404950588095,5898.992280877765
0.812,0.6914045721685228,5901.732969850158
0.8160000000000001,0.8029575557795795,5900.470499257096
0.8200000000000001,0.8960587019003023,5896.953426639803
0.8240000000000001,0.9303854827035021,5904.47648095021
0.8280000000000001,0.8770711139967473,5905.181208673412
0.8320000000000001,0.7276815443623879,5903.105424532609
0.836,0.49733364232737554,5901.685698058695
0.84,0.22080236589504462,5910.858284589801
0.844,-0.05723456069067145,5904.504436537087
0.848,-0.29451437289910143,5897.849148889403
0.852,-0.46201885938094484,5895.020539823861
0.856,-0.5503518378869601,5888.415757217602
0.86,-0.570739964789928,5897.454324333627
0.864,-0.5515765494375535,5906.747520520964
0.868,-0.5320506395401833,5889.978933092921
0.872,-0.5536026588399551,5895.822203544243
0.876,-0.6493975037066358,5899.956179978708
0.88,-0.8333916319985747,5899.613546013851
0.884,-1.0926509717167574,5899.898470184404
0.888,-1.3866504202031777,5895.116702893724
0.892,-1.6550739637047274,5896.161987623836
0.896,-1.8329322613307446,5902.62134566076
0.9,-1.8693495818344732,5899.464841750025
0.904,-1.7442483237835609,5890.280343011564
0.908,-1.4768070263458846,5898.519927340234
0.912,-1.1219324163476323,5908.091526587215
0.916,-0.7547506838408703,5906.329633557775
0.92,-0.4468853012941639,5901.325624835751
0.924,-0.24183284462864157,5897.038750422214
0.928,-0.13888139391419316,5901.654778748122
0.932,-0.09317626703177476,5899.590067408907
0.936,-0.03315250259908075,5894.032581297555
0.94,0.11117864757120095,5909.188798833007
0.944,0.3802946547236393,5898.232560547644
0.948,0.7681587723620583,5902.32167985412
0.952,1.2217364216813256,5904.649964815283
0.956,1.6563310241028344,5899.105048517483
0.96,1.9810454835322213,5902.196746915576
0.964,2.1257320618766555,5898.899175725988
0.968,2.060301259305566,5895.120791777476
0.972,1.8001392740013866,5898.223131516887
0.976,1.397179630786561,5905.316836995947
0.98,0.9219319095571059,5900.657650144741
0.984,0.4443795293250735,5910.119554922383
0.988,0.020422691981938298,5900.1453910961645
0.992,-0.31319898650083094,5906.416586028308
0.996,-0.536780417969771,5904.5150240934645
1.0,-0.6423237378470811,5899.504211504714
1.004,-0.6294126286396055,5904.294962745427
1.008,-0.5050711542684089,5902.812322055509
1.012,-0.28733030037721324,5903.433267981828
1.016,-0.00911422960085285,5898.400367593809
1.02,0.2819425139559399,5901.758848099256
1.024,0.5302954497403892,5897.903813670064
1.028,0.685059742699189,5898.96631657537
1.032,0.7141446991290543,5909.372533051015
1.036,0.6139489268428088,5891.96047642603
1.04,0.4099850902358328,5902.869087075954
1.044,0.14829892732705655,5907.5600782042575
1.048,-0.11777263835685059,5893.957900708524
1.052,-0.33943589668597,5907.52048480209
1.056,-0.47895835494439676,5898.644445628769
1.06,-0.5108288102869557,5897.847499125934
1.064,-0.42067764892524095,5908.754723688881
1.068,-0.20562668679971707,5906.131951925253
1.072,0.12268131075515765,5900.113676900632
1.076,0.5346497690509797,5893.387600202715
1.08,0.9831402637373953,5899.82018773066
1.084,1.4106903513286608,5903.153790626431
1.088,1.7622463817946974,5900.362914478249
1.092,1.9979276983567174,5901.934249576291
1.096,2.1000242653139067,5909.88930073324
1.1,2.07235438208213,5907.616870513416
1.104,1.9344407926835483,5902.39455816061
1.108,1.7142110095783774,5895.6823813407245
1.112,1.4415521455816265,5896.969929594777
1.116,1.143534667146085,5897.8570348132425
1.12,0.8413834927118775,5891.725569623395
1.124,0.5488851335452717,5899.633955610567
1.128,0.27200815412984414,5907.849113291842
1.132,0.010110876293786451,5905.997822199029
1.136,-0.24082422003965642,5901.812369685303
1.14,-0.48345026141263686,5892.831538911733
1.144,-0.714270313950572,5896.370884000095
1.148,-0.9203419699687575,5898.272441457467
1.152,-1.0788024103810432,5900.768830965519
1.156,-1.1605754302455644,5898.38043331486
1.16,-1.1388068087267396,5907.846890461394
1.164,-0.9998874007380716,5908.555625872994
1.168,-0.7520587542621162,5894.509933472144
1.172,-0.4267264537622143,5896.828152277534
1.176,-0.07142061871215609,5899.544992842042
1.18,0.26204913450562367,5895.222282419377
1.184,0.5288150546926735,5904.981491502127
1.188,0.6977972904234125,5898.439886427511
1.192,0.7535984873548373,5895.775851060706
1.196,0.6951861728330485,5895.073771369677
1.2,0.5337314976283878,5898.918947337868
1.204,0.2911151750678543,5898.076748298002
1.208,-0.0011501528662903214,5899.755742568281
1.212,-0.3042334957593329,5889.611946227445
1.216,-0.5768633424218701,5890.818697337711
1.22,-0.7822988594681217,5893.8082513634845
1.224,-0.895526868244063,5901.920348095858
1.228,-0.9088673300110576,5892.857264398178
1.232,-0.8346828054161879,5903.545526012053
1.236,-0.703922083524074,5903.70439425782
1.24,-0.559650628166212,5898.936098165389
1.244,-0.4465617405362891,5900.664195728656
1.248,-0.39960570810472856,5896.653726996945
1.252,-0.4351630917705667,5904.857796698863
1.256,-0.5465637149002843,5907.928728134666
1.26,-0.7044170936931674,5898.297695209284
1.264,-0.8622222491793442,5893.718090164603
1.268,-0.9673104079094963,5899.839639729856
1.272,-0.9748845830649807,5903.104264752468
1.276,-0.8604488615740579,5907.6317863079485
1.28,-0.6258897166941708,5898.063223285017
1.284,-0.2971505783784868,5899.511206133708
1.288,0.08478449447861006,5895.284605715721
1.292,0.47492567300773064,5895.833584502615
1.296,0.8323762348728215,5883.672251522171
1.3,1.1234610421607072,5907.220739874167
1.304,1.3217624408699966,5897.074725509691
1.308,1.4085878292607308,5901.207815079981
1.312,1.3756800182891449,5904.083805823318
1.316,1.2287447119961679,5903.183081395854
1.32,0.988508073812371,5908.192421652172
1.324,0.6871115661969132,5903.690599197923
1.328,0.3607655395979118,5903.830247494399
1.332,0.04220884276328169,5901.315988865457
1.336,-0.24336622268409788,5897.2040172811
1.34,-0.4777882145287545,5905.89839137493
1.344,-0.6468103285679538,5902.547500588356
1.348,-0.7377976483398129,5908.182934693924
1.352,-0.7405486884596778,5904.889573949955
1.356,-0.6516184723383847,5893.280261365558
1.36,-0.48041424330634946,5901.865330966297
1.364,-0.25350603181589837,5891.557191476103
1.368,-0.013364975867265195,5900.88160193621
1.372,0.18976778190886162,5898.018004051886
1.376,0.310247817106864,5890.765707925619
1.38,0.31860953878376413,5904.318022026594
1.384,0.20822491514170416,5900.220877695757
1.388,-0.0041586124665564505,5898.558664109451
1.392,-0.2827842178227194,5896.190320560039
1.396,-0.5803396799419464,5893.994954564849
1.4,-0.8472343772354615,5896.90750745533
1.404,-1.0417146762763292,5902.928429405334
1.408,-1.139095356726807,5904.526429598345
1.412,-1.137499671188066,5906.935102467487
1.416,-1.0580818422744047,5900.691099032527
1.42,-0.9397576885715719,5900.968194571434
1.424,-0.8301890409245158,5901.2222114802125
1.428,-0.7751468665958826,5908.0553382009175
1.432,-0.8081985986762974,5908.946496702957
1.436,-0.9425311412751628,5902.584963203827
1.44,-1.166239372005382,5896.655790350776
1.444,-1.4417375212543435,5897.058797219076
1.448,-1.7099795677935667,5896.634293921412
1.452,-1.9006440949239238,5897.077655119475
1.456,-1.9485440407298387,5896.456198195809
1.46,-1.813237318174142,5908.219974890366
1.464,-1.4949608971045953,5907.527202130165
1.468,-1.0391215514499692,5903.435476642858
1.472,-0.5255014134603593,5907.505832777939
1.476,-0.04518744898015419,5897.690122716482
1.48,0.3262472710705117,5899.222583462399
1.484,0.5496229281210534,5899.168632116345
1.488,0.6302802152828763,5899.149008617823
1.492,0.6114228187264354,5893.82995630781
1.496,0.5557000515920604,5904.976114391674
1.5,0.5222822006615039,5908.57712227662
1.504,0.5485843862853492,5890.876315595453
1.508,0.6437535491130277,5906.124976859748
1.512,0.7950272758140485,5897.6704632281735
1.516,0.9812131391575731,5893.7551879049015
1.52,1.1843919298911616,5895.801181321021
1.524,1.393393057505063,5906.966980973477
1.528,1.5983929518119036,5892.796661790735
1.532,1.781569167742299,5896.677466455516
1.536,1.9114690082512003,5896.484072267821
1.54,1.9469609991937444,5894.726837163456
1.544,1.8507282399352345,5905.488608106805
1.548,1.6060469017122037,5892.424131450715
1.552,1.228577676668261,5902.028914721681
1.556,0.7678324996523459,5904.361443794334
1.56,0.2978716250868191,5909.831878430219
1.564,-0.09939338270312352,5898.833603212554
1.568,-0.35322212576914624,5898.335047008708
1.572,-0.4204258636869795,5900.865987812422
1.576,-0.2951935356590219,5898.01101514639
1.58,-0.009869771239211424,5899.496274951779
1.584,0.3738469716502764,5904.449636029725
1.588,0.7811018376426218,5904.187569062528
1.592,1.1426480211647596,5904.245467498862
1.596,1.4101215464518198,5897.578255134
1.6,1.5626603301517477,5898.025159020863
1.604,1.602830320330512,5900.117969719448
1.608,1.5446103330866043,5901.553318265578
1.612,1.4002771304180248,5896.311264813853
1.616,1.173349495998374,5892.491577063024
1.62,0.860907771325869,5909.625889734915
1.624,0.4635492941138069,5892.392134874142
1.628,-0.002067410541811834,5900.3071643160565
1.632,-0.4940103345293263,5896.422316233132
1.636,-0.9441133540292558,5895.659167943769
1.64,-1.2676747024045958,5895.5352543581685
1.644,-1.3825383908503828,5902.79738536312
1.648,-1.2324731399911866,5906.407968394169
1.652,-0.8074406918179772,5902.383568658591
1.656,-0.1536918307203929,5896.773999255881
1.66,0.6303507130270795,5900.08818814546
1.664,1.411919355628708,5909.3722316249805
1.668,2.0508582898868615,5899.182323116335
1.672,2.4293791572853976,5905.231133215832
1.676,2.4787317236790534,5916.472338677775
1.68,2.197404249943194,5900.083477298173
1.684,1.6552855640752162,5907.945547167057
1.688,0.9798424017759046,5894.355502188968
1.692,0.32574573043242133,5902.250127733737
1.696,-0.16372932129450135,5903.161265931509
1.7,-0.39131788386568606,5901.136751895051
1.704,-0.32591044772199856,5893.7076966918
1.708,-0.003915880758875495,5894.2973316335765
1.712,0.485739065666847,5899.0729053371
1.716,1.0265962347500364,5909.180650538498
1.72,1.5024897906949835,5909.25225275044
1.724,1.8220557674178042,5895.770387344422
1.728,1.935380655275135,5894.947515174075
1.732,1.839970480020295,5903.975024249954
1.736,1.5751197305065887,5899.640453441391
1.74,1.2063537308235006,5901.607388816267
1.744,0.8048531042917093,5902.968726772589
1.748,0.42892575782595344,5900.814151885673
1.752,0.113583687050316,5899.933653455527
1.756,-0.12977306049932438,5903.468110020965
1.76,-0.30616297263013836,5901.298308056213
1.764,-0.427533170121763,5905.318231399422
1.768,-0.5058538775376352,5905.0919260451865
1.772,-0.5508921230964429,5901.377034991733
1.776,-0.5711843330424053,5899.377699449664
1.78,-0.5746933767093362,5901.939648649573
1.784,-0.5666168105609972,5897.438921453355
1.788,-0.544987809546903,5902.268155279285
1.792,-0.49735869587601633,5894.76720823125
1.796,-0.4017249900795646,5903.646591571584
1.8,-0.23231208774222556,5894.946548313002
1.804,0.031682070599712044,5900.96970701921
1.808,0.3970535980902555,5903.756782177602
1.812,0.8492976999081049,5907.061409156637
1.816,1.3486490242925306,5912.193812882131
1.82,1.8316586113356015,5894.777341477863
