时间(s),电压(V),幅值(高频80K)
0.0,0.17815180833190114,5891.451181113502
0.004,-0.04799748776256197,5907.25157267861
0.008,-0.292963316453814,5899.892759553096
0.012,-0.5568058191803832,5912.881791638173
0.016,-0.8232558405086237,5904.777709817465
0.02,-1.0681132305090784,5901.631466043885
0.024,-1.271015925135324,5892.464624344316
0.028,-1.421890495504819,5898.29565857082
0.032,-1.518733358239442,5907.136137129606
0.036,-1.5601727736302664,5904.945242365992
0.04,-1.5395530318999264,5902.258027155236
0.044,-1.4457090959466936,5899.173703246799
0.048,-1.2709425562512218,5893.54109651716
0.052,-1.0218068233699884,5898.354760801191
0.056,-0.7257676754151119,5894.690271801144
0.06,-0.4283955362899194,5905.952711285293
0.064,-0.18107140685385997,5898.52073253742
0.068,-0.024802197807644245,5896.619435364895
0.072,0.022443807037330732,5897.612403513413
0.076,-0.02987537210890947,5896.160895941672
0.08,-0.1493554355909479,5909.328857641507
0.084,-0.2916742987017052,5904.686512521697
0.088,-0.4146044839216753,5900.31856180108
0.092,-0.49103161094733494,5902.733643915961
0.096,-0.5168502128468561,5895.852812301179
0.1,-0.5103623600165411,5898.708712899654
0.104,-0.5028840828431199,5907.883343752541
0.108,-0.5249731268591626,5895.534469911837
0.112,-0.5950135028219753,5894.993884163035
0.116,-0.7140662327645769,5896.792163069335
0.12,-0.8659682687998365,5904.861838840962
0.124,-1.0200789149411964,5909.615952355913
0.128,-1.1365846079105821,5904.469362762592
0.132,-1.1763230914207452,5898.776391044984
0.136,-1.1148308640032871,5908.15724961138
0.14,-0.9552984068364827,5894.5877732216495
0.144,-0.7327985141731199,5902.299768491441
0.148,-0.5058566803786534,5902.396992726239
0.152,-0.3383219038209754,5901.553077646191
0.156,-0.2788692727901098,5894.805433478706
0.16,-0.3451396252060242,5905.544992865134
0.164,-0.516922749208019,5906.174736847198
0.168,-0.7405199813212469,5904.614933783614
0.172,-0.9441697182432522,5906.68026253169
0.176,-1.060784095667705,5900.249826942518
0.18,-1.050232783448895,5896.3781030131495
0.184,-0.9124153926912564,5896.684634889701
0.188,-0.6860844462879833,5901.426197234393
0.192,-0.4344570677721473,5901.671409897064
0.196,-0.22351689916750556,5905.437697909843
0.2,-0.10090481060409114,5904.282256967958
0.204,-0.08233665057137333,5890.163689937486
0.208,-0.14924490232270873,5899.420392036818
0.212,-0.2572573927821648,5883.210699192024
0.216,-0.3516377045822285,5898.805913267514
0.22,-0.3839932520740591,5895.108426231088
0.224,-0.3252562519080031,5902.61412511909
0.228,-0.1726657525105763,5898.992823499548
0.232,0.049090360170913026,5899.321128603545
0.236,0.29218643584814225,5891.664128557955
0.24,0.4960361048938468,5901.089540655069
0.244,0.6034784898781447,5901.701163370846
0.248,0.5787682378492229,5891.429480800831
0.252,0.4201891189150565,5907.345006602033
0.256,0.16139199089954007,5901.595705170518
0.26,-0.13932384398824127,5891.415440701123
0.264,-0.4174830727551522,5898.493406924097
0.268,-0.6221740260210439,5902.77858542808
0.272,-0.7313061348977109,5904.34272642838
0.276,-0.7582479487955637,5892.664963043189
0.28,-0.7468066741612779,5906.975283187002
0.284,-0.7536652726318895,5892.949195909655
0.288,-0.8226524573586129,5900.767215128914
0.292,-0.9613765205485523,5899.720762095201
0.296,-1.1322002617179778,5901.302729600638
0.3,-1.2634345097447204,5905.145475368026
0.304,-1.276268755582493,5898.1532577978805
0.308,-1.1149006019867336,5904.344955769486
0.312,-0.7664253199140054,5898.977399243989
0.316,-0.2635038992664387,5905.514024813354
0.32,0.3278707764115135,5899.22617384964
0.324,0.9273016824917972,5906.265352152101
0.328,1.4578307956668335,5891.685409140314
0.332,1.858950007371065,5902.426509042523
0.336,2.094350100900043,5905.783014144432
0.34,2.155343459231712,5903.478449984655
0.344,2.0610549696963685,5894.309723756299
0.348,1.855526035859815,5902.161195271822
0.352,1.6006320883402079,5906.639341195465
0.356,1.3644523981638383,5894.0636072455
0.36,1.2075729032613909,5905.694162861363
0.364,1.1714268531384116,5904.501529525739
0.368,1.2711695340184754,5894.8638288993125
0.372,1.4929930693894116,5902.456336520265
0.376,1.795164840104947,5899.76970343866
0.38,2.1131916185352453,5907.624279297786
0.384,2.3698664935223674,5909.601994681453
0.388,2.489226831229176,5893.338054525874
0.392,2.411299325813192,5897.225866175777
0.396,2.1043342135414833,5896.788064407496
0.4,1.5727339311452468,5894.807906372032
0.404,0.859881444498239,5901.531533265868
0.408,0.0450666746423709,5900.386446420128
0.412,-0.7660469967404141,5892.598220090435
0.416,-1.4570466357669585,5895.463294413
0.42,-1.921004125265667,5899.065022112925
0.424,-2.082469198159153,5898.756161234691
0.428,-1.9165156338861766,5904.716424342531
0.432,-1.4587790741592646,5895.364265820283
0.436,-0.8013363358378489,5896.986804997074
0.44,-0.07314735749808354,5906.772116914746
0.444,0.5907211227586714,5894.308282746188
0.448,1.0820521747317386,5901.401265259495
0.452,1.3435794175580937,5906.886567557441
0.456,1.3756370484316842,5895.807601408866
0.46,1.2235353180566657,5901.285302638977
0.464,0.952073452682532,5896.9857429462645
0.468,0.6190759549002595,5907.586721888925
0.472,0.25953189562448853,5896.539966720672
0.476,-0.11421397039552718,5891.598179677918
0.48,-0.4993763204226314,5899.877637723299
0.484,-0.8859478407511208,5895.182562603538
0.488,-1.245747983683963,5898.29366014934
0.492,-1.5324969563107966,5894.958947830506
0.496,-1.6926093713919954,5907.627945696906
0.5,-1.6822630944965062,5903.649180416969
0.504,-1.4842137501355959,5906.166486416795
0.508,-1.1180360068960065,5900.744617227189
0.512,-0.6400439008520273,5898.871543436851
0.516,-0.13281418313665658,5892.72566200271
0.52,0.3130179908099932,5893.340996710509
0.524,0.6206964680108308,5896.564277861368
0.528,0.7479134639836343,5908.377218414271
0.532,0.6996939430287978,5899.523281747752
0.536,0.5278177694133219,5894.713132414748
0.54,0.3151106037527945,5898.673675905952
0.544,0.14918742971264037,5892.861844181351
0.548,0.09456822069697617,5896.59098773962
0.552,0.17222544183017285,5909.390362262018
0.556,0.35287799263867653,5892.420986002461
0.56,0.5663453888556951,5891.672076819354
0.5640000000000001,0.7242564181485016,5895.742340974105
0.5680000000000001,0.7486615070695938,5895.48243320284
0.5720000000000001,0.5972732367557947,5900.5150214738
0.5760000000000001,0.27793987962483685,5900.770931175458
0.58,-0.15126204120656547,5898.47043576905
0.584,-0.5959450684903981,5882.664115272358
0.588,-0.9493228500491055,5899.547931980647
0.592,-1.1196526885640063,5899.182435458257
0.596,-1.0544092728409826,5902.970022415402
0.6,-0.7555230089584208,5902.941524871146
0.604,-0.28154225572167646,5898.195949385722
0.608,0.2650408438080838,5896.591887232302
0.612,0.7631606736319896,5901.503568353479
0.616,1.1047401688682976,5903.1120633561495
0.62,1.2231238201488968,5900.896858265577
0.624,1.1093608385736058,5895.406813807723
0.628,0.8112883573809151,5902.285280643657
0.632,0.41677875422394123,5888.629202494997
0.636,0.028160960818257693,5898.874449448252
0.64,-0.2633803941653668,5909.20401833275
0.644,-0.39676890877743237,5903.561755708048
0.648,-0.3503623501232193,5892.360887455312
0.652,-0.14198616693369823,5903.301075616989
0.656,0.17773722308661324,5887.548364408037
0.66,0.5360215624525558,5903.928101206209
0.664,0.8513268771029187,5905.370991014971
0.668,1.049129865567481,5911.093795583977
0.672,1.078276580118424,5900.873821321265
0.676,0.9241667671986512,5896.597929237939
0.68,0.6143294715856732,5901.584130128106
0.684,0.21310597690426367,5903.424669668064
0.6880000000000001,-0.1947248615710416,5895.949738143366
0.6920000000000001,-0.5269146663722646,5899.792094279642
0.6960000000000001,-0.7252312058377022,5901.2092069145565
0.7000000000000001,-0.7679968987374532,5906.194392510947
0.704,-0.6709321321518094,5909.023069314861
0.708,-0.4786062437526635,5897.7743333665385
0.712,-0.2509865590271125,5895.507514302108
0.716,-0.048908932010680146,5899.469708722661
0.72,0.0793371985769201,5904.3779318700335
0.724,0.10895020843132473,5900.650967847461
0.728,0.0451599282760336,5894.750298287114
0.732,-0.07740281345015271,5901.998601449727
0.736,-0.2043716276636062,5903.500350561661
0.74,-0.27887349156686597,5900.493066122752
0.744,-0.2609765071532943,5903.285328331714
0.748,-0.14221217973296132,5898.263250080259
0.752,0.05055687200689366,5897.520275783759
0.756,0.26367612365911625,5893.45203088881
0.76,0.4346157492469467,5897.770819206185
0.764,0.5127166821931519,5895.672460923733
0.768,0.47527893294251894,5910.445446764485
0.772,0.33327765911818036,5904.351437527107
0.776,0.12493729593869805,5898.763464364789
0.78,-0.09971553960633057,5900.7681034373245
0.784,-0.2964304945491876,5906.434387479632
0.788,-0.438801502375299,5900.898500387568
0.792,-0.5201592822586922,5896.263451652143
0.796,-0.5463206451786318,5893.768192972627
0.8,-0.5253758039159624,5898.223998459112
0.804,-0.4614756280094106,5900.774688977975
0.808,-0.35553374135037696,5899.262650361526
0.812,-0.21053703174086585,5908.368365072911
0.8160000000000001,-0.03675696344930088,5903.31620960871
0.8200000000000001,0.146507261972769,5904.208472105244
0.8240000000000001,0.31324902593568077,5900.938523184525
0.8280000000000001,0.4363864171272176,5900.055254525171
0.8320000000000001,0.4960517966666145,5904.44193214401
0.836,0.4888698959620818,5900.936191897436
0.84,0.4339418737974799,5899.055833466274
0.844,0.3705441903178042,5899.1598312840615
0.848,0.3464393232168918,5898.021560473828
0.852,0.40154266907384456,5900.557496631759
0.856,0.5542656654637683,5898.189079050233
0.86,0.7954716128500334,5896.789506345785
0.864,1.090747265016485,5896.520990951579
0.868,1.3888735255932096,5905.277957977681
0.872,1.6331459520405236,5894.8170858849535
0.876,1.7718706743074288,5888.941361183787
0.88,1.765466698698487,5895.4915477364575
0.884,1.589987054935814,5902.559476805336
0.888,1.238831174825807,5905.0402310267
0.892,0.724755899756875,5896.515621698451
0.896,0.08297962668965214,5904.627496856779
0.9,-0.6263573633288425,5902.387322660953
0.904,-1.3203968747565633,5895.434782884871
0.908,-1.9040914683937455,5893.308685186029
0.912,-2.28895943553873,5904.007635768695
0.916,-2.4150634760383327,5891.225224677553
0.92,-2.2683737135226805,5896.172970494832
0.924,-1.8867335882106089,5902.816940434741
0.928,-1.3522372946059278,5900.131578719451
0.932,-0.7731927791017592,5904.56671139087
0.936,-0.2614979972709839,5895.0574350402485
0.94,0.08942216779944583,5894.709856668028
0.944,0.22229960936106125,5898.144864968083
0.948,0.12568024164872987,5896.448563386264
0.952,-0.16761318633920813,5894.747504362235
0.956,-0.5935854294582131,5898.854029390524
0.96,-1.0775097677328322,5906.634832430979
0.964,-1.553743747232661,5897.350141981052
0.968,-1.9768629269240392,5895.187099155632
0.972,-2.320611012893161,5896.338713012231
0.976,-2.5682907302846085,5907.149934014761
0.98,-2.7031391060500702,5903.96652189982
0.984,-2.706102763669384,5900.5005534265065
0.988,-2.5623126451563842,5895.323774242481
0.992,-2.2713464764500557,5902.302990747395
0.996,-1.8539322714356499,5897.781288432599
1.0,-1.3497826618755608,5896.278452616174
1.004,-0.8065205074762601,5900.814984939175
1.008,-0.26551476884377784,5904.247052812378
1.012,0.24694557950891285,5896.831693718174
1.016,0.7178343872178116,5899.77284944158
1.02,1.1368046392363607,5902.725060012197
1.024,1.484838791074683,5902.086598641432
1.028,1.7306923641415026,5903.043489435734
1.032,1.8385709941465125,5897.750653133245
1.036,1.7837550045868087,5896.698795113808
1.04,1.568716695291853,5895.192643258333
1.044,1.2318044411215916,5897.336593625319
1.048,0.843106016868037,5905.642152271899
1.052,0.48718035853456776,5897.962161231267
1.056,0.23849397826159482,5899.368204378662
1.06,0.13906003281375923,5896.519854420361
1.064,0.18650567943765298,5902.253991280863
1.068,0.3361331901692567,5892.956803629816
1.072,0.5157020735567331,5896.15023980254
1.076,0.6481358334651841,5903.856457017003
1.08,0.6752179324686685,5901.462683441687
1.084,0.5749068989621602,5889.444416807067
1.088,0.3667097403337458,5895.121246892166
1.092,0.10351235919993441,5902.029678085993
1.096,-0.14669470629901604,5897.667504934611
1.1,-0.3217924185708919,5906.487298739586
1.104,-0.38146835781359767,5909.005702331258
1.108,-0.31415444965338996,5897.289987255362
1.112,-0.13585965686594267,5895.695617494151
1.116,0.11604455896083911,5899.294968718871
1.12,0.39183641536876895,5904.10283250212
1.124,0.6401045455801313,5896.237598376738
1.128,0.8184865958474682,5893.595681697624
1.132,0.9017922967607193,5894.68626595108
1.136,0.8850263224444691,5903.355871213283
1.14,0.7811688339846714,5895.986991018829
1.144,0.6162572453260006,5898.486788860962
1.148,0.4246277400516748,5901.750140115565
1.152,0.24498435278904518,5898.678889173489
1.156,0.11596977544242498,5901.325715335896
1.16,0.06992235121561116,5895.755192049371
1.164,0.12481829898641249,5898.145991752795
1.168,0.2761717015549031,5904.375431027524
1.172,0.49251300791672314,5894.9043984217615
1.176,0.7182962545279725,5904.989502984501
1.18,0.8852841244493648,5896.62418643302
1.184,0.9295374131135926,5894.402467663499
1.188,0.8090733684177777,5899.386382886381
1.192,0.5170748781909132,5901.628366250744
1.196,0.08594610452505785,5895.475481198932
1.2,-0.42048341399306677,5899.887247349376
1.204,-0.9245178708762498,5900.584419575527
1.208,-1.3549232888605274,5899.693734607725
1.212,-1.662333713312841,5893.27420941492
1.216,-1.8259633792307777,5902.336143757989
1.22,-1.8525282317429974,5903.1950657052685
1.224,-1.7702904210771504,5897.34767193233
1.228,-1.6204325959978014,5900.015907242564
1.232,-1.4467266260273768,5891.8836147211305
1.236,-1.2845725869523463,5888.2115796194885
1.24,-1.1519621473548651,5909.299730984694
1.244,-1.045972084472863,5900.525432015682
1.248,-0.9471230492475092,5898.9401735421225
1.252,-0.8304767301567652,5899.386016623836
1.256,-0.6789219106602208,5894.834586641777
1.26,-0.4928560769774725,5894.742262580149
1.264,-0.2919649034216314,5905.825807120927
1.268,-0.1082929200903932,5898.998356870815
1.272,0.02624589206276578,5900.633461779413
1.276,0.09221072445911173,5901.388847764729
1.28,0.08927452898013993,5898.856270395302
1.284,0.034436829169534895,5905.047921517828
1.288,-0.04670234310044233,5908.426685250367
1.292,-0.13057335857735336,5903.412329399225
1.296,-0.20259631886735235,5894.757581010067
1.3,-0.2580905253331643,5891.842465398801
1.304,-0.2989540680384561,5899.179605730279
1.308,-0.3294277437553024,5903.202505649164
1.312,-0.3528140128482518,5901.376322034972
1.316,-0.36937307563690297,5902.048692682941
1.32,-0.37542805863869555,5899.635171747065
1.324,-0.3640825101483749,5901.784410112322
1.328,-0.3273568957264187,5896.672699153377
1.332,-0.2583116310925433,5890.513112491954
1.336,-0.15189535914404698,5893.507178498564
1.34,-0.0054094731657708985,5895.640419161097
1.344,0.17887428386488108,5908.50679285898
1.348,0.38785876633613003,5896.159999937306
1.352,0.5914559740543893,5904.927122066649
1.356,0.7422231119862581,5891.197209160282
1.36,0.7857462517585064,5899.616412461335
1.364,0.6806848057671578,5894.802954259611
1.368,0.4202387999797263,5894.990838978831
1.372,0.043924893669355335,5894.930222759922
1.376,-0.36753515690011196,5896.802668154996
1.38,-0.7132391184710789,5896.01513005271
1.384,-0.9009723667686828,5897.878083082724
1.388,-0.8734493095798309,5899.735997597079
1.392,-0.6238000283968811,5895.51439358336
1.396,-0.19715710144289741,5901.569880493513
1.4,0.3200445238883661,5901.4877850478215
1.404,0.8190937339418543,5899.71715776863
1.408,1.1920717460637664,5896.768819754905
1.412,1.3545377595241301,5907.014292898476
1.416,1.2632787962848313,5897.75177975774
1.42,0.9256269620574935,5910.806301809831
1.424,0.3989300839023074,5900.48687230096
1.428,-0.2194637905108215,5896.850697992694
1.432,-0.8103081127305336,5899.476543392441
1.436,-1.2561444162963926,5906.29550154373
1.44,-1.4663403384373443,5902.592597454272
1.444,-1.3976087104252026,5902.0534630836
1.448,-1.0640716569429327,5900.663277877797
1.452,-0.5331878176169543,5898.537987531021
1.456,0.0920894510829543,5891.995448560436
1.46,0.6998959909511262,5891.983556148398
1.464,1.1962029444260611,5898.733371632089
1.468,1.5229433447562124,5903.273353212338
1.472,1.6629530471358105,5903.517785260945
1.476,1.6336265263842344,5900.552630555454
1.48,1.4755213464505639,5899.447605525682
1.484,1.2416375006902949,5901.732202213529
1.488,0.9892794148601637,5895.348993323465
1.492,0.7731698581644854,5902.839731413014
1.496,0.6379775465821574,5901.258865034866
1.5,0.6098980137860665,5899.897310320167
1.504,0.6889684336036431,5890.487649123113
1.508,0.8454660856902344,5901.778271746873
1.512,1.0239146000673083,5896.1859509805
1.516,1.1559552856555035,5894.37906612487
1.52,1.1792623355267258,5903.861841143829
1.524,1.0562579100913998,5904.702898219395
1.528,0.7860833074575592,5893.511541119646
1.532,0.40613260524235345,5894.10204416798
1.536,-0.016784279905359106,5901.645249206236
1.54,-0.40265385949231614,5904.482724289988
1.544,-0.6769459325932237,5903.029698417452
1.548,-0.7863115178296388,5889.916071649656
1.552,-0.7074866039892993,5895.246160962042
1.556,-0.4489686452118585,5899.208366915381
1.56,-0.047632822242275226,5897.178816499976
1.564,0.4375593282193774,5903.724540622059
1.568,0.9341282451691924,5900.21424375542
1.572,1.367015845572439,5900.128499144055
1.576,1.6713836971189717,5897.1429712637255
1.58,1.8054895402992615,5904.719788063669
1.584,1.760287181851241,5898.209180424133
1.588,1.5616743782299152,5897.605871335988
1.592,1.2632352074160749,5890.128342271557
1.596,0.9312509769922592,5900.074775170042
1.6,0.6267696480917865,5908.452060653906
1.604,0.3901311773691734,5902.460847024449
1.608,0.23217596964128248,5897.529055125106
1.612,0.13416009438187154,5889.479612282527
1.616,0.055973616071121564,5904.044960365512
1.62,-0.04933784255604442,5896.35965361087
1.624,-0.21792639962940866,5905.114609421841
1.628,-0.4595036460670904,5902.067111422038
1.632,-0.7502557158721768,5892.802777101485
1.636,-1.0387427510053697,5896.132245498455
1.64,-1.263468230167833,5891.177498651473
1.644,-1.374943301216004,5901.25669600009
1.648,-1.3527802358555976,5897.715703908417
1.652,-1.2109633911876558,5896.682873751348
1.656,-0.9905557162965004,5901.310540822369
1.66,-0.7449809056309824,5905.373955376034
1.664,-0.5248767476070316,5896.873432607105
1.668,-0.36704185423907265,5905.4815831845535
1.672,-0.2885455937879678,5904.244512683645
1.676,-0.2855368753749168,5889.406298052351
1.68,-0.33653338523805415,5899.557513334217
1.684,-0.41004589936193325,5898.017767103837
1.688,-0.4748666504485961,5908.518277063086
1.692,-0.5091821367941759,5898.313487151917
1.696,-0.5046479079392182,5894.055748518937
1.7,-0.4647047978018311,5900.722816974173
1.704,-0.4000972257978336,5898.829199484459
1.708,-0.32546983557304077,5900.673209486321
1.712,-0.25861871502687084,5899.24367950111
1.716,-0.22067438429178204,5894.368490950511
1.72,-0.23374294116818642,5902.326954846783
1.724,-0.31382735905469966,5898.953606772714
1.728,-0.46089028763632633,5893.28425276965
1.732,-0.6518126469563131,5893.703846854607
1.736,-0.842008208671734,5902.423581259965
1.74,-0.9769819930370067,5900.582549098118
1.744,-1.0095411105155876,5893.152250228846
1.748,-0.9154509284884157,5892.314164472395
1.752,-0.7012237758265997,5894.778270597167
1.756,-0.40115751466087207,5908.4472029821845
1.76,-0.06489482562139179,5889.053236250678
1.764,0.2595504759618779,5900.903593884557
1.768,0.5402566039634009,5902.39428336514
1.772,0.7672340067312529,5895.927444078192
1.776,0.9478346853505127,5900.425453807643
1.78,1.0953040812347707,5899.12658939705
1.784,1.2170309786422395,5897.512707578959
1.788,1.3080437145571067,5898.102407310122
1.792,1.3515622285206281,5897.699815036958
1.796,1.3248068949522922,5902.039012715155
1.8,1.2071620578382094,5888.764089471729
1.804,0.9888308494404766,5896.3400556567
1.808,0.6786581945128612,5895.781164428156
1.812,0.30869172301262077,5897.39930833295
1.816,-0.067782568827981,5894.482844130783
1.82,-0.3863725935759339,5906.092784691617
