时间(s),电压(V),幅值(高频80K)
0.0,-1.2392566910326779,5896.436457060746
0.004,-0.9110746132774371,5903.507873653503
0.008,-0.6139752298843566,5908.580209476514
0.012,-0.3773292473724218,5898.046032322716
0.016,-0.21901962428116295,5894.268018597978
0.02,-0.14435535022194873,5898.437341788113
0.024,-0.1479961878666003,5903.577442704849
0.028,-0.21739287834229412,5898.728705985415
0.032,-0.33647740793738096,5899.50204979871
0.036,-0.48798556585350883,5900.355827305957
0.04,-0.6527651914197817,5898.885664696182
0.044,-0.8062059060991436,5905.760479686837
0.048,-0.9150518304878529,5897.093111256008
0.052,-0.9394607264702336,5902.296891100394
0.056,-0.8425762829884098,5911.064955506103
0.06,-0.6043039884011263,5895.679273337743
0.064,-0.23236468167591573,5901.29271370073
0.068,0.2346945471248439,5895.238401752934
0.072,0.7331741909963327,5903.1854561775135
0.076,1.1858594717105273,5900.059454206238
0.08,1.516215910771117,5893.605646009468
0.084,1.6619113488343427,5896.057294606607
0.088,1.5845252365965348,5900.861329319179
0.092,1.2736307276216619,5903.3429184749975
0.096,0.7464547871577911,5899.915916150747
0.1,0.04678069403962005,5902.171455883675
0.104,-0.7543112270009276,5900.479383696407
0.108,-1.558152435415357,5897.408188034544
0.112,-2.245403844698773,5901.146185529668
0.116,-2.6954227026237354,5899.400704374884
0.12,-2.8154683639934133,5894.411838750104
0.124,-2.569185663874851,5900.323699634077
0.128,-1.9921982706631551,5913.050629931683
0.132,-1.1880840334096714,5904.488769724345
0.136,-0.3059749037437155,5906.736754371815
0.14,0.49328217609851105,5898.843652612397
0.144,1.0734036232371336,5904.063265395655
0.148,1.352601972057487,5891.779193033077
0.152,1.3198917447370322,5895.286960683969
0.156,1.0335866108814453,5895.33606096896
0.16,0.6025127834309479,5894.478879462691
0.164,0.15549090452996445,5896.91161105557
0.168,-0.19182166235593737,5904.315998623244
0.172,-0.36299423309841133,5895.727319969113
0.176,-0.33291169967942735,5900.953017835538
0.18,-0.12445880962705458,5906.7050215138415
0.184,0.206092731541817,5897.665941383333
0.188,0.5879093462688089,5900.24597244256
0.192,0.9522581809240707,5896.414298974334
0.196,1.2440023907861881,5900.91321888295
0.2,1.4282816128930709,5906.294192531054
0.204,1.49382152716951,5901.590064237945
0.208,1.4532579407193913,5898.761125351074
0.212,1.3394991588594556,5903.69578615044
0.216,1.197247484538902,5897.183381253816
0.22,1.0709537341932014,5905.756725102096
0.224,0.993208197030227,5903.902135850831
0.228,0.9780504623669394,5907.758639965233
0.232,1.0210107393716175,5901.247386430437
0.236,1.1042619737974801,5891.409204656858
0.24,1.2038363363689415,5902.278093957397
0.244,1.29664778623101,5897.348738389306
0.248,1.3661072359387751,5901.258755761291
0.252,1.405058336624532,5897.137471027276
0.256,1.414703890564933,5902.324213368327
0.26,1.3998746359739336,5903.597006189563
0.264,1.3634296914153907,5895.153985870979
0.268,1.3029335906508346,5896.909164131907
0.272,1.210753505804075,5906.154394592192
0.276,1.0770118535813913,5893.977679707889
0.28,0.8945430677504669,5900.889823177483
0.284,0.664516790903822,5895.906262682449
0.288,0.40003583130467407,5904.015889024479
0.292,0.12463779245732967,5896.197123399524
0.296,-0.1353030617408171,5897.478420414122
0.3,-0.36174754809754167,5893.442228984812
0.304,-0.5545169774405897,5907.42371181341
0.308,-0.7338951276113261,5911.9291576009855
0.312,-0.9339162670866987,5898.098385845186
0.316,-1.1883688075275693,5901.020053209116
0.32,-1.5152067593222567,5898.9181343214295
0.324,-1.9059973303927646,5897.562870397311
0.328,-2.3245938219434654,5900.620283712111
0.332,-2.7148110048556156,5903.455668362528
0.336,-3.013193936760817,5899.627105314441
0.34,-3.16200592569282,5899.820054164369
0.344,-3.1194516434056503,5899.066005074272
0.348,-2.8670739694013654,5912.968382353682
0.352,-2.4153895672982832,5900.441592693519
0.356,-1.8069962749704123,5908.208850866136
0.36,-1.113905711089083,5893.88459273848
0.364,-0.4262358209202136,5904.838116047588
0.368,0.16670828604376836,5905.332479648184
0.372,0.5974275423979994,5902.173961928189
0.376,0.8358847708900515,5898.184528019529
0.38,0.8941702016544991,5906.046221892154
0.384,0.8188510532842408,5908.462566450124
0.388,0.6744076330543712,5902.6607571027125
0.392,0.5239747047218739,5895.503950827452
0.396,0.4134692416886324,5905.783036422599
0.4,0.3627811073179616,5899.270664029625
0.404,0.3646365603964684,5896.953452023934
0.408,0.3896174334424526,5892.481392611647
0.412,0.3952839516741532,5899.805182530356
0.416,0.3376891431478319,5907.073030961567
0.42,0.18351857802925428,5899.387887257328
0.424,-0.07983653780851033,5895.566879598458
0.428,-0.4395610953192627,5899.748240069506
0.432,-0.8597787642785117,5900.082985094649
0.436,-1.289393928248915,5902.580627724633
0.44,-1.6716455750510102,5897.554505110768
0.444,-1.9524913716708696,5892.629033265365
0.448,-2.08760131257733,5895.580703907912
0.452,-2.0493827951878387,5899.05385160229
0.456,-1.8342491750801433,5893.662183207349
0.46,-1.467293377043534,5905.799419604249
0.464,-1.000171221000217,5905.627150653161
0.468,-0.5005810234656256,5898.898530585594
0.472,-0.036422177267598166,5903.955686377322
0.476,0.33934278893120623,5898.454511192104
0.48,0.5979886504718327,5911.06912421344
0.484,0.7366402604668296,5887.43235457834
0.488,0.7730546534152848,5903.7480670971045
0.492,0.7357121265689619,5900.033215636205
0.496,0.652402328930876,5901.770092263055
0.5,0.5413093603013571,5897.719657111532
0.504,0.40798003459890114,5901.975832648106
0.508,0.249350758535091,5904.927327259128
0.512,0.0629216100023129,5903.972372680795
0.516,-0.14388565013639848,5897.736828450195
0.52,-0.3501302498839607,5904.658803199183
0.524,-0.5264020013200938,5895.79888270353
0.528,-0.6457572716425264,5894.3705440448375
0.532,-0.6941089295398497,5896.874556149133
0.536,-0.6747568256616862,5908.148132892216
0.54,-0.6058137743211184,5898.103648204405
0.544,-0.5125168964444954,5903.01273119965
0.548,-0.4173538018061788,5896.391747743878
0.552,-0.3309660028070883,5898.22696017086
0.556,-0.24716741037556347,5894.546498079953
0.56,-0.14519459349490493,5901.258062006756
0.5640000000000001,0.0001696214208435607,5904.9870969193735
0.5680000000000001,0.20423035664316241,5896.64988001851
0.5720000000000001,0.4604030904727019,5895.5065199913015
0.5760000000000001,0.7362241238379795,5907.146642520473
0.58,0.9787853530061565,5903.460556537325
0.584,1.1273409645436205,5902.252613549582
0.588,1.1294577813418698,5893.694399054106
0.592,0.9568359908964275,5899.642368739863
0.596,0.6167716477128886,5899.863911473743
0.6,0.1555971118421525,5892.558501494206
0.604,-0.3481815923365726,5900.922078424167
0.608,-0.8007118955530179,5896.420732209885
0.612,-1.115657987994212,5909.448939098344
0.616,-1.2362969308548688,5902.329022862585
0.62,-1.149932341177018,5907.422438393165
0.624,-0.8905601523588316,5902.263276142246
0.628,-0.5297239984377577,5894.716225751049
0.632,-0.15849394138867468,5897.359526152543
0.636,0.13517512614151164,5903.150636806757
0.64,0.28861224608238334,5892.875082627025
0.644,0.28003821027503295,5903.750376434947
0.648,0.13212008912555673,5898.620292685701
0.652,-0.09820053401617648,5897.946870494647
0.656,-0.3398571656533573,5906.062103443254
0.66,-0.5303967212981493,5911.049811644278
0.664,-0.6336907660055854,5900.241289515336
0.668,-0.6475476113677225,5898.079207889826
0.672,-0.599980973694247,5900.9004788940365
0.676,-0.5363885926660871,5909.029101383323
0.68,-0.50203867549696,5900.244348519732
0.684,-0.5252275749783241,5896.421719551002
0.6880000000000001,-0.6065731674854055,5897.917490339972
0.6920000000000001,-0.7184855634279791,5899.584562690066
0.6960000000000001,-0.8153798839304479,5907.283135086176
0.7000000000000001,-0.8508733877918753,5896.986931429835
0.704,-0.7954079386455396,5906.104157060056
0.708,-0.6478477015979759,5900.261828447518
0.712,-0.4369873801582609,5898.472677107653
0.716,-0.2121643696328893,5894.780821562031
0.72,-0.025761173447310756,5902.305301655088
0.724,0.08599710843671363,5907.410112300453
0.728,0.11566229576725143,5897.507290785976
0.732,0.08452833472534822,5903.694698645852
0.736,0.030082852819068667,5910.006662712864
0.74,-0.012361568562303814,5894.21313665546
0.744,-0.02454601332472107,5904.3030247261095
0.748,-0.00994666404945649,5894.111487242165
0.752,0.012702602165502576,5895.578440431947
0.756,0.02251716394098291,5902.380160123962
0.76,0.009219508102688267,5899.230292912335
0.764,-0.02010696560616997,5897.668716458488
0.768,-0.04249150116198164,5897.276112747635
0.772,-0.02773518297456804,5895.649187513673
0.776,0.04902335255002608,5896.513554030746
0.78,0.19547962186465323,5901.010402972029
0.784,0.3957849259100399,5902.727437728863
0.788,0.6123819388630157,5896.443657039577
0.792,0.7954733262210404,5899.517718890969
0.796,0.896648170619474,5898.871295051112
0.8,0.8819712617301412,5900.814177065257
0.804,0.7403535388688062,5896.856546360836
0.808,0.4851492167865475,5894.620998204799
0.812,0.15005505471225283,5897.421847193326
0.8160000000000001,-0.21753749713400086,5900.070056638393
0.8200000000000001,-0.5632226235470177,5899.918732459381
0.8240000000000001,-0.8318994015246042,5886.334280175994
0.8280000000000001,-0.9744416836337219,5887.497968819465
0.8320000000000001,-0.9549012108141474,5901.195020645162
0.836,-0.7573748191488832,5894.09632758366
0.84,-0.3909771455834285,5901.155131999225
0.844,0.10887103700536883,5892.603486403458
0.848,0.6844420748056884,5894.043312056076
0.852,1.2655086016463546,5903.565609493726
0.856,1.7830958060238282,5898.138897435667
0.86,2.1829427379558455,5907.813335919646
0.864,2.434316633857408,5896.649155418924
0.868,2.5320151333254017,5896.177208889592
0.872,2.4919051734589455,5902.508426070173
0.876,2.342167581998038,5898.601643581004
0.88,2.113675761067572,5908.519481095155
0.884,1.8331543076635657,5899.03575319983
0.888,1.5211878872695745,5903.601805214736
0.892,1.1943149243507445,5894.140128077609
0.896,0.8683672395058976,5900.349733571651
0.9,0.5606200652786024,5900.379922183179
0.904,0.2903822683724377,5900.575741583913
0.908,0.07865708800218324,5899.440819747184
0.912,-0.0535761061376871,5898.227956565064
0.916,-0.08974054597267425,5899.409346616575
0.92,-0.024378470653113164,5901.363399261025
0.924,0.13058399682768848,5896.577240473491
0.928,0.34325480323168867,5902.981006048876
0.932,0.5647823372529124,5895.674052632424
0.936,0.7386566693728733,5892.418328039902
0.94,0.8155565143839698,5901.952222229284
0.944,0.7701531023453836,5893.532241885136
0.948,0.6135706316570836,5895.925348269834
0.952,0.39525840431374815,5904.882779719918
0.956,0.1913474024713455,5893.90424398847
0.96,0.08166931086040666,5890.7990133537205
0.964,0.12266760180617559,5896.890766518893
0.968,0.3262668179773466,5903.985750078319
0.972,0.6533695669149987,5899.987961014229
0.976,1.0251093394338977,5895.321713214295
0.98,1.3478357221212591,5906.711432171544
0.984,1.5422051953740252,5895.559476016336
0.988,1.5653356619188126,5893.2443548704105
0.992,1.4188916243410992,5899.629045827169
0.996,1.1429271045009364,5890.932395010118
1.0,0.8006182779699704,5903.505593250926
1.004,0.4602073430495674,5895.186871681741
1.008,0.17911441076804938,5900.386242542785
1.012,-0.006533808520655738,5900.10248805151
1.016,-0.08531695895531459,5884.584775996516
1.02,-0.06700179463945032,5902.611159987329
1.024,0.025898581096419827,5904.243659107954
1.028,0.16786647311101016,5898.419423728311
1.032,0.3375363328408427,5903.693236798628
1.036,0.5202747706036527,5895.886763379683
1.04,0.7068953805636953,5901.296757056982
1.044,0.8904709051072309,5893.175915332219
1.048,1.0629724165967454,5902.570927521952
1.052,1.2131294677842548,5900.786115297804
1.056,1.3264130170075483,5895.96284097182
1.06,1.3868627698878988,5893.604143482879
1.064,1.3797034074918737,5907.8553853697385
1.068,1.2942958796625197,5889.224796186794
1.072,1.1276577944670019,5898.918655358855
1.076,0.8880390720731909,5893.655648032512
1.08,0.5968193544164352,5907.722952223452
1.084,0.2872521558833359,5904.043121744831
1.088,0.0001408114133581724,5905.554446125771
1.092,-0.22247459048146725,5904.1435786166
1.096,-0.3447686351170073,5897.73193721087
1.1,-0.3451040080799541,5909.907656285681
1.104,-0.2230877847974129,5903.117758246592
1.108,-0.00301596224238626,5902.283539783336
1.112,0.2689832367650183,5902.388508548876
1.116,0.5346440428788003,5895.883820018237
1.12,0.7373919660974663,5897.318150461108
1.124,0.8354740329554441,5909.994259396117
1.128,0.809975231446846,5898.757820840647
1.132,0.6658397652335876,5896.776691096908
1.136,0.4270022465115108,5903.413575678114
1.14,0.12866230306830062,5906.110949084109
1.144,-0.19005706499530883,5897.12890296449
1.148,-0.49121271216951096,5897.221878314965
1.152,-0.7411876126772308,5905.568038391992
1.156,-0.9136228178482241,5908.041578479124
1.16,-0.9934896075522119,5894.065602507343
1.164,-0.9817063133789666,5899.1971479714775
1.168,-0.8979194442395687,5899.410722121227
1.172,-0.7789458155251815,5902.920394623338
1.176,-0.6719139257234975,5898.333792485511
1.18,-0.6233900268336074,5902.908098468971
1.184,-0.6676879243188486,5907.205771235716
1.188,-0.818155422854937,5891.977406962279
1.192,-1.0639950675001506,5894.981923086985
1.196,-1.372833321964002,5895.500604968186
1.2,-1.6973833948157968,5896.855982554642
1.204,-1.984182070965279,5895.333171468406
1.208,-2.1831166912707145,5906.05838868044
1.212,-2.2569482553403457,5902.670853585591
1.216,-2.1894258952904493,5894.840642882614
1.22,-1.9895714008893826,5905.458939878978
1.224,-1.6898553358917445,5902.579752314012
1.228,-1.3379109597775878,5905.614199601526
1.232,-0.9840964036345913,5906.751321063248
1.236,-0.6689994917707611,5897.423880413574
1.24,-0.4150194678845643,5904.487669964243
1.244,-0.22450318431246358,5901.684826658795
1.248,-0.08415842543739865,5908.078595924207
1.252,0.027056961233486436,5891.066994083459
1.256,0.13012489904750302,5900.245447883877
1.26,0.24064223694723058,5889.245618342857
1.264,0.36661576152516495,5905.880060931856
1.268,0.5086496046557175,5904.148000703452
1.272,0.661232652710398,5895.922422275702
1.276,0.8140694806196139,5906.272866761141
1.28,0.9528220841216021,5909.224060738798
1.284,1.0590026499705507,5909.492060323713
1.288,1.1098321463026841,5908.354720230211
1.292,1.0802308854587261,5897.120476937605
1.296,0.9486446019581268,5897.827597431055
1.3,0.7057620810449747,5895.195021781524
1.304,0.36277933375196575,5887.674518957081
1.308,-0.04431061757405393,5900.567257061465
1.312,-0.45656108174043414,5899.867902772761
1.316,-0.8010053083144433,5893.722856212234
1.32,-1.0065423254882846,5904.92329455322
1.324,-1.0242871293408369,5898.090648508012
1.328,-0.8466643153897578,5899.9474880523085
1.332,-0.5176759135179285,5899.835210914733
1.336,-0.12791289864623276,5895.867918312474
1.34,0.20758762258135285,5908.876205798893
1.344,0.38330548799248676,5908.072670452548
1.348,0.33701363245305355,5901.82451649095
1.352,0.06998390374838968,5903.130620590875
1.356,-0.35414541633853736,5897.2309302622
1.36,-0.8303770226959585,5905.366622757031
1.364,-1.244310399266909,5901.834777912116
1.368,-1.5037263628660666,5897.588832082449
1.372,-1.5608888187433159,5893.093178755586
1.376,-1.4211465189583365,5891.938962185078
1.38,-1.1375112455644083,5903.831802294895
1.384,-0.7941408084759017,5894.806916437256
1.388,-0.4842224185308024,5898.93453973621
1.392,-0.2885282421160274,5904.769770913494
1.396,-0.2592258135960905,5903.360025002728
1.4,-0.41103969223465164,5905.1734360132605
1.404,-0.7203316776484042,5905.787649658117
1.408,-1.1315250376044856,5901.320410079351
1.412,-1.568693161190081,5900.541576428695
1.416,-1.9491507397434822,5895.867493740047
1.42,-2.1965023169659355,5908.180889437433
1.424,-2.25177998167228,5888.379948478877
1.428,-2.081951355012406,5904.631931858993
1.432,-1.6854847234177113,5903.398256120147
1.436,-1.0949839619289308,5906.951099291175
1.44,-0.37666642867392136,5898.731036031807
1.444,0.37431797025839214,5899.260555064547
1.448,1.0442172226900255,5902.9909950613655
1.452,1.5174073741391843,5907.881735949783
1.456,1.698074187938179,5904.0164194127565
1.46,1.5326914694526026,5895.145644190316
1.464,1.0273415853535381,5901.89419828789
1.468,0.25388906823407226,5906.665237824542
1.472,-0.6589565096477422,5900.263397666381
1.476,-1.5496255645697028,5909.958286489635
1.48,-2.257657496523426,5898.746795255135
1.484,-2.6587565551895542,5897.4153128974185
1.488,-2.6912215475155006,5896.114235969793
1.492,-2.3665803407193953,5898.038468206334
1.496,-1.7621680267025466,5899.643462333816
1.5,-0.9988626594101611,5904.258773007143
1.504,-0.21127558615660164,5900.793406076774
1.508,0.48092772395693145,5909.735150749801
1.512,0.9934810800946173,5908.114705270918
1.516,1.2862695977717862,5898.449152849807
1.52,1.360768216562274,5898.751201321187
1.524,1.249224300670749,5904.422552424838
1.528,0.9999641955518809,5887.004675549507
1.532,0.6634748375445868,5900.42419297464
1.536,0.28286073491053376,5901.102941182617
1.54,-0.10998805964079597,5904.440650044744
1.544,-0.49324896600135193,5901.777696930915
1.548,-0.8507279187323508,5906.315592192911
1.552,-1.1665516245613567,5899.216458592625
1.556,-1.422187808765211,5901.650289246676
1.56,-1.5981284571479972,5902.343072174467
1.564,-1.6797129278256389,5900.702404534554
1.568,-1.6640054043750325,5897.317835691777
1.572,-1.563885461015118,5896.785392661503
1.576,-1.4060424003673204,5903.939739501092
1.58,-1.2215518929983467,5894.814167830554
1.584,-1.0319017664505141,5902.70960073974
1.588,-0.8376221754381998,5906.556345470864
1.592,-0.6167914888689832,5901.438627371399
1.596,-0.33560738440603716,5908.907738116589
1.6,0.033095431089172886,5910.275429358859
1.604,0.49086085149718267,5897.411031668749
1.608,1.0015370381737922,5901.488275848486
1.612,1.4913338872029356,5896.737417475115
1.616,1.862664432683061,5900.389345807103
1.62,2.0187758608399173,5903.889485494069
1.624,1.8919463091983344,5906.931977218662
1.628,1.4662145094835446,5896.375477453987
1.632,0.7870778462581702,5900.021329288565
1.636,-0.04526065025520557,5895.64783466064
1.64,-0.897280925328973,5897.671166494359
1.644,-1.6321059222899474,5890.385225496731
1.648,-2.139971005826291,5910.254829273922
1.652,-2.36121186810574,5903.647325652172
1.656,-2.2956580564676763,5903.713547219157
1.66,-1.9961761672969804,5900.864484377022
1.664,-1.5491298673035432,5895.97371111333
1.668,-1.0487546795584874,5909.979385892068
1.672,-0.5742079413777019,5901.7223250586885
1.676,-0.1764828647814446,5901.2355351109445
1.68,0.12239028537754744,5899.12956379988
1.684,0.3213025401605779,5907.73386042008
1.688,0.42998384772093157,5893.502169228739
1.692,0.46225682275144353,5892.640631087067
1.696,0.43340340798809857,5899.563573710025
1.7,0.35888165067972416,5894.303718763063
1.704,0.25187661030928504,5890.123064400385
1.708,0.11998280305651306,5898.070505137354
1.712,-0.03665237100358232,5904.291770318677
1.716,-0.22394086368044555,5897.7247991915465
1.72,-0.44921817345783277,5899.328585624344
1.724,-0.7142667753421083,5899.521508359114
1.728,-1.007206257124525,5896.192762914931
1.732,-1.295682008058504,5902.03125311894
1.736,-1.525518938404686,5906.354101287637
1.74,-1.628942987564952,5910.022902263372
1.744,-1.543154468956752,5892.187069634745
1.748,-1.234586388385662,5894.575296551961
1.752,-0.7196165860908973,5892.77887412836
1.756,-0.07165507007361561,5904.969872794227
1.76,0.5913729598068519,5905.656747381928
1.764,1.137122216674597,5901.488324882222
1.768,1.4563453717927701,5897.036236817969
1.772,1.494137057560045,5900.519510993365
1.776,1.2641041652894045,5907.048503107644
1.78,0.8417909721765243,5902.357389150832
1.784,0.34129268972005355,5908.583593413468
1.788,-0.11585976791475618,5892.691876970484
1.792,-0.42949200192525394,5908.066358372943
1.796,-0.5403711194950986,5904.303131983549
1.8,-0.438396501273386,5896.787140203628
1.804,-0.16023865511777827,5903.209467342172
1.808,0.221825658643305,5903.042178135858
1.812,0.61746667768125,5902.98659746342
1.816,0.9385553629658144,5896.614866664941
1.82,1.1176654714396457,5902.126479554111
