时间(s),电压(V),幅值(高频80K)
0.0,-0.38217500927160597,5906.796753307868
0.004,0.10973322766999638,5903.645552023764
0.008,0.5272399762412694,5902.265129638858
0.012,0.8248542610222064,5900.924692898711
0.016,0.9836792078398062,5892.947269556751
0.02,1.0108423957671082,5896.135655041779
0.024,0.933529781823911,5906.763202648942
0.028,0.790875175295284,5902.537809282218
0.032,0.6253509173814327,5904.225818129704
0.036,0.47391751425327877,5901.891652737528
0.04,0.3595064510202218,5890.571928224888
0.044,0.2850510235141745,5902.898337813834
0.048,0.23292043848426836,5901.986771710678
0.052,0.1708191254495043,5907.969022058547
0.056,0.06278756046158096,5899.121034324805
0.06,-0.11712580110360034,5911.50708536234
0.064,-0.37172222725061305,5902.53867041629
0.068,-0.672821049599065,5899.577533011362
0.072,-0.9637097990892864,5903.789829267836
0.076,-1.1734536943026672,5893.824867295458
0.08,-1.239310287929114,5906.535215225948
0.084,-1.1294670848016988,5903.677633683064
0.088,-0.8573089588768809,5900.516093362214
0.092,-0.48092588249261253,5893.373172184283
0.096,-0.08700691028347474,5898.65640213195
0.1,0.23562364812424513,5894.787200738945
0.104,0.42337788494031253,5891.037290285968
0.108,0.4561442664856684,5904.703038079401
0.112,0.36016145124607396,5905.381955759135
0.116,0.1960862895645534,5895.426667629655
0.12,0.03849191827469197,5904.779706922764
0.124,-0.04566922559971248,5907.48182325711
0.128,-0.014269432814136857,5899.754363429249
0.132,0.14000281262146638,5897.689700406924
0.136,0.3883247682221385,5900.83507759321
0.14,0.673411900649461,5890.900426899332
0.144,0.9248743279566665,5888.753330035927
0.148,1.0788908821180054,5897.976446709909
0.152,1.0968113813800604,5898.581905965854
0.156,0.9766374015556585,5895.036527909572
0.16,0.7534976628551947,5900.720752644343
0.164,0.48939845445773644,5896.689538738944
0.168,0.2558200620536,5904.64415561413
0.172,0.11389577336898316,5896.8038232458375
0.176,0.09732548287935427,5901.23703055703
0.18,0.20336750867682807,5898.622899178223
0.184,0.3953629992207015,5895.960718986253
0.188,0.6154731484400771,5898.399492770506
0.192,0.8015795521440172,5894.521304653815
0.196,0.9015818843434092,5899.253169226995
0.2,0.8819605116379791,5905.149049227486
0.204,0.7315715847176537,5902.50291726795
0.208,0.46260291105679463,5898.886740918394
0.212,0.10903888573940441,5896.524993449511
0.216,-0.27812351885213293,5899.703975930303
0.22,-0.6390872739814679,5897.076254726599
0.224,-0.9159188378629651,5897.67655322374
0.228,-1.0640451640843889,5902.55737180677
0.232,-1.0626964702301438,5902.589785855303
0.236,-0.9217002691798141,5900.513234545359
0.24,-0.6811450306656943,5904.254336395376
0.244,-0.40143273605075397,5896.164945403117
0.248,-0.14545027773359925,5893.63195212933
0.252,0.040403473958186865,5896.541245091131
0.256,0.13832013932535925,5894.2918996669
0.26,0.16029657230194794,5897.2419330799685
0.264,0.14021065291361196,5892.774141941864
0.268,0.12140512794275553,5898.260581636319
0.272,0.14360960552750415,5904.37055404184
0.276,0.23121446059515513,5906.436884624579
0.28,0.3844109830573663,5898.143019073129
0.284,0.5754013807509337,5897.934828206677
0.288,0.7522384133515434,5899.594103005023
0.292,0.8514516871753454,5904.17130368111
0.296,0.8171845922890474,5904.1445273671
0.3,0.6207675592990538,5903.96009921104
0.304,0.27322830572516943,5899.584999805639
0.308,-0.17448950677726788,5898.44204053068
0.312,-0.6440687843966106,5907.593194194933
0.316,-1.0506167996456932,5901.930824756052
0.32,-1.3240408057842097,5907.79482021557
0.324,-1.4236481937436611,5892.590464945401
0.328,-1.3426101312277414,5909.252900312366
0.332,-1.1038755823481932,5898.350660568432
0.336,-0.7516557009838476,5905.951553755714
0.34,-0.3421403355051365,5904.37746597088
0.344,0.06467553177400837,5900.403606382357
0.348,0.4119192439750269,5901.518156324397
0.352,0.6522939954935071,5902.993674004092
0.356,0.7543469348560637,5902.775901394693
0.36,0.7074845957980141,5897.3887130148905
0.364,0.5239386545520756,5888.916131885195
0.368,0.23665565582124734,5908.322346742689
0.372,-0.1063074034490341,5909.98131987629
0.376,-0.44929939624421206,5894.509754527211
0.38,-0.7371614079861427,5898.221508906181
0.384,-0.9231236724854534,5896.044661626863
0.388,-0.9756143815186042,5903.643209188586
0.392,-0.8826134277465972,5901.721867463701
0.396,-0.6524813152494812,5898.415166735443
0.4,-0.31135442889922765,5896.445942801949
0.404,0.10156941551314626,5899.9665409748
0.408,0.5389859090373139,5900.320388143436
0.412,0.9495214448415664,5886.344092189913
0.416,1.2815498498818898,5899.724280364247
0.42,1.488901396840878,5904.624691515416
0.424,1.5397198291655816,5897.695996345708
0.428,1.4269089771531411,5901.46609867886
0.432,1.1760027880357886,5890.848205654064
0.436,0.845490008356343,5896.423124272274
0.44,0.516160252369564,5898.5741637976535
0.444,0.27013581612935045,5904.072777456439
0.448,0.16575850089342195,5905.58599735852
0.452,0.2180173885007669,5905.684422144467
0.456,0.39282092012952424,5902.608691049238
0.46,0.6179008338055334,5890.895255204136
0.464,0.8067226933224318,5897.036645041664
0.468,0.8869584195861189,5903.055368829508
0.472,0.8232076579373032,5893.879992517942
0.476,0.6258215094312657,5898.840960775599
0.48,0.34351365839358566,5900.2415493943445
0.484,0.04408486780036684,5905.481167815759
0.488,-0.20833738295425705,5897.337434652958
0.492,-0.370934472358966,5897.7018805368525
0.496,-0.42907723811826287,5899.2984787089445
0.5,-0.3918458560257584,5890.199346379179
0.504,-0.28097375515039746,5911.038696573646
0.508,-0.12079799263468352,5898.911914462314
0.512,0.06531705761386865,5894.685034913549
0.516,0.2521692595443449,5903.012609782473
0.52,0.40820342836337914,5893.66536533354
0.524,0.4947762115204653,5900.25477069136
0.528,0.4722572148973154,5903.165067422954
0.532,0.31217348303885983,5895.458339292423
0.536,0.010912365477890476,5903.033202300436
0.54,-0.40134578691800293,5910.215819767417
0.544,-0.8615021371786438,5898.549167060336
0.548,-1.285301574274397,5896.249717760286
0.552,-1.5866612313378097,5891.567281032022
0.556,-1.6986708501810746,5897.896247732549
0.56,-1.5902962670541532,5896.557207651758
0.5640000000000001,-1.2744582317701882,5898.302873356959
0.5680000000000001,-0.8056172097186214,5900.101978294409
0.5720000000000001,-0.2676411218262684,5903.970476573348
0.5760000000000001,0.24512485191515865,5900.882037090951
0.58,0.649333256475811,5904.931367338888
0.584,0.8915614704460538,5893.271364219761
0.588,0.9593352436717945,5898.121884545521
0.592,0.8802896985137915,5892.403728736779
0.596,0.7094507767928426,5902.343858856282
0.6,0.5097889042300571,5900.941297216106
0.604,0.33403282766711295,5897.490005941123
0.608,0.2138273224907892,5896.3238259339605
0.612,0.15746392181872404,5903.070253057427
0.616,0.1536721997160615,5901.593148644363
0.62,0.1782693100474397,5894.785462279235
0.624,0.20166072311071245,5895.191233749792
0.628,0.1963978740193548,5904.487423467639
0.632,0.14424254049070867,5895.611957384591
0.636,0.041473254394630725,5902.496987723592
0.64,-0.09939210680474705,5894.517431000149
0.644,-0.25238240012806235,5897.952621473682
0.648,-0.38426175129453327,5898.310289259931
0.652,-0.4616720346669968,5892.108417867045
0.656,-0.45717027846553987,5908.112727393886
0.66,-0.35349710874541135,5895.650063133382
0.664,-0.14652146093800733,5901.2158922266535
0.668,0.1525288634151707,5892.030629551293
0.672,0.5156760587674515,5893.745141895923
0.676,0.8990239359444814,5900.297197390213
0.68,1.2481313470651823,5894.70637841021
0.684,1.5092947729277084,5891.742340066072
0.6880000000000001,1.644510992240381,5894.491633653217
0.6920000000000001,1.6438474113439745,5898.150202022056
0.6960000000000001,1.5283362168139067,5901.885310581698
0.7000000000000001,1.3408864645304892,5892.134509406954
0.704,1.1294186867112714,5898.525736375163
0.708,0.9306229911972979,5894.12527009004
0.712,0.7614454949403688,5905.168060615984
0.716,0.6201558952643456,5893.21993013764
0.72,0.4939775300630193,5899.93239488219
0.724,0.3685089053482966,5903.489470338232
0.728,0.2349502063827255,5899.246219502505
0.732,0.09289625469485321,5897.367934548477
0.736,-0.05139831172830183,5896.416419311764
0.74,-0.1892235165740007,5899.699111902832
0.744,-0.31299850624568115,5900.494368062528
0.748,-0.4170563953618731,5900.59598862737
0.752,-0.49569404638172765,5898.9791289816985
0.756,-0.5406244219887871,5900.6455151268965
0.76,-0.5405112423845487,5904.948288513079
0.764,-0.4836707179047089,5897.388346385505
0.768,-0.36226283427511746,5902.916622984262
0.772,-0.17490078686252994,5907.820813906562
0.776,0.07380346281028133,5901.227460750203
0.78,0.37515576853007787,5900.398714256985
0.784,0.7165574455209802,5904.688459734457
0.788,1.0781114634285618,5899.366333417432
0.792,1.4273228005642993,5890.124170653181
0.796,1.716675042725788,5899.209692231384
0.8,1.8888680462914504,5903.592127977611
0.804,1.890777185917901,5893.50287670877
0.808,1.6920675301355395,5900.85612996719
0.812,1.3011330773458833,5900.488704807878
0.8160000000000001,0.7713761774412591,5896.798810527535
0.8200000000000001,0.19413495239169767,5898.550046419395
0.8240000000000001,-0.32114479169562743,5894.425403187981
0.8280000000000001,-0.6748102691746821,5885.796627834653
0.8320000000000001,-0.8047516478132,5900.556698749075
0.836,-0.7042061559653157,5907.73755091155
0.84,-0.422521312972784,5891.958186318264
0.844,-0.048694855845849296,5890.374552435175
0.848,0.3153320565233218,5904.613153192359
0.852,0.5818796373981618,5903.712508447904
0.856,0.6977385106780508,5900.736801491978
0.86,0.6536722824410811,5905.374564493122
0.864,0.48197579393313245,5910.714976724253
0.868,0.24293218050814086,5901.281670472355
0.872,0.004321809154557634,5897.072942907766
0.876,-0.17892389488436922,5900.666590676175
0.88,-0.27811159599704544,5902.8909245508985
0.884,-0.29385438193537383,5902.887192727539
0.888,-0.2496323386164378,5899.855089331027
0.892,-0.17966524342291965,5905.376196251116
0.896,-0.11607522592647372,5900.5125011463015
0.9,-0.07962692801322063,5893.593069741851
0.904,-0.07634456196132071,5899.3023339384445
0.908,-0.09989806520763822,5894.719370804459
0.912,-0.13765248877565625,5896.040964398995
0.916,-0.17730800114730402,5896.360593192799
0.92,-0.2114141734658022,5893.946943490068
0.924,-0.23837110293929453,5894.2328184202015
0.928,-0.26007399441965035,5903.817561767767
0.932,-0.27773253974269496,5901.046184681378
0.936,-0.2883157830890521,5896.641277757935
0.94,-0.28375403550421724,5900.532291157987
0.944,-0.25336762849793437,5900.396869635502
0.948,-0.18842172429838255,5902.398181908665
0.952,-0.08729156047671753,5903.481786073197
0.956,0.0403521146421758,5904.255696553548
0.96,0.1724334787428189,5894.779062323043
0.964,0.27829685573426843,5907.681638285078
0.968,0.32711816285827094,5896.18228323926
0.972,0.29765878982241967,5897.848229059188
0.976,0.18514803898897492,5892.114894287025
0.98,0.0029044583078000276,5901.937241576122
0.984,-0.22069072776555126,5896.840085886581
0.988,-0.44739382779446724,5895.804970674561
0.992,-0.6344525895753317,5901.909766525335
0.996,-0.7401268700153036,5903.250184942529
1.0,-0.7308058660186972,5904.580554026426
1.004,-0.5902059301959625,5897.564741251243
1.008,-0.3284062350111911,5901.57306677929
1.012,0.013668531556382887,5901.01137526128
1.016,0.36829267760727447,5903.9825368724605
1.02,0.6542382176103485,5898.091249985584
1.024,0.7957604275482656,5904.737705977736
1.028,0.7412852200160932,5903.073575687177
1.032,0.4766297789103804,5905.921995322367
1.036,0.02990359250684426,5900.875096943069
1.04,-0.5331324277292954,5897.036837142476
1.044,-1.1231228417921855,5892.980666861181
1.048,-1.6479365986781063,5890.28306721742
1.052,-2.034552000666722,5899.55277564435
1.056,-2.2451082077604783,5906.769662598442
1.06,-2.282102748428796,5909.081169679564
1.064,-2.181804874056063,5894.689214531253
1.068,-1.9992917979963403,5896.451753041303
1.072,-1.791137157760237,5897.380055302503
1.076,-1.6016193267581238,5904.059759916833
1.08,-1.4558903333781699,5899.815788708314
1.084,-1.3603396213400274,5900.271141518402
1.088,-1.3075719480527037,5902.011432018834
1.092,-1.282007830012273,5889.653688201457
1.096,-1.2632147851998266,5898.451040650181
1.1,-1.2270989974194684,5892.898778710018
1.104,-1.1472604999720162,5901.678271498465
1.108,-0.9985305401974071,5895.3110605462
1.112,-0.7633051549590438,5900.614369403368
1.116,-0.44004313184968724,5897.595859126768
1.12,-0.051621877492075835,5898.646490963139
1.124,0.35074608513628525,5900.056941496252
1.128,0.6926461531684935,5894.889921747191
1.132,0.8925792225466842,5898.95219275112
1.136,0.8861797224568686,5907.030194885572
1.14,0.6507749096471832,5898.905479965196
1.144,0.2202079595815171,5901.794965779245
1.148,-0.3178458531836385,5899.208151295845
1.152,-0.8432763535463136,5905.266830109655
1.156,-1.2370756522976594,5894.860015267131
1.16,-1.415172028042306,5889.584030783913
1.164,-1.3504162605305519,5901.795711341258
1.168,-1.0754894358480969,5899.721994503782
1.172,-0.6672664415598576,5896.071744649382
1.176,-0.2198811593519344,5894.474528545178
1.18,0.1833719198814351,5900.219387148149
1.184,0.49029393268065663,5896.761582373721
1.188,0.6870326156499305,5901.261339006836
1.192,0.7921297915748104,5898.339735306659
1.196,0.8415114389998521,5896.694031449674
1.2,0.8707438769866315,5895.254064895968
1.204,0.9005026027654879,5901.553247506719
1.208,0.9292437572413124,5908.774345273261
1.212,0.9346885274308572,5915.613779029266
1.216,0.883342098963135,5891.864749551229
1.22,0.7450397723858575,5901.5836239428
1.224,0.5078478632638598,5899.556023239446
1.228,0.18790693958098198,5898.64221706746
1.232,-0.1704167541086035,5892.381588052024
1.236,-0.5054938940184399,5904.734374835538
1.24,-0.7568968250346213,5899.084286527523
1.244,-0.8840015160833992,5904.762412378635
1.248,-0.8776259345110963,5896.755244668036
1.252,-0.7613144482381554,5904.546675134708
1.256,-0.5831494530619536,5902.326342441313
1.26,-0.40157049154359215,5897.091046309361
1.264,-0.2694221008451018,5902.798664777457
1.268,-0.22015088936307195,5896.776084971629
1.272,-0.25907105042916084,5897.374351371068
1.276,-0.36110243271580533,5900.441297901331
1.28,-0.47518019525221417,5894.273358810119
1.284,-0.5350364787017757,5896.842426442022
1.288,-0.47521245225392633,5905.244204980681
1.292,-0.24911218958605116,5901.735672638884
1.296,0.1561750094974876,5899.101126158855
1.3,0.7135514222127058,5892.254107161551
1.304,1.3604643378735248,5906.364249558806
1.308,2.0123459717155314,5899.653177130243
1.312,2.5798274205819096,5892.2415233623005
1.316,2.984625103789699,5895.656907644062
1.32,3.171437551589233,5899.325868373185
1.324,3.1155913421439156,5898.9408641194095
1.328,2.8267900820272804,5903.894289897396
1.332,2.34836632155222,5897.578905688197
1.336,1.7505350655557375,5906.342226393555
1.34,1.1170556134817835,5898.76180916966
1.344,0.5277227584818923,5893.580251416179
1.348,0.042151004721726386,5905.874342041015
1.352,-0.30945116385791777,5897.551079051336
1.356,-0.5260475273734715,5893.782995072161
1.36,-0.6281031555884695,5905.576695586785
1.364,-0.6471595411688525,5898.077388278894
1.368,-0.6165895418968828,5901.27159390849
1.372,-0.5647421153068939,5896.197847144649
1.376,-0.5101856379765461,5892.5048260871545
1.38,-0.459665447160864,5908.083397321445
1.384,-0.41039701835046327,5897.223643349663
1.388,-0.3568319818533922,5896.014861215587
1.392,-0.298761986086584,5892.974452723872
1.396,-0.2458753678789262,5906.403556222302
1.4,-0.21579576651958804,5893.625792063373
1.404,-0.22693106023435816,5901.793995212951
1.408,-0.2907835551477719,5894.81087156161
1.412,-0.4082204893697077,5907.593697614124
1.416,-0.5709191520441477,5898.825290421219
1.42,-0.7655787805889327,5900.075890520278
1.424,-0.9772546375077749,5898.125836701116
1.428,-1.1898085830192997,5902.330181198648
1.432,-1.3843673772829472,5905.751781378981
1.436,-1.538551249264346,5905.365481361752
1.44,-1.628665925795555,5899.258288849451
1.444,-1.6346486124121575,5900.528477127434
1.448,-1.5454873442724806,5890.321890987791
1.452,-1.3626324092900248,5904.237295901897
1.456,-1.1001943065988953,5897.096223107065
1.46,-0.7821393093468919,5903.655582257723
1.464,-0.43748017015483087,5905.5993314222505
1.468,-0.09475308295828695,5898.987949487261
1.472,0.2227878421599523,5902.042371678455
1.476,0.499978608697691,5896.642482860797
1.48,0.7300082864849087,5899.870650842664
1.484,0.9124961458463384,5902.303110092535
1.488,1.0499683393124606,5900.365183579625
1.492,1.1430719852493514,5896.941180572217
1.496,1.1855263460394352,5893.96721093745
1.5,1.1615409233956135,5901.433021141382
1.504,1.049107780750175,5895.318569176367
1.508,0.8302537847647893,5906.675622222372
1.512,0.5047820952581978,5900.729993297055
1.516,0.10051517537249588,5897.302106860055
1.52,-0.3263006093030377,5907.294270633848
1.524,-0.702016974648559,5897.372759888437
1.528,-0.9540783097481562,5900.963950798801
1.532,-1.0300653234425097,5903.636062495404
1.536,-0.9108399668662969,5899.410809167143
1.54,-0.6140667938987244,5903.6620787561
1.544,-0.18784947085394907,5901.980845909052
1.548,0.30253628646813513,5901.696624743914
1.552,0.7897134659952636,5893.821064965502
1.556,1.2160271296861587,5893.9945552012605
1.56,1.5393077973585885,5903.092766140281
1.564,1.7327773591834201,5899.158306934098
1.568,1.7817433836560472,5903.698356224524
1.572,1.680962604783183,5902.549516398217
1.576,1.4359730519187652,5896.515224514186
1.58,1.0690580057365147,5899.355982401736
1.584,0.6265675366744474,5901.799785455775
1.588,0.18096094275070884,5906.332259734773
1.592,-0.17881648616239215,5904.372435558325
1.596,-0.3693802196907713,5892.323370270806
1.6,-0.3402079634618829,5899.841302273285
1.604,-0.09479331154914647,5893.351764089087
1.608,0.30366959991237286,5895.522702607893
1.612,0.7454520482043404,5892.501925394029
1.616,1.1032538215523586,5889.432343936079
1.62,1.268516687928789,5895.8234964495
1.624,1.1834433054868556,5889.874401210101
1.628,0.8577793295174798,5899.944849486372
1.632,0.36447561569734505,5896.129090725461
1.636,-0.18423007370880914,5904.089771094039
1.64,-0.6720642041376552,5896.628638588212
1.644,-1.0133604760965846,5899.034257135779
1.648,-1.175560168143803,5901.583819311416
1.652,-1.182588765762971,5894.335682951803
1.656,-1.0992799401739217,5896.269921467886
1.66,-1.003631053961717,5908.145829212132
1.664,-0.9570686530781223,5894.302230883252
1.668,-0.9826241112203017,5892.87341254559
1.672,-1.0579372247373011,5902.427701564724
1.676,-1.1251846542140618,5901.696399726069
1.68,-1.1142429619217868,5898.129677245025
1.684,-0.9704265010220122,5901.070701113561
1.688,-0.6762972062143778,5907.975497537635
1.692,-0.2595353875152003,5888.521494917169
1.696,0.21530000484845646,5885.190804739567
1.7,0.6669792954039075,5903.839685370773
1.704,1.0218917045310936,5904.548212043349
1.708,1.2343803770726944,5901.315151532825
1.712,1.2972742957450458,5909.497131129634
1.716,1.239874214935085,5900.904877252617
1.72,1.1144670506346817,5893.120438723894
1.724,0.9766778264487299,5906.753392245085
1.728,0.8676176447595845,5899.7022015588045
1.732,0.8045645664991429,5896.542809989332
1.736,0.7823226194705456,5900.061422859865
1.74,0.782508786984073,5903.877815137419
1.744,0.7852777422721798,5898.00449738687
1.748,0.7780550979290363,5911.011083962592
1.752,0.7582733361237542,5897.352228108046
1.756,0.7303507379556464,5901.002257808811
1.76,0.6992919699125585,5893.415748072191
1.764,0.6638541489458963,5900.370536180798
1.768,0.6120600763588395,5895.236942824891
1.772,0.521335009961541,5895.483712421189
1.776,0.364416347955412,5894.171200925897
1.78,0.12039018520376277,5905.667533175438
1.784,-0.21202001040510188,5903.443581737911
1.788,-0.603928026584596,5902.660670834991
1.792,-0.9942453106126139,5901.857456394302
1.796,-1.2997005743892143,5896.17134047982
1.8,-1.4358833906788002,5900.756316047606
1.804,-1.3434101875107907,5901.901357153936
1.808,-1.0102614062846804,5897.061733227639
1.812,-0.48137568127433444,5895.816218134509
1.816,0.14938871078391164,5900.578045606728
1.82,0.7625733064650574,5902.069165624305
