时间(s),电压(V),幅值(高频80K)
0.0,1.6647676697008897,5906.315396786703
0.004,0.9680993781709426,5902.2394389700885
0.008,0.289595600807486,5905.362183320728
0.012,-0.3425981488475697,5909.737092633461
0.016,-0.9016960543220223,5895.223983071883
0.02,-1.3639621289768376,5902.315102588456
0.024,-1.7089594243234596,5898.097447044444
0.028,-1.9180871807629414,5891.712929314482
0.032,-1.9737381541724834,5889.850306605684
0.036,-1.8619197690461438,5902.560021991912
0.04,-1.5788794066392153,5893.584389224978
0.044,-1.1393089336022735,5895.375071554759
0.048,-0.5826571539134973,5901.643919859484
0.052,0.025069615494116095,5898.746796937057
0.056,0.5959639359763796,5899.469534765863
0.06,1.0330735504932191,5894.586517961877
0.064,1.2511442883917463,5894.108856320129
0.068,1.20030887971189,5897.854986892681
0.072,0.8839390111604034,5903.184098435409
0.076,0.3628215969937838,5893.6835729793065
0.08,-0.25636463772810436,5900.41736688406
0.084,-0.8438881212927813,5905.300567967835
0.088,-1.2742334340354624,5898.632420044321
0.092,-1.4522816472776505,5903.186728662487
0.096,-1.3342990466272664,5899.486263217025
0.1,-0.9393315515899465,5901.364819894759
0.104,-0.34698067572115,5893.583493720319
0.108,0.319413033792437,5899.717288793442
0.112,0.920860823922583,5900.215369973205
0.116,1.335549146473623,5894.900659883085
0.12,1.4885164927533523,5897.407361052888
0.124,1.3706808004014146,5899.370411502036
0.128,1.0414857827322774,5897.860398334263
0.132,0.6127995825065102,5902.423479144099
0.136,0.21715390328855952,5895.746180868488
0.14,-0.03037686718955245,5896.113393253732
0.144,-0.06408518442064197,5907.727054740407
0.148,0.11694699632734613,5897.410618898131
0.152,0.45371501233682,5907.951815117577
0.156,0.8493176486517786,5909.804414063388
0.16,1.2001053908456922,5908.703427767109
0.164,1.4256651547446102,5903.060804997991
0.168,1.4881358878678603,5888.163272366509
0.172,1.3954040709982611,5896.821902192941
0.176,1.189080745625566,5901.196722055072
0.18,0.9242876614602541,5895.802430047434
0.184,0.650888923446176,5898.445060259277
0.188,0.4031423172461807,5902.441586181048
0.192,0.1989296437492144,5908.582415370274
0.196,0.04512489779827458,5913.358404692798
0.2,-0.05552119024066178,5908.2865188665055
0.204,-0.09948425235309621,5902.488426135144
0.208,-0.0814032762708725,5908.557704756464
0.212,0.0029328890262078616,5895.386649511001
0.216,0.15101134404328834,5899.772219944616
0.22,0.34840929995254416,5901.409189084722
0.224,0.5674039974296161,5901.089314083962
0.228,0.7711145383274349,5903.245998874998
0.232,0.921894673763285,5899.718044419697
0.236,0.9907929186412494,5900.985773228433
0.24,0.9650495164587468,5902.939429288405
0.244,0.8514084683167941,5899.283244602796
0.248,0.6738887585684439,5901.324587778368
0.252,0.466534986889043,5896.5983494640495
0.256,0.2641025651388635,5900.334655126208
0.26,0.09425148586740272,5896.857153579063
0.264,-0.02713835784986222,5902.672871065088
0.268,-0.0980251626112237,5910.235702232037
0.272,-0.1302071643036246,5899.922176658431
0.276,-0.1467934410138155,5899.440108937047
0.28,-0.17650794754078927,5906.209000675531
0.284,-0.24536447659179492,5902.841913371007
0.288,-0.3677696049243298,5900.14948204772
0.292,-0.5398530411086618,5903.001719150948
0.296,-0.7375136333495346,5902.969360335573
0.3,-0.92056249447954,5893.613513422202
0.304,-1.0423632188808614,5897.137480242753
0.308,-1.062087298411708,5892.633443873924
0.312,-0.955850852574319,5897.931934003756
0.316,-0.7240495512806618,5908.532491180718
0.32,-0.39367547781648904,5894.229685505506
0.324,-0.015295725499481327,5902.849304049339
0.328,0.34498539171063575,5899.233920548535
0.332,0.6173844477826023,5899.391090043073
0.336,0.7417502243631842,5901.8996368040125
0.34,0.6791814775511208,5906.329597754213
0.344,0.41940384143410786,5904.8430735112615
0.348,-0.016830106824042262,5896.924821535621
0.352,-0.5794182724953089,5903.448466020523
0.356,-1.193438971176108,5894.5744910597
0.36,-1.766376569387696,5901.701031769285
0.364,-2.199300338035037,5904.959269612025
0.368,-2.403178744161914,5907.157828305591
0.372,-2.3189953958191185,5897.312782945988
0.376,-1.9366713324289004,5901.359398861024
0.38,-1.3054984798108253,5902.47686855085
0.384,-0.5297886333823356,5903.127741341399
0.388,0.25191391830417514,5895.456762433837
0.392,0.899243915421973,5899.245340725227
0.396,1.3041893904434625,5895.145673635947
0.4,1.4161203973486236,5903.802203328701
0.404,1.2502140767253125,5901.991033387703
0.408,0.877989532204281,5901.101202835019
0.412,0.40450780246017165,5900.162055719708
0.416,-0.06007328370189494,5897.034520612701
0.42,-0.4268246628471753,5895.5279670473865
0.424,-0.6462428378296682,5895.540163032789
0.428,-0.7146919824358349,5902.494979237492
0.432,-0.668256631255918,5909.065441545042
0.436,-0.5662837549851845,5899.196299606746
0.44,-0.4695613180161786,5895.710515672499
0.444,-0.4196290694868853,5904.011946818378
0.448,-0.4257714322701379,5902.168775799196
0.452,-0.4641007006304609,5903.551680350493
0.456,-0.48883665533387355,5898.739897935393
0.46,-0.4512702137649594,5909.32907340875
0.464,-0.319164660264537,5904.970232041706
0.468,-0.08947715436202852,5898.056013013772
0.472,0.2099570355852891,5897.026705275557
0.476,0.5298969845201748,5912.055573075349
0.48,0.8163303756462394,5896.07761971729
0.484,1.0276631743684068,5890.715058323498
0.488,1.145775048315076,5901.957851173555
0.492,1.1770756491070866,5905.592792106096
0.496,1.1443505051952094,5896.715095882723
0.5,1.074278270126001,5904.659926830722
0.504,0.9868560911216049,5900.019552214832
0.508,0.8910092205566446,5913.476107921324
0.512,0.7867195014446275,5903.766566981043
0.516,0.6706344337353847,5903.643595379428
0.52,0.5413670351796848,5894.6800865926425
0.524,0.40235271989830307,5895.999185683128
0.528,0.2620085448043756,5893.766054302748
0.532,0.13150210549253702,5897.526389767998
0.536,0.02057493661923949,5902.259264111402
0.54,-0.06696243741907881,5894.473636209317
0.544,-0.13519185033767922,5905.838334954524
0.548,-0.1935477589828793,5903.142879047336
0.552,-0.2506996471879781,5895.140942499245
0.556,-0.3079773513567655,5907.152019540415
0.56,-0.35537248312843805,5898.65727375442
0.5640000000000001,-0.37160597573381465,5896.906778695717
0.5680000000000001,-0.3283423892505135,5898.797718208309
0.5720000000000001,-0.1979061579979215,5896.89027901569
0.5760000000000001,0.03673814330333291,5898.437496911334
0.58,0.3717497545179715,5894.796880438315
0.584,0.7746142770783275,5902.88572840011
0.588,1.1821695027747605,5894.410390180607
0.592,1.5081240989187255,5901.445825117687
0.596,1.6616576248556822,5906.436125620348
0.6,1.5735392091191092,5902.766334922526
0.604,1.2211412431017623,5904.570008832429
0.608,0.6426669346311789,5906.742748673528
0.612,-0.06568720598422431,5899.182874420907
0.616,-0.770306748939803,5903.807408080068
0.62,-1.3334088479079682,5898.484012634563
0.624,-1.6494869911608026,5899.9997212017215
0.628,-1.6739872111273126,5903.085915969215
0.632,-1.4355647759280437,5902.464190361793
0.636,-1.028227046392044,5896.286111130484
0.64,-0.5852231416294522,5910.762418606176
0.644,-0.24161307395165113,5899.281616389598
0.648,-0.09630353990181766,5899.258977660031
0.652,-0.18531705615012814,5894.26500552103
0.656,-0.47472149927802015,5903.124923142705
0.66,-0.874722160384128,5906.314245138068
0.664,-1.2689306311852757,5898.312784278412
0.668,-1.5483111375224239,5902.336389032294
0.672,-1.6393663828126717,5895.602182291922
0.676,-1.519483696050667,5905.5413523858
0.68,-1.2168650339319536,5901.919430466319
0.684,-0.7970517429017968,5898.323375111658
0.6880000000000001,-0.3418591829181927,5894.117319438475
0.6920000000000001,0.0719452624536531,5906.500460502712
0.6960000000000001,0.38826408116105243,5900.634888524392
0.7000000000000001,0.5787488260222661,5901.645936304253
0.704,0.6416991662127142,5898.19949667055
0.708,0.5953895551044066,5900.30923707318
0.712,0.4692773214927552,5895.920960511116
0.716,0.2960774059910282,5898.597121024637
0.72,0.10632599090500137,5901.051534531965
0.724,-0.07460662579909791,5898.72814989258
0.728,-0.22810216160026137,5905.977997896531
0.732,-0.3431660945522636,5899.149018205913
0.736,-0.4162989455794318,5898.8575042327575
0.74,-0.4500705009156168,5893.055528236507
0.744,-0.4511795334574959,5894.245611878556
0.748,-0.4294558186046703,5905.246154534192
0.752,-0.39846609459201404,5895.810707937791
0.756,-0.37653148876985737,5905.846191347505
0.76,-0.3855308169125297,5886.313204587375
0.764,-0.44549455314973696,5904.511513677382
0.768,-0.5658465269980841,5901.184571192893
0.772,-0.7371920937516487,5903.266120322759
0.776,-0.928444963033026,5904.501527134414
0.78,-1.0922243597910812,5903.550563663025
0.784,-1.177832489489367,5901.475596155536
0.788,-1.14738360630149,5900.556698290876
0.792,-0.9887106585467348,5900.229022208915
0.796,-0.7199098719228942,5896.714315794817
0.8,-0.3842258019639299,5906.144079811609
0.804,-0.038040049558688914,5891.887496487747
0.808,0.26308199187867737,5903.598407955337
0.812,0.47566721920332794,5901.794310656888
0.8160000000000001,0.5747859691571425,5894.80862771471
0.8200000000000001,0.5565195071704889,5902.0161568348
0.8240000000000001,0.43841147211035514,5898.657916183961
0.8280000000000001,0.2585052935921299,5905.630873781953
0.8320000000000001,0.07183231628570833,5903.428582931577
0.836,-0.05683298500588989,5902.74887724923
0.84,-0.06399058548025144,5898.912583051282
0.844,0.09864766819093114,5895.961856928543
0.848,0.4491403803559099,5902.72783901787
0.852,0.9631342650498613,5906.111662139436
0.856,1.570139509581621,5905.905550488831
0.86,2.162411856420626,5900.163293124348
0.864,2.6159600074530447,5907.554396728972
0.868,2.81857982066377,5892.200957660797
0.872,2.6976788991756977,5900.157520360244
0.876,2.24078688960389,5892.985580606948
0.88,1.5030084412906213,5893.612732573953
0.884,0.5982506689489061,5902.967245282393
0.888,-0.3249016890985112,5901.828958184231
0.892,-1.117139985249393,5900.569604135642
0.896,-1.66311249945551,5904.267315679257
0.9,-1.906690486308375,5910.949038447243
0.904,-1.859061237220639,5903.302790546035
0.908,-1.5877146596350442,5898.7446783533005
0.912,-1.191750770962291,5891.78320265901
0.916,-0.7738286891225226,5902.158706646158
0.92,-0.41838635667686475,5901.671770764873
0.924,-0.18063582440455822,5912.116630188376
0.928,-0.08537442894844412,5896.348417623892
0.932,-0.1316463990703531,5894.9224732381845
0.936,-0.29890898925057735,5901.474304530282
0.94,-0.5519005438090024,5895.952327146208
0.944,-0.8442336648793137,5895.717173116225
0.948,-1.123334452432132,5899.282500225228
0.952,-1.3393499864686442,5899.473393024014
0.956,-1.457293256907201,5904.080000184149
0.96,-1.4675713056411457,5900.774753227759
0.964,-1.3888930700058928,5897.247614808826
0.968,-1.2606626901561484,5900.90126313819
0.972,-1.1273692974853076,5900.586484628677
0.976,-1.0218486825237347,5896.015806241017
0.98,-0.9548561784278649,5893.336470791809
0.984,-0.9145761916479089,5901.693531243773
0.988,-0.874130387238999,5902.327854829763
0.992,-0.8019628694956643,5897.76112144388
0.996,-0.6709097212508307,5908.729416197076
1.0,-0.4646701221859715,5903.213035518678
1.004,-0.1820660622860261,5897.451652978255
1.008,0.16106301470033593,5901.76508413225
1.012,0.533622169451067,5897.121918218363
1.016,0.8957267775651722,5897.385248754077
1.02,1.2088583378931577,5894.402652886739
1.024,1.446021527320643,5902.290204747714
1.028,1.597016003779833,5902.6446669736
1.032,1.665952475869436,5904.7428815172925
1.036,1.6627323984270748,5896.691879272999
1.04,1.5941168622966146,5901.525066619557
1.044,1.4603955654646603,5897.483233190688
1.048,1.260342329932455,5903.693919983597
1.052,1.0017162034108,5905.413867961233
1.056,0.7098855591779334,5906.731610018594
1.06,0.42702243935151807,5892.288977936888
1.064,0.20008920154730078,5895.425225241428
1.068,0.06348485134306589,5899.909234029352
1.072,0.025712338400449345,5901.145767174638
1.076,0.06668938522795455,5906.479209424586
1.08,0.14619975186760642,5902.146388291014
1.084,0.21877350973772036,5898.009684549658
1.088,0.24860123557135527,5891.073954705242
1.092,0.21960975638112304,5898.985071564269
1.096,0.13827550714872955,5903.550725887847
1.1,0.028758779091696995,5900.804119565968
1.104,-0.07785694702810304,5899.641928556282
1.108,-0.15599716891861862,5906.069267568234
1.112,-0.1946562522021891,5900.705701929565
1.116,-0.19988978690820178,5903.1239380304405
1.12,-0.19060773460405417,5903.99641281477
1.124,-0.1898869370293797,5904.02437232066
1.128,-0.21515307942069656,5895.966638745499
1.132,-0.27074338254461316,5904.992143118443
1.136,-0.34547817265310005,5897.012302843958
1.14,-0.4160749448807744,5903.257505946905
1.144,-0.45531797152770287,5893.6162850726205
1.148,-0.4421814188630375,5905.851944222058
1.152,-0.3695965297648033,5896.092237952612
1.156,-0.2456074712511574,5904.977623866141
1.16,-0.08672242085084281,5895.695514224265
1.164,0.09307269058465516,5903.8993047912645
1.168,0.29119923130884035,5895.259879273193
1.172,0.5176258920352804,5898.788500268633
1.176,0.7870531560749384,5894.748992211489
1.18,1.1064041105257107,5905.096578340091
1.184,1.464215497269577,5901.52767613167
1.188,1.8262576689982006,5901.927980399202
1.192,2.1382774125207167,5895.864931288142
1.196,2.3354176241836444,5902.064335854257
1.2,2.357319930197383,5900.4144195348645
1.204,2.1659250824502543,5900.472995790971
1.208,1.7606429775472738,5908.448836641503
1.212,1.1851854804842157,5902.797099506711
1.216,0.5225820950955159,5898.755572980668
1.22,-0.12115063171466807,5892.272456129257
1.224,-0.6404129291624638,5903.939498328805
1.228,-0.9542108701994142,5888.937685142204
1.232,-1.024627009089255,5900.113393264796
1.236,-0.8643581228226173,5903.80188600435
1.24,-0.5313018140360699,5899.308363529561
1.244,-0.1124069247046688,5899.810516631745
1.248,0.29801998722154255,5906.740715919344
1.252,0.6194532432203131,5898.045103684804
1.256,0.7999409824682675,5903.069678489992
1.26,0.8204955432976997,5898.32070628527
1.264,0.6891039960732666,5901.269867830234
1.268,0.4292671680900974,5900.878313069439
1.272,0.07001707610792923,5911.147449280578
1.276,-0.358054739469366,5898.36700359286
1.28,-0.8209008511371688,5905.390454941699
1.284,-1.276996529737254,5900.736761492183
1.288,-1.6758686772428248,5909.923004193374
1.292,-1.9622490810212674,5899.349437970154
1.296,-2.085731340192725,5918.742328448753
1.3,-2.0127661776508856,5901.478008708659
1.304,-1.7367603150353268,5898.885192130281
1.308,-1.283164824152534,5906.004644254147
1.312,-0.7082392242289175,5899.503177085348
1.316,-0.09130040294645075,5897.028157390246
1.32,0.4790086639862425,5904.521998323597
1.324,0.9223499368428645,5901.675857038916
1.328,1.1837779413292784,5902.9420760384055
1.332,1.244559824290114,5904.931975884763
1.336,1.1225994723997985,5909.896280375325
1.34,0.8626189099657354,5904.368034917709
1.344,0.5211041545842221,5893.464317148773
1.348,0.15328865365001437,5906.956488215319
1.352,-0.1931361409110662,5897.20330583357
1.356,-0.4787898814595485,5902.6651686159485
1.36,-0.6731236200419497,5898.707907178602
1.364,-0.7584540615223954,5905.561900791875
1.368,-0.7361094857713366,5890.848999657564
1.372,-0.6297284252429888,5906.806130717216
1.376,-0.4815004727141998,5897.458329988949
1.38,-0.3407909918080327,5897.770634556226
1.384,-0.24877442085057203,5896.968621138648
1.388,-0.22546078109288176,5902.234502065654
1.392,-0.26500902946093285,5903.774687872582
1.396,-0.34131993645327585,5908.22064864333
1.4,-0.42087900200020056,5898.16965160821
1.404,-0.4764579330502073,5913.734388243804
1.408,-0.49525835591610384,5894.254437780256
1.412,-0.4784957497646438,5908.171036251914
1.416,-0.4342878083705688,5909.91074409779
1.42,-0.3689290994933937,5906.718781765804
1.424,-0.2816556816406935,5899.2608767154825
1.428,-0.16569844590778088,5901.682708461341
1.432,-0.015181011582456303,5898.87276709998
1.436,0.16583577628303664,5903.0745825495815
1.44,0.35757222843147013,5896.509915779639
1.444,0.5259286447878975,5905.2159190427055
1.448,0.6310609700636799,5899.30775148548
1.452,0.6397441965589977,5908.743262860667
1.456,0.5370228996062363,5904.488930750022
1.46,0.33323544176729514,5909.333060113507
1.464,0.06397646573302038,5894.019136645133
1.468,-0.21731301457432578,5891.483747824612
1.472,-0.4521828241804252,5901.296174016177
1.476,-0.5917484188991259,5906.311185137744
1.48,-0.6085819117606477,5899.8953582910135
1.484,-0.5024330676115993,5914.009247326678
1.488,-0.29883655617270455,5901.69673850185
1.492,-0.04227131288151439,5903.7570529941295
1.496,0.21347890908646083,5896.396777396989
1.5,0.41597177546186664,5889.36565894188
1.504,0.5250754142197567,5896.719519876498
1.508,0.5229612878481854,5902.812895240072
1.512,0.41986781265943235,5893.664859292912
1.516,0.25188385713449224,5896.049475150096
1.52,0.06951245953528642,5892.346100545961
1.524,-0.08006238388110715,5901.314443191141
1.528,-0.17059759218569817,5901.269978032543
1.532,-0.20691476042953358,5906.397204467793
1.536,-0.22255879888643385,5901.30963384393
1.54,-0.26500685276693303,5898.768916306816
1.544,-0.37365770638399315,5909.943844137172
1.548,-0.5590023020418134,5908.573407737901
1.552,-0.7913357520630986,5911.921807465329
1.556,-1.004294201924624,5902.279395834839
1.56,-1.113551097884585,5905.293842148835
1.564,-1.045495500782933,5905.048256406781
1.568,-0.7660942627537991,5902.668910635302
1.572,-0.29872449768708936,5905.149808335161
1.576,0.27652014391839186,5894.600740590817
1.58,0.8420384498116996,5906.309848960307
1.584,1.2736019004615577,5914.837834753157
1.588,1.473231692449383,5907.070563617905
1.592,1.395142199936432,5893.447773957492
1.596,1.058200897490574,5900.490109015835
1.6,0.5416577941478659,5904.508913792288
1.604,-0.03479991477527402,5905.32034359269
1.608,-0.5411123516535649,5902.451046078374
1.612,-0.8685637157980066,5898.084090889793
1.616,-0.9545874157153693,5900.811929982112
1.62,-0.7944515041316151,5902.36208664484
1.624,-0.4374283826308731,5906.549656283729
1.628,0.030369613191107776,5904.209825432181
1.632,0.5102721912443631,5894.902995585388
1.636,0.9147485020164619,5904.682094180816
1.64,1.1842292362819904,5902.803555817721
1.644,1.2934384845797577,5909.800428484657
1.648,1.2468641071838855,5906.56126973657
1.652,1.0669982507881768,5901.209333212474
1.656,0.7818491182664408,5888.762186717619
1.66,0.4173930740425954,5901.096284907644
1.664,-0.0031400676000573084,5906.972478534079
1.668,-0.45489633778413224,5913.016648282328
1.672,-0.9056878206324495,5905.122393432919
1.676,-1.313414435643897,5906.610687459573
1.68,-1.6302937601531216,5911.2198698419
1.684,-1.8141171404072844,5900.947613517458
1.688,-1.8415564198632157,5904.339732135328
1.692,-1.7158326784523974,5896.832626095323
1.696,-1.4641051876045075,5907.639399376734
1.7,-1.1267140642521585,5907.926745233455
1.704,-0.7453734027342392,5899.152490952229
1.708,-0.35690887712863417,5908.83575117074
1.712,0.005760561730448498,5905.68653582346
1.716,0.3089890058250771,5894.424968121806
1.72,0.5161275879534809,5904.718983566277
1.724,0.5920030587399396,5906.38426170062
1.728,0.5136365217231859,5899.874792811523
1.732,0.2816437016680997,5907.700386054818
1.736,-0.07426086929441321,5902.417771329527
1.74,-0.4985033405706892,5889.572229319263
1.744,-0.9197303485476305,5901.131074893834
1.748,-1.2637283725966126,5901.949883201108
1.752,-1.4659964046505796,5900.326578227001
1.756,-1.4824708475859039,5896.523776782717
1.76,-1.297620663340176,5899.834690195832
1.764,-0.9288160041305904,5902.2309648256505
1.768,-0.4258286738572877,5898.089206025582
1.772,0.13504962462326117,5900.638287104571
1.776,0.6624498600274967,5909.057567000096
1.78,1.0667607330832494,5913.040696407792
1.784,1.2801052623194087,5908.418162567914
1.788,1.2739275286007468,5898.73500806116
1.792,1.067391442131273,5909.556360213696
1.796,0.7224110491061799,5903.748161602744
1.8,0.32638678908242574,5895.6641339840135
1.804,-0.031186727609542293,5905.840854056699
1.808,-0.2798953439848323,5900.314405246919
1.812,-0.38087106459600756,5903.08200490072
1.816,-0.3285021007956768,5905.49595731203
1.82,-0.14377277471145128,5903.329917364993
