时间(s),电压(V),幅值(高频80K)
0.0,-1.045174284322187,5897.857363734526
0.004,-1.0907932788553152,5892.929615405587
0.008,-1.1576427253225605,5907.315198564048
0.012,-1.2524905469626249,5894.771874241323
0.016,-1.3677376865370643,5901.63680424802
0.02,-1.485179633219762,5902.073457396728
0.024,-1.5842454768859333,5895.404693754063
0.028,-1.6497812381093806,5904.329254064415
0.032,-1.6764157829742694,5907.423531908583
0.036,-1.6688946187345792,5902.379944361258
0.04,-1.6387482625808596,5901.675308889607
0.044,-1.598520265643186,5894.937546043574
0.048,-1.5564503171329154,5898.748888192284
0.052,-1.514896185362636,5908.54498283021
0.056,-1.4729297177916774,5896.911395422194
0.06,-1.42973094104282,5899.734074965228
0.064,-1.384851146535256,5900.770198013403
0.068,-1.3348967991311127,5898.537324360755
0.072,-1.2702241025826726,5912.219036126221
0.076,-1.1760113696704797,5895.962589710414
0.08,-1.0390659341395867,5893.954563262752
0.084,-0.8577335302916598,5894.845680623137
0.088,-0.6501273465258302,5902.159819690556
0.092,-0.4558411836752813,5900.302005968753
0.096,-0.3276946076451161,5897.7858623654165
0.1,-0.3135649830395159,5895.520762684447
0.104,-0.4340195807893375,5896.4964838900805
0.108,-0.6658743520070279,5907.767393725784
0.112,-0.9407949184862017,5903.7596476976405
0.116,-1.1615719394942456,5906.8785266759605
0.12,-1.2308825419615508,5901.992993585463
0.124,-1.082549431621429,5904.521296217455
0.128,-0.7052563050347772,5903.125483572349
0.132,-0.1520226281970131,5899.879131731361
0.136,0.4672929803468164,5904.732024796062
0.14,1.0098255432405874,5905.852198633651
0.144,1.3354238419131337,5900.227982651639
0.148,1.3452373423805422,5901.83867670627
0.152,1.0112980382766419,5892.095555980799
0.156,0.38695833630025583,5908.972386027673
0.16,-0.4057616672671704,5900.184397420016
0.164,-1.208131321470356,5904.078045569125
0.168,-1.8660018795514812,5900.151577765908
0.172,-2.267741856482155,5899.718102483397
0.176,-2.3676120835588126,5902.261590730293
0.18,-2.188423398011542,5892.822418144095
0.184,-1.8040789400518524,5896.852849448414
0.188,-1.3091949794929918,5902.9189432523735
0.192,-0.7876146839149973,5893.369944282985
0.196,-0.2918099829929292,5908.493494855932
0.2,0.16055638949292073,5904.976542847805
0.204,0.5755177284985489,5906.047177651856
0.208,0.9658693006554203,5904.49644629296
0.212,1.337085492240363,5903.002242582116
0.216,1.6805159154712737,5893.100265889869
0.22,1.9739446128248288,5897.572979168469
0.224,2.1871930885440465,5896.934931087475
0.228,2.2898030993994856,5897.745953390921
0.232,2.2584309218349947,5894.220930311869
0.236,2.0829672966524653,5896.298161252978
0.24,1.7713749587121808,5898.282898413928
0.244,1.3526553296221564,5891.752042635253
0.248,0.8760303232391795,5904.7827424223815
0.252,0.40454931648827314,5894.697854954473
0.256,0.0036677804700810416,5908.516412880145
0.26,-0.27185292498338365,5890.543836337258
0.264,-0.3885932148337057,5898.21640987986
0.268,-0.3403327220242855,5905.201682940836
0.272,-0.1490415924567538,5896.882011570661
0.276,0.13847102385953752,5900.2337532721
0.28,0.45827445646922876,5890.354821382381
0.284,0.741058555551876,5894.053441130529
0.288,0.925716504648515,5899.160173210047
0.292,0.9710268943845091,5897.863742946657
0.296,0.862402406914384,5890.465016855303
0.3,0.6133893057193275,5888.575047774039
0.304,0.26377756675424,5900.815863050893
0.308,-0.12443886360323085,5894.972868905479
0.312,-0.4745564025705793,5900.788677000335
0.316,-0.7082447386679921,5909.410603648775
0.32,-0.7633913826470321,5906.585867119153
0.324,-0.6116091527233188,5894.035746434735
0.328,-0.26869637625561044,5891.423950217552
0.332,0.20659174952986095,5891.637795432316
0.336,0.7259221770753999,5902.299989370467
0.34,1.192897726486005,5889.792195013288
0.344,1.5258077699238066,5897.715606963389
0.348,1.675092270237318,5900.616997350673
0.352,1.6321132262935056,5909.347720091098
0.356,1.4289126174129743,5899.233874216917
0.36,1.1298362767021526,5907.406277237447
0.364,0.8164074266291809,5901.828354873435
0.368,0.5683670601158782,5902.758959757247
0.372,0.44548105905883106,5900.107281793343
0.376,0.47460636031914466,5887.966318416436
0.38,0.6447546282004514,5906.942400208776
0.384,0.9109806260659665,5894.035253305457
0.388,1.2062262765830831,5899.53621115495
0.392,1.458318051641232,5898.389812641758
0.396,1.6075892952991515,5898.81869181925
0.4,1.620245678547022,5895.428490742212
0.404,1.4940666578206176,5895.270092060229
0.408,1.2556759241849411,5898.243321742217
0.412,0.9512178944198558,5906.753421827663
0.416,0.6338646661446049,5896.203240081092
0.42,0.3519186288902854,5894.848158359062
0.424,0.140465332185292,5911.262313635639
0.428,0.017552224142380043,5899.782193808873
0.432,-0.01637696575789312,5902.044533958645
0.436,0.02246693583907263,5914.564074787225
0.44,0.10379941418686797,5895.139079695541
0.444,0.18926779792934298,5903.192114499735
0.448,0.2424780460017787,5905.7355404704485
0.452,0.24025359925159742,5898.190842829374
0.456,0.18017630587729053,5892.509243589997
0.46,0.08075366393624599,5893.014098014684
0.464,-0.025904756325316938,5891.1195537619815
0.468,-0.10585890186374464,5889.776306428322
0.472,-0.1350362699068238,5900.793275361514
0.476,-0.10671529008493544,5900.648127420081
0.48,-0.0326564728803768,5896.239791029172
0.484,0.061711917739191956,5902.1710594318765
0.488,0.14574083936941246,5896.724163328481
0.492,0.1922242466010231,5900.620273491558
0.496,0.1826860847513422,5896.448735772493
0.5,0.10738104109599184,5900.261145467032
0.504,-0.038367534582515954,5891.967865473372
0.508,-0.25706308104606274,5893.180504866748
0.512,-0.547545996008608,5898.072923498532
0.516,-0.8993359475143464,5899.386137795541
0.52,-1.286351233925359,5893.4276405067885
0.524,-1.6642943179475127,5897.451221320075
0.528,-1.9748728518424097,5899.697006646911
0.532,-2.1576797203682285,5903.2826329191375
0.536,-2.1668420758652185,5905.560239884886
0.54,-1.9860171979613948,5884.686101176045
0.544,-1.6348988731473584,5895.873564050531
0.548,-1.1640100707691692,5895.167708840535
0.552,-0.6401022349047166,5892.578335249787
0.556,-0.12890578687926132,5905.71360814515
0.56,0.3171045603322155,5892.605391786176
0.5640000000000001,0.6616174336889299,5905.207814397787
0.5680000000000001,0.8796298879284763,5886.328127468779
0.5720000000000001,0.951147087617232,5901.424847075605
0.5760000000000001,0.8601329364636721,5901.157801845304
0.58,0.6008736509673096,5890.976765991105
0.584,0.1875444184345979,5908.673392284321
0.588,-0.34043621651549894,5895.824298551443
0.592,-0.9219818164893081,5898.622471308821
0.596,-1.4854029340404478,5898.615061990908
0.6,-1.9612572645770212,5903.774409129701
0.604,-2.291994639291613,5892.48158348427
0.608,-2.4374410212901614,5899.0107766800165
0.612,-2.378184116379101,5902.081461015653
0.616,-2.118245616988291,5892.486252528368
0.62,-1.6857476372463116,5893.678899639316
0.624,-1.12947482545921,5897.826275620759
0.628,-0.5113903652605497,5900.394951991965
0.632,0.1025273929072796,5910.651259944295
0.636,0.6508387059768864,5902.808187200347
0.64,1.0838656511179445,5907.536561798781
0.644,1.3696648483880793,5900.495400461569
0.648,1.4983900072614071,5901.315541347901
0.652,1.4838774794745686,5898.943230293654
0.656,1.3607440226163048,5905.897360801683
0.66,1.1757980278790219,5897.367457426904
0.664,0.9750217799463775,5885.766753654608
0.668,0.7907107871355679,5906.35742350459
0.672,0.634492838719577,5896.126875110094
0.676,0.49930251910025575,5894.823172765071
0.68,0.36875409771888734,5904.713589398155
0.684,0.2287679071738765,5899.997844441351
0.6880000000000001,0.07561061652862265,5895.327796124108
0.6920000000000001,-0.08306986758007358,5905.161927209081
0.6960000000000001,-0.23357388131420076,5903.756279400185
0.7000000000000001,-0.36414643368274735,5900.876966449471
0.704,-0.47143670951792876,5901.285937511647
0.708,-0.5623767319462318,5898.63246582363
0.712,-0.6499853785854566,5899.99617344874
0.716,-0.743879824966584,5905.693316069786
0.72,-0.8396098907195017,5893.303885919667
0.724,-0.913292989019803,5895.1995954515205
0.728,-0.9264231031060142,5903.106785006504
0.732,-0.8401505744118154,5902.366841973636
0.736,-0.632763252809229,5903.768297837651
0.74,-0.31251325741494657,5890.369912621227
0.744,0.07960182436882099,5905.989885799824
0.748,0.4785271166444122,5897.399698717742
0.752,0.812856290281006,5901.931125869701
0.756,1.0257484811018527,5904.247774997984
0.76,1.0916025992696208,5897.480314881512
0.764,1.0223912596481257,5891.663673167286
0.768,0.8613313774453509,5905.68557252687
0.772,0.6660026835720563,5900.775082309128
0.776,0.4870792940125524,5892.789108813371
0.78,0.35148955047034547,5901.582207385078
0.784,0.25769600622829664,5893.509171048
0.788,0.18478879493842038,5901.753720665663
0.792,0.10981327653170644,5899.621427460486
0.796,0.024318210712083618,5884.601623139798
0.8,-0.05772731999801615,5907.775359104412
0.804,-0.10484558400746093,5900.730023290214
0.808,-0.08430658137373621,5901.54657305498
0.812,0.018328257402837167,5899.067477506338
0.8160000000000001,0.18719126661897686,5895.731349298835
0.8200000000000001,0.37823744018691685,5892.796953880485
0.8240000000000001,0.5342010230563136,5893.329489035723
0.8280000000000001,0.6050805585009607,5889.721834238006
0.8320000000000001,0.5654306569325799,5894.383977639844
0.836,0.4222349834400276,5893.291916903249
0.84,0.211504376183214,5900.467102278408
0.844,-0.014181379677292294,5899.384150816563
0.848,-0.2023134004575505,5892.324999074335
0.852,-0.3153738807273979,5903.444952346692
0.856,-0.33899837372504005,5894.948066447514
0.86,-0.28118386458486383,5899.5402627614885
0.864,-0.16426720580134127,5893.670005445417
0.868,-0.014489636240299779,5910.542438621428
0.872,0.14554310272992962,5893.070162238084
0.876,0.2985695210822927,5899.689552560769
0.88,0.4296020846422278,5897.504824510296
0.884,0.5224698603393868,5896.840023656659
0.888,0.5605129813419429,5902.202499988396
0.892,0.5324506642793697,5894.854110406983
0.896,0.44011925616760705,5894.181096902754
0.9,0.30296790280043484,5899.1156791477815
0.904,0.15567556900601515,5898.7785849253605
0.908,0.03860048811964709,5903.906048679642
0.912,-0.015894412235044352,5897.181678076606
0.916,0.003890727665655501,5905.350130972436
0.92,0.08288703340656076,5899.406899984373
0.924,0.18356338041102435,5899.917707579995
0.928,0.26025361067990244,5895.321422054398
0.932,0.27787144346127773,5900.422306489161
0.936,0.22672031002205584,5894.395455338402
0.94,0.12718581369004053,5901.135891734092
0.944,0.023208676662514312,5893.134558000222
0.948,-0.031883177119257214,5895.485526018505
0.952,0.008433895207569493,5895.953808829183
0.956,0.17036943777588742,5888.5388635037125
0.96,0.45141642846137064,5900.600432203197
0.964,0.8180802127699307,5900.446974831633
0.968,1.2103255096876915,5891.981147356395
0.972,1.5521823124949272,5901.6475171379325
0.976,1.7661673720185906,5899.520514884474
0.98,1.7885331527700004,5886.770226480949
0.984,1.5830930972712995,5899.140812211639
0.988,1.151827807897796,5899.898155928814
0.992,0.5397119066502089,5908.783018674121
0.996,-0.1695746916755763,5895.936816794723
1.0,-0.8689511634082143,5894.090407432979
1.004,-1.4517966601625896,5909.72881970936
1.008,-1.8371517010623892,5893.957791637094
1.012,-1.9878024717310971,5904.234766368052
1.016,-1.91606896915104,5898.845542923044
1.02,-1.6769786333910528,5892.109325424393
1.024,-1.3518626450325806,5906.548313770997
1.028,-1.0269732467378472,5904.57935816625
1.032,-0.7725547274649658,5900.2736062048025
1.036,-0.627974424524082,5895.555819007887
1.04,-0.5971670519467555,5892.015323836215
1.044,-0.6552813501315753,5901.440469722483
1.048,-0.7629396179781781,5891.125012480066
1.052,-0.8813995982380468,5899.416601561281
1.056,-0.9825101289598058,5898.19291513511
1.06,-1.0513296022500374,5900.727925212969
1.064,-1.0835464662140633,5894.342048689085
1.068,-1.0816621868628957,5896.741940925203
1.072,-1.05295272063289,5889.324713048692
1.076,-1.0095882800166145,5896.398187167177
1.08,-0.9684725251785308,5893.542555877642
1.084,-0.9477137780226446,5900.35050581734
1.088,-0.9595511146083067,5902.628604048255
1.092,-1.003508358372286,5904.959821826011
1.096,-1.0641933122224323,5903.206602759069
1.1,-1.1148933209445921,5905.286185395127
1.104,-1.124669116912328,5902.087785481556
1.108,-1.0659274317234548,5890.267010135331
1.112,-0.9206141263995982,5894.370727924612
1.116,-0.684181349353207,5893.024890941722
1.12,-0.3670526062063496,5896.3656330392905
1.124,0.005930420378434602,5897.073776280359
1.128,0.3971657420790779,5887.686594077502
1.132,0.7590249253992376,5892.243869961388
1.136,1.0390264631254695,5900.414295020283
1.14,1.1886412974639375,5902.98594702521
1.144,1.1746620401426475,5901.280285278621
1.148,0.9894059124016237,5904.970296924603
1.152,0.6551577311996812,5895.878375569206
1.156,0.22029062450134787,5893.062583405355
1.16,-0.25166152351544113,5896.352716691928
1.164,-0.6958154182997396,5891.663090376532
1.168,-1.0581778352761004,5898.853888271724
1.172,-1.3033734694355972,5904.029798109525
1.176,-1.4168536649221657,5899.888748097783
1.18,-1.402341407691378,5900.069785849533
1.184,-1.276543819654018,5894.917698025511
1.188,-1.0636492181249244,5902.349770862935
1.192,-0.7915991048668952,5897.879552776167
1.196,-0.4903678815811606,5893.7317474733445
1.2,-0.19043053889122485,5901.480748807538
1.204,0.08038016764643302,5898.034670292908
1.208,0.30080125344822745,5898.158594353285
1.212,0.45788257303689395,5893.522429236943
1.216,0.5447254028915461,5905.606149480005
1.22,0.5558541653465412,5884.375784571733
1.224,0.48442372704136666,5891.70533857851
1.228,0.32479569593750524,5900.283743337677
1.232,0.08017345155857494,5887.723743640831
1.236,-0.22946455977434518,5889.9458459328425
1.24,-0.5654438496274694,5900.2033658194905
1.244,-0.877725440603656,5906.029663349696
1.248,-1.1189523966796715,5885.016433181989
1.252,-1.2585223386248352,5896.084860789702
1.256,-1.2902739606352673,5894.40079202333
1.26,-1.2310428912154632,5894.8877860903285
1.264,-1.1114652667813816,5896.972481497376
1.268,-0.96304314105022,5895.616319883857
1.272,-0.8063076663898672,5900.327531510608
1.276,-0.6442741294926105,5899.541175670662
1.28,-0.46352956638293763,5886.250748352291
1.284,-0.24256439727172666,5897.167733185054
1.288,0.035832705813715116,5900.073888200837
1.292,0.3731068312062162,5898.632895963089
1.296,0.7491724610519356,5898.9598164976815
1.3,1.1244030418609545,5895.146611120324
1.304,1.4476394896569098,5902.441550760426
1.308,1.6665415624493916,5891.392364706082
1.312,1.7375394099147292,5901.635274949894
1.316,1.6344277830181333,5897.721344138178
1.32,1.3552034497258167,5898.354779806486
1.324,0.9260935580916173,5902.729335952723
1.328,0.4009433105894313,5893.907246933774
1.332,-0.14576325965127215,5894.838127733775
1.336,-0.6324825995230786,5886.841460828025
1.34,-0.9886714581589213,5889.057808348526
1.344,-1.172946843538116,5897.034367766342
1.348,-1.1853911810670743,5909.77005729076
1.352,-1.0682648721739303,5895.09262124481
1.356,-0.89279835730882,5897.276330251599
1.36,-0.7355045851544009,5900.493981539176
1.364,-0.6522872238692895,5896.440226119011
1.368,-0.659937839264543,5898.267393768732
1.372,-0.7320145749165159,5897.487231769013
1.376,-0.8103384116744445,5900.11201902669
1.38,-0.8267014976620245,5899.63607973747
1.384,-0.7257914724503173,5888.277858543364
1.388,-0.4819556333435061,5881.81685001026
1.392,-0.10687028957203304,5895.39154366181
1.396,0.35157537560311863,5898.157568123346
1.4,0.8179813653362197,5898.3932891023
1.404,1.2043317642767766,5905.923449717529
1.408,1.4287278415327909,5896.658555850149
1.412,1.434002794331808,5899.72933945227
1.416,1.2012974432809813,5904.393581340301
1.42,0.7547687954429283,5902.094777620347
1.424,0.15669761257688858,5902.080196411572
1.428,-0.5047205211455487,5895.179189004393
1.432,-1.1315212250747426,5903.149414280169
1.436,-1.6330121007708507,5896.798946025463
1.44,-1.9410030170796517,5898.928089654615
1.444,-2.0207119365314408,5897.810945601073
1.448,-1.8754605751509374,5895.105170769491
1.452,-1.5443494805812894,5894.031838198156
1.456,-1.0934468705082347,5902.787414714127
1.46,-0.6025617800873354,5898.791152765255
1.464,-0.15071217600374992,5896.089792213761
1.468,0.19695215646353328,5898.068740635791
1.472,0.39926742148532646,5901.646704256144
1.476,0.44528350940044753,5896.727981386734
1.48,0.3553041021519454,5904.360856468238
1.484,0.17572053896785908,5899.310758460531
1.488,-0.03154170080023477,5893.25754748652
1.492,-0.20204958742759116,5895.0662053114165
1.496,-0.2810772973230242,5884.367456249781
1.5,-0.23339583501085184,5902.364778022191
1.504,-0.05071758509433192,5896.6416878170985
1.508,0.2437867759079112,5894.7198919538
1.512,0.5968723935045633,5894.3501400182895
1.516,0.9357133698780105,5901.217155481335
1.52,1.186546855565024,5899.630982941711
1.524,1.2950728493274006,5902.034656498194
1.528,1.2405658256000534,5908.211648998325
1.532,1.038965885432231,5897.065037680084
1.536,0.7353746421460932,5897.581370258977
1.54,0.3900674308204096,5888.907411343014
1.544,0.06337818421777944,5899.965500003206
1.548,-0.19594579564090397,5899.177911862244
1.552,-0.3566515194129364,5904.992898399984
1.556,-0.4058695725790065,5898.21078451817
1.56,-0.3474603417054124,5896.646790116352
1.564,-0.19965483620476093,5900.15567454146
1.568,0.00801068529444354,5898.485661560809
1.572,0.23930201291446407,5904.672788696566
1.576,0.45750802730595297,5895.219878252612
1.58,0.6322797954482194,5891.157605240572
1.584,0.7456484781659052,5898.945985711953
1.588,0.7953899588130804,5894.071507222922
1.592,0.7935624777179661,5906.338585067638
1.596,0.7595123322184995,5900.927029892247
1.6,0.7101935525020852,5890.224325126183
1.604,0.6529804795640173,5903.276124776607
1.608,0.584556784050075,5901.019223215157
1.612,0.49551955590617575,5893.074539074614
1.616,0.3773231730344766,5890.195634431178
1.62,0.22768657537939496,5894.341147743321
1.624,0.052336313989752074,5890.078377143449
1.628,-0.13651293266081915,5894.355756865811
1.632,-0.32297024680349257,5896.896161850907
1.636,-0.4895829080892818,5903.351543545275
1.64,-0.617740693580386,5894.936058997439
1.644,-0.6867311972193461,5900.471656085277
1.648,-0.6731464934563275,5886.562803616835
1.652,-0.5529527501388584,5887.018367122314
1.656,-0.30761319647518076,5891.998637421811
1.66,0.06681941910440721,5892.533440198174
1.664,0.5513306816247245,5892.407299900186
1.668,1.1006148542544334,5891.733285667255
1.672,1.6469635566887524,5894.958134574794
1.676,2.1103127855360237,5901.56755847943
1.68,2.4116901800574544,5896.481152089183
1.684,2.4876960148732756,5902.426722625375
1.688,2.304306808151321,5903.9084197674565
1.692,1.867884683659727,5895.374749401932
1.696,1.2303934584070328,5890.837365489039
1.7,0.4856311548604871,5892.394891616
1.704,-0.2453245617319019,5908.372245310756
1.708,-0.837998694346863,5899.611410107728
1.712,-1.1923250845972644,5889.44948586494
1.716,-1.25655437766814,5889.168526640927
1.72,-1.0398759647413833,5888.568698456952
1.724,-0.6094937446547706,5900.0295419585045
1.728,-0.07267243110843578,5895.796849186379
1.732,0.45090725419606836,5896.784526432702
1.736,0.8581005149649403,5894.079339753001
1.74,1.084200343337279,5898.589129157551
1.744,1.112466161066718,5899.431095439475
1.748,0.9703907545198815,5901.240515457007
1.752,0.7156906018519773,5901.2664212877135
1.756,0.4172825398635453,5902.544373837587
1.76,0.13694631115036632,5900.750100846363
1.764,-0.08381841450505907,5892.8934055150285
1.768,-0.22916718764046742,5885.391196689579
1.772,-0.30590659875356513,5893.18696992642
1.776,-0.33379913373671705,5888.852062782203
1.78,-0.3333394346930342,5900.008993628736
1.784,-0.3160858356828718,5906.832112728437
1.788,-0.28094413009960967,5903.903928374326
1.792,-0.21676789812414038,5892.165751215112
1.796,-0.10916638514555657,5893.005911728327
1.8,0.05162786819173289,5899.806560529465
1.804,0.2647248428972511,5895.49483097867
1.808,0.516299847641311,5901.876168852773
1.812,0.7815624956516861,5890.234641273975
1.816,1.0296830202594005,5905.15462301641
1.82,1.2292144884535938,5898.685229359608
