时间(s),电压(V),幅值(高频80K)
0.0,2.593715145681814,5901.118984006949
0.004,1.529556579487818,5907.365727010104
0.008,0.5829755557574373,5895.245139124542
0.012,-0.14968452329775503,5892.34541327169
0.016,-0.6068378552360756,5897.289024898464
0.02,-0.7738040411752553,5901.515777797241
0.024,-0.6868876725221569,5905.19034250796
0.028,-0.4256897640757159,5897.040083217368
0.032,-0.09390150990307591,5910.022710690356
0.036,0.20649849543271062,5902.777541986932
0.04,0.4003520545397323,5897.362659528517
0.044,0.4568569301154859,5896.867553462096
0.048,0.3943455875430725,5900.301121393038
0.052,0.2699289331713006,5901.955896087478
0.056,0.1566326340011277,5892.148453204472
0.06,0.11640593552264643,5900.463322992557
0.064,0.17952957381186715,5897.182868854108
0.068,0.3372299136043527,5902.248964804448
0.072,0.5476787537623169,5893.011922314086
0.076,0.7508149028496034,5907.496844311998
0.08,0.8862590057094046,5904.286436171815
0.084,0.9094178634337011,5901.159567465762
0.088,0.8021643397280261,5911.25170706639
0.092,0.5762322460118143,5895.547887673781
0.096,0.26964636261781305,5893.728402516482
0.1,-0.061890330859566446,5904.164448213644
0.104,-0.3564460817488316,5898.266980638258
0.108,-0.5584257138614418,5901.892356749015
0.112,-0.630641165379939,5904.282489929447
0.116,-0.5634572315360408,5900.904139120074
0.12,-0.37764317202847386,5902.647894510131
0.124,-0.11848108476037789,5899.33400774233
0.128,0.1577218733324109,5895.793562333607
0.132,0.39974619438607023,5899.398435801815
0.136,0.574487659381106,5907.137764104051
0.14,0.6735769491612557,5897.551881719327
0.144,0.7129189857800032,5903.975854167828
0.148,0.7256106727169421,5904.996266535005
0.152,0.7493969169579103,5905.195693130634
0.156,0.8116761461170129,5891.394457711452
0.16,0.9173050430101745,5894.179259050608
0.164,1.0446316044781396,5914.852087669953
0.168,1.1521131953191086,5900.925986518353
0.172,1.1930325422420516,5898.288895871433
0.176,1.132158028372554,5906.254261571038
0.18,0.9578696575567374,5901.590779677104
0.184,0.6861167022553832,5900.637650166317
0.188,0.3562238256146837,5897.177666304596
0.192,0.02063418845955234,5906.715098190294
0.196,-0.2687914226440389,5897.217085171252
0.2,-0.474625962039277,5889.444723405752
0.204,-0.5837003874486034,5908.76623016145
0.208,-0.6093920274366481,5900.991912225482
0.212,-0.5854547211672795,5900.854515969572
0.216,-0.5532490008654894,5898.7479190939375
0.22,-0.5460556337122215,5894.544275498609
0.224,-0.5753199570704726,5892.624986787377
0.228,-0.6240802879176085,5903.438156599234
0.232,-0.6512279577684379,5900.99726658336
0.236,-0.6059627549382299,5903.490499451224
0.24,-0.4466908219827651,5895.470361546026
0.244,-0.15622108412728336,5899.630823872461
0.248,0.252705788961559,5896.947292781855
0.252,0.7426445620264428,5891.1639558731495
0.256,1.2642862786120825,5905.2775645370775
0.26,1.771678774880725,5907.436334237994
0.264,2.2341810330470016,5896.653871493942
0.268,2.6404809153812145,5899.602611045524
0.272,2.9928687776094853,5903.658624729501
0.276,3.294541306886269,5897.100291980212
0.28,3.536909348690121,5899.597633727791
0.284,3.694585637595687,5904.547476685647
0.288,3.7316901745695645,5900.0274583289465
0.292,3.6167046617843726,5910.846197815903
0.296,3.338463939147824,5884.127219144964
0.3,2.9156186521432543,5901.314838773183
0.304,2.3957116508792993,5897.855640878733
0.308,1.845123046262308,5901.071949174147
0.312,1.3343377963109055,5897.72965436155
0.316,0.9231403074837619,5894.291676228868
0.32,0.6488832053433095,5894.120997292158
0.324,0.5198419526507763,5903.950906184255
0.328,0.5152898307224092,5896.694156191674
0.332,0.5930785820154323,5900.648798804559
0.336,0.703075412845286,5893.407879826598
0.34,0.8019139634784836,5897.389747731323
0.344,0.8636175701183348,5892.562548291739
0.348,0.8825630078347713,5895.583610053221
0.352,0.8688017697568476,5906.813093303631
0.356,0.8392560177491507,5905.520421841316
0.36,0.8097579075986745,5903.715049187024
0.364,0.7909836606085323,5892.892784115309
0.368,0.7876310659161768,5898.014694970016
0.372,0.7981173689029986,5900.45694874084
0.376,0.8130345883617129,5899.848297247805
0.38,0.8131720221724821,5903.577929252809
0.384,0.7700444099540946,5894.235402238389
0.388,0.6519328475156633,5896.233445212194
0.392,0.43575727113271395,5901.224413570464
0.396,0.1209392713162803,5896.604991991343
0.4,-0.2613261444009364,5903.072504764777
0.404,-0.6490789049020892,5898.641109611851
0.408,-0.9624165120670264,5904.976906894099
0.412,-1.1246693127562253,5902.14113456518
0.416,-1.0849190544475413,5901.604244883773
0.42,-0.834014259808537,5903.047936826561
0.424,-0.4086041388610462,5898.544702201389
0.428,0.11771600052890784,5903.758630033965
0.432,0.6527262345725163,5903.559322441001
0.436,1.1075514319134963,5900.083429769512
0.44,1.4160142832855824,5902.582112054227
0.444,1.5463336455700318,5892.2664252953255
0.448,1.5027647328343636,5899.057424318034
0.452,1.317895356918272,5908.473806942626
0.456,1.038943173513417,5897.764156442077
0.46,0.7131316661644069,5899.724063948464
0.464,0.37753102859306564,5900.090389348002
0.468,0.05684345130732238,5903.710873821595
0.472,-0.23145923459446632,5895.646860681261
0.476,-0.46951371040700435,5898.412840315861
0.48,-0.6351965451082972,5891.615175729834
0.484,-0.705495144427496,5901.883028621751
0.488,-0.6660109504641397,5895.855615520711
0.492,-0.5220996080907829,5908.861376332037
0.496,-0.3059894532378832,5901.048814313636
0.5,-0.07515716823757389,5900.59032364744
0.504,0.09964737438857829,5896.001560070626
0.508,0.15373279018429697,5909.612119955549
0.512,0.04834067565268017,5905.138245649701
0.516,-0.21638003148735557,5900.623058418292
0.52,-0.5998330950504686,5893.066883643826
0.524,-1.0309763434352226,5894.689441555013
0.528,-1.4264403709817197,5901.387881119294
0.532,-1.711528655199315,5906.448457598323
0.536,-1.8382276121962737,5903.667320763839
0.54,-1.7949133253450205,5904.047787840605
0.544,-1.6051330491061582,5897.461848666285
0.548,-1.3172033825745602,5902.6396943090185
0.552,-0.9896635490090501,5897.770521919821
0.556,-0.677694519397206,5895.518524138376
0.56,-0.42327807026867287,5903.06858055813
0.5640000000000001,-0.24957618314451094,5900.545502860442
0.5680000000000001,-0.15910969923522256,5907.726670547728
0.5720000000000001,-0.13532623597465857,5902.370599018188
0.5760000000000001,-0.14729996294317174,5903.290945125317
0.58,-0.15736876119693752,5891.381449598954
0.584,-0.13092241017855513,5895.183597177493
0.588,-0.045936967543031094,5885.373392660906
0.592,0.10137816885269021,5898.591833261621
0.596,0.2973723972765281,5902.07596068012
0.6,0.5175564269581117,5908.488855857706
0.604,0.7353621165822466,5899.7639865945885
0.608,0.9287276931528332,5899.2972853544425
0.612,1.0821899592183284,5906.555306239509
0.616,1.1852061581651103,5898.208853640636
0.62,1.229416894729297,5899.747916192916
0.624,1.2074911498848753,5905.646760543283
0.628,1.1145073507461478,5906.230312917981
0.632,0.9510874511881516,5904.502056115017
0.636,0.7269230511914923,5895.065767616909
0.64,0.4634862034998033,5895.384002444889
0.644,0.1946117845235044,5905.846734858246
0.648,-0.03659719813101492,5899.166377202548
0.652,-0.18539344789069798,5896.417488956057
0.656,-0.2162817552033192,5895.0016468378135
0.66,-0.11362831078514427,5898.48825995988
0.664,0.11197461175221482,5908.546156391613
0.668,0.4236104539005427,5901.475590656825
0.672,0.7639465241645966,5896.573488506936
0.676,1.065815818909281,5900.285584147036
0.68,1.2655726783620878,5887.607075670251
0.684,1.3164374687540363,5895.415675556315
0.6880000000000001,1.198532721295043,5901.827062449561
0.6920000000000001,0.92297876659721,5903.828884251636
0.6960000000000001,0.5290536356223814,5899.313261144714
0.7000000000000001,0.07538694621063335,5894.375434457655
0.704,-0.37204897352389515,5904.771871484023
0.708,-0.7513876993324864,5897.022725543416
0.712,-1.0127261207868021,5892.882386333425
0.716,-1.1219776180756504,5898.178144103778
0.72,-1.0630067234466638,5904.979397893483
0.724,-0.8406060589910952,5909.282916642836
0.728,-0.4842467789661121,5897.898287498729
0.732,-0.04934186638497523,5901.472608365587
0.736,0.3878906638220509,5905.245557955092
0.74,0.7431562119812073,5890.110965136311
0.744,0.9418713713755991,5890.235929414482
0.748,0.9374313250205831,5899.314043657198
0.752,0.7249905153682173,5903.148943096246
0.756,0.34606300810722984,5893.4101919091845
0.76,-0.11912000153576811,5891.47027031571
0.764,-0.5709141584041731,5894.606370122565
0.768,-0.9164099283273872,5893.923415555353
0.772,-1.0945623687566508,5889.725251701876
0.776,-1.0915302714970792,5899.202051822665
0.78,-0.9398418898163323,5895.731367753964
0.784,-0.7013347879261894,5894.392524229917
0.788,-0.44160817774884226,5906.646572602704
0.792,-0.20780983566214395,5895.145111067983
0.796,-0.018742629609500388,5902.456117036243
0.8,0.13122911907650073,5904.605655668533
0.804,0.2596791411682809,5907.359488043795
0.808,0.3825513475778558,5903.255055074562
0.812,0.505418212570656,5905.928922087026
0.8160000000000001,0.622066709099081,5894.574242192519
0.8200000000000001,0.7194275600779031,5903.147096716493
0.8240000000000001,0.7853132503064102,5908.419699990665
0.8280000000000001,0.8146799446464758,5896.645805443928
0.8320000000000001,0.8115100116827472,5899.050460009568
0.836,0.7861338540018225,5895.526163427044
0.84,0.750123766740758,5900.9812593995575
0.844,0.7114374215833095,5901.400708878898
0.848,0.6716145002440607,5910.537049925469
0.852,0.6258347068391595,5903.645562823567
0.856,0.5658556117388129,5902.981777668755
0.86,0.4847138100643214,5903.132084704519
0.864,0.38086703188307974,5897.087131341684
0.868,0.25936924553364016,5901.80466812187
0.872,0.12930656820288722,5906.678763227894
0.876,-0.0007710374668497969,5899.101177099959
0.88,-0.12621850610663438,5893.819500464328
0.884,-0.2462244305059864,5901.909109166187
0.888,-0.3607423421699901,5897.775296652035
0.892,-0.46712960703291984,5889.000364418351
0.896,-0.5594657368075894,5905.244845702707
0.9,-0.6315305799972317,5901.704145696511
0.904,-0.6813680196063568,5900.253838072138
0.908,-0.7137422786926667,5906.351738041146
0.912,-0.7383359888066109,5901.856869087395
0.916,-0.7649072046550923,5904.302792010209
0.92,-0.7985810633865281,5903.674039465892
0.924,-0.8375114433811756,5905.804207814831
0.928,-0.8730425923191316,5897.725883590463
0.932,-0.8915900376641027,5899.924570848407
0.936,-0.8777859610448665,5905.840483467036
0.94,-0.8185195098845806,5896.671599506979
0.944,-0.7069050721338979,5902.022406608166
0.948,-0.5447044030434259,5908.609357599885
0.952,-0.3419096719461643,5901.675503157397
0.956,-0.11324418282978398,5902.9527439594
0.96,0.1267814355130453,5892.861933191086
0.964,0.3669752960277844,5899.221433435023
0.968,0.5980693709094498,5901.603819245875
0.972,0.8074636220336767,5890.501132836722
0.976,0.9740856916703133,5891.212050301112
0.98,1.0677083265880443,5903.013855101923
0.984,1.0543311215263813,5902.870030430549
0.988,0.9057594520539545,5889.234632858978
0.992,0.6095356198282882,5897.995953824042
0.996,0.17546534679501738,5900.798824008283
1.0,-0.3633171706296919,5905.679723126968
1.004,-0.9541740166132912,5909.628032536041
1.008,-1.5310878906578498,5891.586560484243
1.012,-2.0209988747091314,5902.252212454778
1.016,-2.3509290311629307,5896.21136756134
1.02,-2.4582086212226826,5898.646996839871
1.024,-2.3044815664396663,5900.723319096577
1.028,-1.8900893800585024,5892.618071736103
1.032,-1.262376198705779,5887.500885986255
1.036,-0.5122280956431752,5897.738052078556
1.04,0.2424294547267904,5897.878500857228
1.044,0.8819350972601308,5901.398247271059
1.048,1.3110750354249925,5900.358297798237
1.052,1.4783863723461002,5900.532043242168
1.056,1.384413687125284,5910.196400917636
1.06,1.0787884633040727,5896.04058909489
1.064,0.6480356387230685,5900.566137257664
1.068,0.19670145631979893,5903.988993960333
1.072,-0.17464713654823205,5898.254388100107
1.076,-0.3901805725352281,5897.2274154745
1.08,-0.41430132075608983,5893.784266723165
1.084,-0.25875484461341264,5909.857227046319
1.088,0.020891075365738428,5902.350444193513
1.092,0.33958905297846986,5902.261088698905
1.096,0.6044845759773425,5914.023951814635
1.1,0.7375456501493386,5906.450477190366
1.104,0.693094367291085,5905.483799031489
1.108,0.4669153934357446,5887.748824674
1.112,0.0963537845530452,5890.878056140276
1.116,-0.34755447949878043,5910.922561319863
1.12,-0.7740784403803674,5904.057236953222
1.124,-1.0905946261951915,5895.966474327502
1.128,-1.221340832974446,5900.198192300149
1.132,-1.1236730918220834,5890.737431550225
1.136,-0.7982283761049174,5892.932665801771
1.14,-0.29023885386412207,5904.56196681701
1.144,0.31878761781659326,5903.112347516542
1.148,0.9271192545755509,5905.027160476322
1.152,1.4323384687565992,5892.225301993996
1.156,1.7494449516289652,5892.697695226419
1.16,1.8239656596623504,5902.281022828778
1.164,1.6387405084465194,5900.082755645659
1.168,1.214542082318558,5891.211055739305
1.172,0.605013459735612,5894.468459180864
1.176,-0.1133745193394325,5905.150948616159
1.18,-0.8545290097850989,5900.858679100677
1.184,-1.5359787798336078,5894.136846994097
1.188,-2.0892093487255625,5897.740240910959
1.192,-2.466113081143195,5898.691966428479
1.196,-2.642628039211321,5899.0875694898095
1.2,-2.620900117201693,5896.908722043142
1.204,-2.4297942991961787,5899.025974023459
1.208,-2.1220703027886487,5892.080940766695
1.212,-1.7666380910453245,5897.930472070786
1.216,-1.4361882946029656,5906.706134743729
1.22,-1.1928854340005477,5898.251045046117
1.224,-1.0760025781667717,5890.7502894793215
1.228,-1.0947418987385755,5890.446188239925
1.232,-1.2277253181169676,5899.303116399099
1.236,-1.4286590533067043,5889.949126096198
1.24,-1.6363263939454724,5899.112630202441
1.244,-1.7869905057519584,5899.37863836718
1.248,-1.8278665720226843,5901.754447317445
1.252,-1.7299552626827381,5893.948738784036
1.256,-1.4968632293833593,5901.072110862517
1.26,-1.1652939772184219,5898.95193608566
1.264,-0.7950698068486898,5899.172806751824
1.268,-0.4513444590802775,5895.723092473898
1.272,-0.18567599139300478,5896.805967460035
1.276,-0.02312401024719392,5897.517846160565
1.28,0.04046350682256597,5898.732163003087
1.284,0.03152613272821132,5898.520262361819
1.288,-0.013377348340902076,5898.659030720489
1.292,-0.05982956924331611,5906.136528236126
1.296,-0.08459288300626927,5903.465622178799
1.3,-0.0800118897735774,5896.751496294357
1.304,-0.053436933447155374,5887.549135095995
1.308,-0.02254972508781745,5903.074796830271
1.312,-0.00863792032725928,5903.898109874396
1.316,-0.02987749601146423,5906.44161910884
1.32,-0.09607625435160776,5885.669840592063
1.324,-0.20614400175844277,5904.294899033987
1.328,-0.34914515192833234,5897.771522914465
1.332,-0.5083135574123314,5893.085425526781
1.336,-0.6657104410587533,5902.369087669253
1.34,-0.8047631993062692,5899.115768691755
1.344,-0.9092966884355858,5885.502838297462
1.348,-0.9602561992652089,5889.115678459345
1.352,-0.9336111475688766,5903.09013669126
1.356,-0.803170413197936,5907.493829243688
1.36,-0.5495166783107458,5906.3913715742565
1.364,-0.17223806089645596,5893.063471558913
1.368,0.30031239977216784,5906.796303749472
1.372,0.8094006766783698,5897.116300964077
1.376,1.2750036852094295,5905.867375592986
1.38,1.6138153266002002,5893.286977214068
1.384,1.7607549616365297,5900.47540899292
1.388,1.68681626339594,5896.23936959897
1.392,1.4068388122508675,5895.910043868143
1.396,0.9743402384147222,5891.851255332481
1.4,0.46574131858776285,5904.358363250904
1.404,-0.039523283271513374,5902.341206772446
1.408,-0.4754851607411712,5892.489286582642
1.412,-0.7977157270343793,5901.635304511935
1.416,-0.9830517254454421,5907.2064518442485
1.42,-1.0255845841251185,5907.066686806047
1.424,-0.9337967995433535,5900.237454434798
1.428,-0.7296946035848307,5893.775068497727
1.432,-0.4471093504701853,5898.539229717853
1.436,-0.1266464674304563,5893.167012977658
1.44,0.19221553328861515,5903.637009570339
1.444,0.47876673483405957,5893.297713655747
1.448,0.7147588350053341,5894.472113754521
1.452,0.8923174677034194,5898.953555214612
1.456,1.0077886339990045,5893.904512423856
1.46,1.0558443620504232,5906.560628097659
1.464,1.0276982615493748,5894.148924514345
1.468,0.9146944530681113,5905.309367215329
1.472,0.7159018427978582,5894.900467390445
1.476,0.44617608163452405,5896.468760563832
1.48,0.1398694571386016,5894.827115148418
1.484,-0.15346064298328002,5906.06661993778
1.488,-0.38101554123073084,5899.097682782354
1.492,-0.501549436484598,5888.576492682698
1.496,-0.4962093726922007,5902.267832909684
1.5,-0.3708835408807892,5900.0095938769655
1.504,-0.1506033349892299,5904.72271427371
1.508,0.12941930535393983,5883.846922019516
1.512,0.4313970115386332,5894.68191138988
1.516,0.7191905342893373,5901.935795297486
1.52,0.9597307839290984,5894.524062209247
1.524,1.1234267213743194,5898.910024540357
1.528,1.1854500455423977,5890.84227390027
1.532,1.1290180035658621,5902.568685547163
1.536,0.950482196364913,5900.937312958657
1.54,0.6648243439716923,5905.9291005055975
1.544,0.3090684610172899,5904.7975364847
1.548,-0.05980819535523346,5897.998608586023
1.552,-0.3750910772417367,5888.67945629215
1.556,-0.5775730748255112,5908.02406367421
1.56,-0.6339341584210567,5900.0478285809
1.564,-0.5481226507483308,5900.137315516432
1.568,-0.359968504112877,5906.791010293277
1.572,-0.13121998681935867,5898.466888083449
1.576,0.07473430330105373,5892.948450997896
1.58,0.2108315582520028,5891.664276781344
1.584,0.2559186700267161,5900.605640221187
1.588,0.2149553623166934,5899.82795818081
1.592,0.11263682799393156,5893.291271136745
1.596,-0.01605433146473972,5896.787035117622
1.6,-0.1359283870914577,5898.08058500341
1.604,-0.2204837386461504,5892.9314440104345
1.608,-0.2576325462623618,5901.647141558699
1.612,-0.2505892380835508,5896.9311881227095
1.616,-0.2136109469446693,5898.679616624067
1.62,-0.16401439625023834,5894.5059913450905
1.624,-0.11325964979710565,5901.131813145923
1.628,-0.0604905859191806,5895.844278703102
1.632,0.008419355180394335,5891.881930995957
1.636,0.1147036012207602,5894.904053302414
1.64,0.27455249445740865,5891.398575542579
1.644,0.4856954226859535,5889.867201290265
1.648,0.7198462844680331,5902.499030400751
1.652,0.9266971390138165,5899.029305701237
1.656,1.0493899050393476,5897.952795788527
1.66,1.0447930671376204,5897.10829193103
1.664,0.8990683816754395,5904.930630679546
1.668,0.6315358011743295,5893.57715086482
1.672,0.2858768402464717,5900.961545039454
1.676,-0.08606029800771016,5895.427678647813
1.68,-0.43957407144900534,5896.313784639758
1.684,-0.7452320979685467,5898.997916187959
1.688,-0.988693316559313,5906.750391505731
1.692,-1.1654306970122672,5900.711541075549
1.696,-1.2746148534983257,5899.659170453963
1.7,-1.3152419937051087,5905.873820972617
1.704,-1.2858287291013157,5902.116985500801
1.708,-1.187092414054237,5902.900179784172
1.712,-1.0255285199142075,5903.038371754395
1.716,-0.8156090861979527,5907.326903622295
1.72,-0.5792810184721613,5897.900607972686
1.724,-0.3426041508702097,5898.10814465374
1.728,-0.13038635509437063,5895.136257072123
1.732,0.03965475164536911,5899.287041038854
1.736,0.1617180684796775,5900.056847619334
1.74,0.24442332837156008,5899.499359950721
1.744,0.30910427262559953,5896.040685310652
1.748,0.3819927045646219,5892.477991647048
1.752,0.4814061521119607,5900.624621417084
1.756,0.6058779903522966,5897.05997715567
1.76,0.730649273793796,5900.010203409396
1.764,0.8153246876463404,5900.11480359365
1.768,0.8184904606557658,5897.084483438568
1.772,0.7117406392677725,5894.455204105428
1.776,0.48774746534710534,5903.726436393527
1.78,0.16165232478003222,5894.396797383757
1.784,-0.23178587236853296,5894.62563380805
1.788,-0.6428340964187308,5893.540436402187
1.792,-1.0129344330886962,5900.820681805691
1.796,-1.283689736772895,5904.920499346822
1.8,-1.408855128378524,5897.094239687051
1.804,-1.3663553167881959,5898.968452249707
1.808,-1.1655104243807126,5907.337020014313
1.812,-0.8463283052178375,5898.028558287905
1.816,-0.4715144705032641,5908.060914969224
1.82,-0.11445795724311529,5898.133122255738
1.824,0.153686491537046,5891.702068144399
