时间(s),电压(V),幅值(高频80K)
0.0,2.231138587872522,5899.310385452606
0.004,1.4818798055734965,5901.276945693555
0.008,0.7502347856259568,5901.163584183194
0.012,0.05656420258773449,5905.509293326877
0.016,-0.5709135634022344,5906.195587461552
0.02,-1.0967660843203186,5899.493004000799
0.024,-1.4831156260231906,5906.585733281467
0.028,-1.6978129361537904,5898.587822560698
0.032,-1.7243152871024183,5894.926331438852
0.036,-1.5705693200276045,5898.252746393272
0.04,-1.2728700334587963,5895.39598983189
0.044,-0.890746293363629,5899.084298023594
0.048,-0.49249829402132683,5895.652343930086
0.052,-0.13651004787858806,5897.057446601267
0.056,0.14371451746040242,5904.128712021733
0.06,0.3450060548790161,5897.581833435334
0.064,0.4895804466157037,5892.842493226204
0.068,0.6128107620819075,5899.968069464739
0.072,0.7484839764788596,5900.664777476607
0.076,0.9162151394700329,5904.955027453217
0.08,1.1148344520068365,5906.837684307495
0.084,1.3237859140001764,5892.075282652058
0.088,1.5113326294607432,5893.774702655382
0.092,1.6450258562159397,5906.914054940399
0.096,1.6994602195674435,5897.97675358471
0.1,1.6593926520330806,5902.27531578198
0.104,1.5195916141775856,5897.98942823866
0.108,1.283442461361827,5899.510144314116
0.112,0.9611411251755927,5898.043129423847
0.116,0.5676063224208342,5897.61351923011
0.12,0.12072160634626307,5903.899283957774
0.124,-0.35914184847210057,5899.103099872838
0.128,-0.8483210211959398,5895.634896237652
0.132,-1.3191021262236806,5908.110943970419
0.136,-1.7403915242575025,5899.9728463616575
0.14,-2.080200559863413,5902.198216460932
0.144,-2.3097410861081307,5899.48573698178
0.148,-2.408849895871982,5904.412645871989
0.152,-2.371635563374664,5903.23025141801
0.156,-2.209740309084735,5903.335740976674
0.16,-1.9505373897932368,5891.725593002857
0.164,-1.630175120963542,5896.04961234317
0.168,-1.2847415064301988,5891.55548860715
0.172,-0.9438317782630273,5895.003893083901
0.176,-0.6285949853464107,5894.957940032951
0.18,-0.3531396994657036,5908.240164586804
0.184,-0.12680758396481073,5898.984416589513
0.188,0.044208753544564494,5905.434034034905
0.192,0.15595592581784196,5902.148395551043
0.196,0.20611909991558156,5895.746827166465
0.2,0.19358634351144408,5904.174627177853
0.204,0.1181872904693,5901.913063607741
0.208,-0.019363639153665457,5902.207784155468
0.212,-0.21708130632088335,5889.63970689914
0.216,-0.47026738008051383,5893.003553341245
0.22,-0.7684876984901452,5889.079303536956
0.224,-1.0916221472287242,5900.975499135175
0.228,-1.40727266072399,5897.776637277955
0.232,-1.6723603963807043,5901.578485691026
0.236,-1.8403106731379941,5906.245073855783
0.24,-1.8722752083952126,5907.865641438888
0.244,-1.7482873941673722,5909.897308423454
0.248,-1.4743826528935684,5899.687747003608
0.252,-1.0842901891553651,5898.42601270773
0.256,-0.6360942097661526,5907.611908870743
0.26,-0.20358342376597144,5908.185072998061
0.264,0.1385827485819553,5897.530484224704
0.268,0.33434453528204594,5891.484955981744
0.272,0.3645032494681533,5908.701093018899
0.276,0.2556673692309774,5897.325117102589
0.28,0.07420035863495339,5912.328118237522
0.284,-0.09413753325916063,5905.000183653825
0.288,-0.1714456935847152,5891.623455641153
0.292,-0.1113685257855602,5905.069011064215
0.296,0.08921111110449349,5908.935041109663
0.3,0.39332621319206507,5906.91142237975
0.304,0.7386814809013255,5900.307003631343
0.308,1.0569678367267619,5908.988656273539
0.312,1.2905587796413687,5899.224646041615
0.316,1.4021860600129987,5899.839087830709
0.32,1.3771130955668909,5897.356798911006
0.324,1.2205123403184368,5892.273055966029
0.328,0.9535237356876816,5905.178532538151
0.332,0.6097863036807161,5894.378360078976
0.336,0.2321236900803932,5895.891425769913
0.34,-0.1317235808406087,5898.706023171214
0.344,-0.43506973685235034,5909.018268776463
0.348,-0.6400439130806322,5902.287691191429
0.352,-0.7261564826334739,5904.793108664724
0.356,-0.6969184367419186,5893.169065923428
0.36,-0.5805854078441368,5898.929998272046
0.364,-0.4227243337960844,5901.397896034316
0.368,-0.27252521576544675,5895.233472978227
0.372,-0.16822412981833823,5899.322357487216
0.376,-0.1269085254757252,5906.62727801815
0.38,-0.14123347063240949,5897.661851510454
0.384,-0.18306148270713118,5893.167038136826
0.388,-0.21304719190818686,5893.661644815046
0.392,-0.19445728732433845,5905.441944195523
0.396,-0.10765116459236575,5901.110906517923
0.4,0.04035756159564607,5896.7307913391805
0.404,0.21633582090275696,5896.382027048857
0.408,0.3721502980785422,5904.939182128343
0.412,0.46225383872254716,5901.65941208041
0.416,0.4596748070842349,5899.856385989736
0.42,0.36441705213553044,5898.329957177174
0.424,0.20230073104540425,5908.978057962598
0.428,0.015960105107318132,5896.65574495943
0.432,-0.14820704327899778,5896.182995299851
0.436,-0.25283789354485253,5902.735022018876
0.44,-0.2788503674322682,5904.27111058922
0.444,-0.2295508841803135,5908.675960954782
0.448,-0.12911493407416336,5902.216727800794
0.452,-0.01548591381718333,5899.991148808067
0.456,0.07098945285117846,5904.676269642608
0.46,0.09993840544498199,5896.232176679991
0.464,0.06025329323778284,5906.839378193578
0.468,-0.03681131918796596,5901.226021753762
0.472,-0.1618912047580772,5910.690812794775
0.476,-0.2779972820314257,5900.028042547167
0.48,-0.3537816471722599,5895.953133919536
0.484,-0.374726820777135,5901.613624740719
0.488,-0.3478924321486416,5903.4640890044575
0.492,-0.2981428049979403,5893.128777139133
0.496,-0.2571534404842069,5901.595340070197
0.5,-0.24986140967788878,5900.848424484656
0.504,-0.2845523910182193,5910.546528915552
0.508,-0.3509809397485562,5886.760365341936
0.512,-0.42662289835450673,5904.24861224015
0.516,-0.4872593342530912,5896.554938506821
0.52,-0.5168318288521637,5902.973350316052
0.524,-0.5127388786520906,5901.498399504827
0.528,-0.48514796931555376,5896.1294361137625
0.532,-0.4514924649270178,5900.774910615957
0.536,-0.42906993948063216,5893.253058634687
0.54,-0.4285570519960524,5896.17280202924
0.544,-0.44995230254965357,5907.63595217954
0.548,-0.4818708407220115,5890.260479821769
0.552,-0.5053869308070318,5903.321413882078
0.556,-0.5025715024230766,5903.0133064363545
0.56,-0.4667175478196242,5902.54948408869
0.5640000000000001,-0.4086667431080399,5900.648365527565
0.5680000000000001,-0.35471824895807685,5898.190073320441
0.5720000000000001,-0.33611390116737255,5906.240661414016
0.5760000000000001,-0.3749109097567416,5897.066362144145
0.58,-0.47310534096522394,5889.814286216317
0.584,-0.6102636982997376,5898.009421746825
0.588,-0.7508082973463014,5893.715342387371
0.592,-0.8576761749256887,5897.21481301941
0.596,-0.9065354956505138,5898.9842979151
0.6,-0.8949733580962715,5894.640359675187
0.604,-0.843272742604779,5906.197555488338
0.608,-0.7864913010862327,5903.428784622032
0.612,-0.7608293520391988,5900.68476821853
0.616,-0.7895901708936914,5905.091242274647
0.62,-0.8740240242301305,5889.405151003655
0.624,-0.9919292986859086,5896.3618417925545
0.628,-1.1036403629970264,5907.103220870356
0.632,-1.162788526621567,5904.217965417984
0.636,-1.1286850901957717,5894.145342226372
0.64,-0.9776158165823409,5902.03501334177
0.644,-0.7104225314958799,5898.606438289512
0.648,-0.3534522836869287,5916.383810052948
0.652,0.04887222574373103,5898.814974133428
0.656,0.44796993971911664,5898.395566729909
0.66,0.805676950621562,5909.111810553992
0.664,1.1026511896144362,5910.018765806958
0.668,1.3367406648888143,5900.682019589525
0.672,1.5129390981740276,5895.065524061533
0.676,1.6317608173993006,5894.71470175994
0.68,1.6841689474696444,5905.930011687967
0.684,1.6566255806523018,5902.798948216102
0.6880000000000001,1.5425187497341248,5899.223533373335
0.6920000000000001,1.3523800166672812,5907.107402358663
0.6960000000000001,1.1173975656101514,5897.145984695985
0.7000000000000001,0.8851812079720249,5899.048459452617
0.704,0.7093731325310314,5895.190232286964
0.708,0.6354789762167897,5893.651637086346
0.712,0.6863696986575639,5899.426115070808
0.716,0.8524231255984529,5903.077760363114
0.72,1.0910507047087512,5907.418237021446
0.724,1.3369860771207025,5893.587228009651
0.728,1.5197873299644362,5903.787936051664
0.732,1.5819492387173193,5906.608129845572
0.736,1.4918472733031485,5910.117570379319
0.74,1.2491838582370873,5899.96992148927
0.744,0.8837138817449914,5901.003673315618
0.748,0.44911083217958003,5902.800235399595
0.752,0.013420669084886943,5896.656294280461
0.756,-0.3530084174736245,5902.193143160188
0.76,-0.5909346997784515,5900.54545599938
0.764,-0.664523040074938,5902.135225312908
0.768,-0.5691291739232105,5892.615126847188
0.772,-0.3320000602069408,5906.241021220304
0.776,-0.0056040187782214436,5905.343799661799
0.78,0.34458622379960896,5895.759223606576
0.784,0.6548614709880693,5899.949383839238
0.788,0.8772125020355671,5896.8986875058
0.792,0.9890865492185785,5904.500282801705
0.796,0.9958685632622827,5897.32642228649
0.8,0.9243356059366241,5897.892461182323
0.804,0.8087875735455446,5894.912124227635
0.808,0.6756071147105696,5901.566886617402
0.812,0.5332493036301479,5902.27241855519
0.8160000000000001,0.3717094226002662,5894.611596050102
0.8200000000000001,0.17047093809986463,5897.186744588622
0.8240000000000001,-0.08974372258920382,5889.080140713239
0.8280000000000001,-0.4164256165498285,5909.118940506345
0.8320000000000001,-0.7987374952578783,5897.285873455147
0.836,-1.2056404043830693,5900.266936287188
0.84,-1.588921927036779,5896.095464055736
0.844,-1.8915600707365454,5897.310652992204
0.848,-2.060580673098224,5893.229378337832
0.852,-2.0610521327365876,5895.709361367697
0.856,-1.8865391879909736,5891.261807887613
0.86,-1.562339709422941,5900.54869246382
0.864,-1.140106304493938,5904.084935588718
0.868,-0.6850511917279802,5895.20006751932
0.872,-0.25952747866034953,5900.0064277051415
0.876,0.0916012622546869,5886.6144248927785
0.88,0.3489732590445515,5901.710528720304
0.884,0.5180079808427606,5891.1593240333605
0.888,0.6207956197510467,5898.622422109967
0.892,0.6845472273104105,5903.428853524592
0.896,0.7312527250436548,5894.932312609043
0.9,0.7717955298065047,5899.069793079328
0.904,0.8052783134382693,5898.74989206893
0.908,0.8224622370575894,5899.137233696767
0.912,0.8118241713704932,5902.71811716507
0.916,0.7667737680382533,5901.541491097136
0.92,0.6919534329120889,5897.922563091457
0.924,0.605992014602768,5899.921130377172
0.928,0.5389276243850624,5892.403332343867
0.932,0.524570084842905,5892.208523302345
0.936,0.5901141906777925,5902.613518762212
0.94,0.7466215778952326,5898.355184493919
0.944,0.9841468555964666,5894.409285133001
0.948,1.273657869481278,5897.694157831576
0.952,1.5747582044755573,5894.230551154828
0.956,1.8455889073956757,5892.276507643654
0.96,2.0511569899603637,5895.150023991418
0.964,2.1681930993893808,5891.491821702303
0.968,2.1862546995222183,5899.250934557303
0.972,2.105416631190569,5897.714233786151
0.976,1.9317572786121824,5888.540095590431
0.98,1.6732961177722872,5893.928640696048
0.984,1.3392706176366902,5899.029037665447
0.988,0.9432483732880845,5895.530848877635
0.992,0.5070629637620475,5898.519910759953
0.996,0.06130567873572005,5902.368199536285
1.0,-0.3593884082077494,5903.35487454475
1.004,-0.7241219745723099,5898.777033285447
1.008,-1.0127372136717465,5892.759945486233
1.012,-1.219414323707228,5899.418696065932
1.016,-1.3523177759893068,5896.435993965884
1.02,-1.4298978582771362,5903.476877550757
1.024,-1.4748125412884319,5901.110164505755
1.028,-1.5069237567412397,5892.120706281373
1.032,-1.5375701244979323,5895.363209697351
1.036,-1.5674286042600498,5904.356567667749
1.04,-1.5890099932239279,5900.071900595247
1.044,-1.5924945572210285,5891.215404820388
1.048,-1.5714766622310947,5898.892452721888
1.052,-1.5249515018644533,5896.014194095171
1.056,-1.4543725311653644,5891.644856274731
1.06,-1.3584036906250405,5896.904196348765
1.064,-1.2300997452518867,5892.707391985656
1.068,-1.0597068385294235,5906.292618637025
1.072,-0.8420473964858113,5896.846381275169
1.076,-0.5840190009845444,5897.37464948877
1.08,-0.30802090821020456,5900.054556512426
1.084,-0.050146095962824065,5898.904451163
1.088,0.14589875907134847,5900.964379167872
1.092,0.2381351052780337,5903.860461566851
1.096,0.1976100335900976,5906.511663040074
1.1,0.018654173252289675,5900.314666995092
1.104,-0.2759382908595129,5900.218820290454
1.108,-0.6373840422183659,5896.57223702118
1.112,-1.000315216019816,5895.625079697697
1.116,-1.2955752090051704,5901.557167644583
1.12,-1.4627691839955177,5894.495044677121
1.124,-1.4612474111692058,5901.5148621967
1.128,-1.27950479732663,5906.260905404611
1.132,-0.9411495522887967,5891.755918494881
1.136,-0.5034256999864661,5897.391858933669
1.14,-0.045673635312227574,5896.011964931175
1.144,0.3502568083949579,5900.766303238744
1.148,0.621185525603175,5888.767691279254
1.152,0.737368851226068,5903.774814713042
1.156,0.7052529106369266,5905.430675557674
1.16,0.558077105559038,5893.843837246757
1.164,0.3394990290847459,5897.279610485432
1.168,0.08734596918151322,5891.429498338724
1.172,-0.1770604020716178,5904.719842760342
1.176,-0.45136100412304797,5901.115545618515
1.18,-0.7458850687345181,5896.928312548567
1.184,-1.0704250944997729,5892.478339009644
1.188,-1.4192328522882496,5895.409794937516
1.192,-1.761706789483801,5895.55012714213
1.196,-2.0442764859906593,5901.0610078931295
1.2,-2.203312449144283,5903.471933048309
1.204,-2.183684200110074,5900.195865330962
1.208,-1.956146549651208,5900.442443146949
1.212,-1.5286301831684952,5899.90539037237
1.216,-0.9491149868519865,5898.994324160216
1.22,-0.29946275308570747,5899.799297512299
1.224,0.31910812258374355,5902.039933984172
1.228,0.8064830846353835,5898.153328368966
1.232,1.0856707170645215,5905.32652073651
1.236,1.1204815608418817,5888.832300987991
1.24,0.9228875593114374,5904.362540298077
1.244,0.5470011400796337,5903.792475634883
1.248,0.07224344867029722,5892.702212683767
1.252,-0.4172281287364996,5909.614634196449
1.256,-0.8499870486358442,5895.224252120893
1.26,-1.1783928402945547,5888.034081341373
1.264,-1.3825971005710682,5898.393960747806
1.268,-1.4676178421166384,5899.101775801327
1.272,-1.4546942953666475,5903.142328942054
1.276,-1.3702718030677503,5895.774953778013
1.28,-1.2369966052823977,5897.157790038467
1.284,-1.0695752943659629,5904.838858811406
1.288,-0.8755158665444464,5900.947548902866
1.292,-0.6586587790712302,5897.238538625459
1.296,-0.4230252956853152,5906.12745262829
1.3,-0.17558868684413845,5900.277595345495
1.304,0.07231963938341024,5900.188356649269
1.308,0.3053673026174526,5900.281559885334
1.312,0.5072013143995895,5892.470433474497
1.316,0.6659700191266044,5892.884755262899
1.32,0.7802560443380472,5902.141466243065
1.324,0.8619846954294853,5888.114676378647
1.328,0.933280449717188,5894.901857791383
1.332,1.0165268160898064,5888.459451368864
1.336,1.1208265331727312,5898.117711247775
1.34,1.2316059432316768,5901.142977080289
1.344,1.310004673081655,5897.494101533173
1.348,1.3040631887549738,5898.5498697447565
1.352,1.1674691476471226,5903.911342824035
1.356,0.877945379246257,5905.191152159426
1.36,0.4482942940037326,5901.784864090499
1.364,-0.07298803165298864,5895.657107633967
1.368,-0.6110538089700714,5894.050352313796
1.372,-1.0816247538993857,5901.712977132639
1.376,-1.4116279390209128,5895.93107957481
1.38,-1.557903342050949,5894.446170303438
1.384,-1.5178100830463734,5903.080294083201
1.388,-1.3277721384323184,5895.974575835911
1.392,-1.0501612187472698,5904.846952875255
1.396,-0.7535020868989617,5907.002683353778
1.4,-0.4935432227571117,5895.658580575909
1.404,-0.3016876873901472,5906.939401640589
1.408,-0.1834513376696999,5895.317644917303
1.412,-0.1253996456239513,5904.425128424894
1.416,-0.10596764739225575,5899.886122927549
1.42,-0.10459540129250303,5898.913312543426
1.424,-0.10543774128899962,5904.865718745653
1.428,-0.09560189800108132,5900.465706857429
1.432,-0.06109730892541719,5911.297004536805
1.436,0.015079312926287617,5904.091197903852
1.44,0.14941884744217146,5893.242983151448
1.444,0.3489699384144795,5890.72285844777
1.448,0.6013151069751933,5901.897367263298
1.452,0.8702285701063519,5905.51956978733
1.456,1.101944618494901,5894.212536396008
1.46,1.241139964013465,5901.5156881155135
1.464,1.2497972773373105,5888.167246419129
1.468,1.1203704862286124,5894.197989990327
1.472,0.8779270749817721,5892.845949093372
1.476,0.5714065448939705,5895.4685562034265
1.48,0.2584079864026601,5895.562375931236
1.484,-0.010656917262498268,5899.702315202208
1.488,-0.20433160675592874,5907.071336588648
1.492,-0.31546163877787675,5897.22091010134
1.496,-0.3600246364426239,5900.053766918121
1.5,-0.37069364135113547,5900.747058207781
1.504,-0.38707461704833696,5908.372663868074
1.508,-0.44502416592589067,5894.379380087778
1.512,-0.5672704745665509,5897.446385013872
1.516,-0.756548150022239,5896.145700337264
1.52,-0.9919058498770544,5904.863345688348
1.524,-1.2295230920704072,5894.82571128107
1.528,-1.4096454405439522,5886.503202045243
1.532,-1.4695152151969666,5896.592303503223
1.536,-1.3595479018833132,5899.372930987528
1.54,-1.0584989752640463,5895.93871620387
1.544,-0.5832913228593014,5897.197120242114
1.548,0.009941409545799489,5901.473772383543
1.552,0.6349146208845435,5906.565882688391
1.556,1.19243567950927,5889.191144698106
1.56,1.5911198522163905,5899.466343120471
1.564,1.7660215229660232,5903.777623631201
1.568,1.6907693280763845,5903.542811488598
1.572,1.3810296048828512,5892.102059982938
1.576,0.8894902929578358,5901.616291444846
1.58,0.2944695908329945,5901.616887874185
1.584,-0.31471887518350133,5893.73924860202
1.588,-0.8527892914857979,5907.482503515019
1.592,-1.2520256412767012,5896.933075565673
1.596,-1.4726123618015927,5896.097320574343
1.6,-1.5074057337824935,5903.899086891044
1.604,-1.3795142707213361,5902.959190328645
1.608,-1.133596359146071,5894.624422182729
1.612,-0.8239294845311884,5901.071782713495
1.616,-0.5024732054455244,5901.134836310048
1.62,-0.20919302998049727,5901.618051076246
1.624,0.03384658316197694,5900.093686196718
1.628,0.22371004393500715,5893.831234881493
1.632,0.373233679511807,5895.965444235054
1.636,0.5042836448675343,5899.183815336856
1.64,0.6393555384524394,5900.938351347767
1.644,0.7933454284012835,5897.243082714796
1.648,0.9675216442239393,5888.017541490169
1.652,1.1477644999624734,5891.216872829687
1.656,1.3083053064800658,5904.813542184752
1.66,1.4202986767963537,5888.695541781518
1.664,1.4622501075229042,5898.497917623168
1.668,1.4280107693568562,5889.560316161953
1.672,1.328938824860505,5895.532760933986
1.676,1.1894825296512719,5893.790509171843
1.68,1.0383770066417817,5896.754164691572
1.684,0.8996541507274847,5893.366984059466
1.688,0.7876369663223838,5903.394394822835
1.692,0.7074265113966657,5908.347243202843
1.696,0.6586334922170277,5896.384182162966
1.7,0.6383478368615094,5889.185027272518
1.704,0.6410980313410368,5900.841605069718
1.708,0.6570326141125221,5896.497996367953
1.712,0.6714553567876317,5899.465597558176
1.716,0.6676624599038619,5903.531449938377
1.72,0.6322335276430101,5896.155374698568
1.724,0.5600950334618239,5900.636966721813
1.728,0.45701383336004875,5898.701538236432
1.732,0.3388121194494839,5900.514465588567
1.736,0.22797369965028996,5899.000362296282
1.74,0.14882698704583008,5894.732496026392
1.744,0.1223422627755689,5894.4315555909125
1.748,0.161089542794608,5901.019404497942
1.752,0.2646322785459927,5895.505995638294
1.756,0.41606732185308937,5896.627447833909
1.76,0.5812564727889661,5906.403176034203
1.764,0.7126166078072336,5908.313141963294
1.768,0.7582662649270909,5901.475710896946
1.772,0.6748776053538613,5892.7114923067975
1.776,0.4402951701197354,5896.480706074632
1.78,0.06167058116392026,5899.016770475164
1.784,-0.423434721035446,5896.271742207728
1.788,-0.9532557982444257,5900.406012039056
1.792,-1.4537848842755767,5899.454419544663
1.796,-1.85359961048855,5897.034311217684
1.8,-2.097933008670826,5891.533389516863
1.804,-2.1586718659057422,5900.853479293182
1.808,-2.038413300887268,5901.676520143207
1.812,-1.768505513289469,5902.571397051806
1.816,-1.4020663131098925,5908.372937540971
1.82,-1.003109302099687,5893.070894068512
1.824,-0.6331911179802863,5890.706814876883
