时间(s),电压(V),幅值(高频80K)
0.0,3.625757148399853,5902.801112502453
0.004,3.0290026900109206,5900.789001429918
0.008,2.4971894290623906,5903.671422986089
0.012,2.072889955826604,5898.206443347097
0.016,1.7629883650335043,5903.05344787876
0.02,1.5357036157966566,5893.762740213419
0.024,1.3320594858800365,5901.051733739795
0.028,1.0877972285443305,5897.203252910157
0.032,0.756747500899774,5898.025793616403
0.036,0.32679450767321516,5903.148241590413
0.04,-0.17608197761003305,5889.897881219169
0.044,-0.6953851854067117,5897.780646366786
0.048,-1.1600683511187189,5901.155380172941
0.052,-1.5040668540413362,5898.927940944544
0.056,-1.6835073689163318,5893.678716129432
0.06,-1.6862119590107476,5895.142567707678
0.064,-1.5311631767769178,5906.191918282406
0.068,-1.2596620040875675,5896.116915559129
0.072,-0.9224369571105252,5898.726770908039
0.076,-0.5672012879221264,5896.011991009871
0.08,-0.23011189698472143,5902.532053590313
0.084,0.06698653234682221,5899.71447574492
0.088,0.31378287049453046,5904.711432790875
0.092,0.5057038217530034,5898.756620305205
0.096,0.63871666108301,5894.011154630627
0.1,0.7075139306532123,5897.266060349624
0.104,0.7076595022369482,5903.5394825593
0.108,0.6397229628594214,5909.325355290096
0.112,0.5118160336599301,5897.474449791051
0.116,0.33806275666369384,5903.560101111608
0.12,0.1344687540762293,5915.463597753985
0.124,-0.0834342320734239,5896.779061075527
0.128,-0.2989842835812762,5897.265566033607
0.132,-0.4919168686122086,5905.057099558758
0.136,-0.6399205273744238,5899.843854749039
0.14,-0.7251685711127485,5896.900518448331
0.144,-0.7419059377143717,5900.665595653171
0.148,-0.7003720243097186,5893.215300456188
0.152,-0.6250229172873152,5897.416183214468
0.156,-0.5476338383417285,5896.0665531289305
0.16,-0.4970981881634098,5901.710143886231
0.164,-0.4887671657223824,5900.74776496383
0.168,-0.517412474030371,5902.397343968456
0.172,-0.5579061273725519,5893.667933576579
0.176,-0.5749504316071598,5904.740624134092
0.18,-0.5381748813562541,5909.437069442609
0.184,-0.43514616275018586,5912.111696414225
0.188,-0.2761071120867897,5904.619879297969
0.192,-0.08977969471343439,5893.7316372189725
0.196,0.08580181071791468,5898.350076112638
0.2,0.21303858454953362,5901.512709809059
0.204,0.2628534303910592,5904.943519677153
0.208,0.2205075337591936,5900.692686248465
0.212,0.08896625212644298,5900.282243601954
0.216,-0.11014847689229275,5895.870836147177
0.22,-0.3378223912844383,5901.093590671951
0.224,-0.5415642133208417,5900.530801707981
0.228,-0.6633465102315762,5906.310113752732
0.232,-0.6522927624382194,5907.316856044024
0.236,-0.47987163388317294,5899.027809812083
0.24,-0.1521665598909607,5900.272902400406
0.244,0.2867131358142624,5898.2475749479845
0.248,0.7629240480977457,5893.167754390444
0.252,1.1908224531009426,5899.050280088738
0.256,1.4946109169162174,5887.807890119618
0.26,1.6267023689313405,5909.043404138572
0.264,1.577327198281693,5901.957086212017
0.268,1.3728869083678987,5895.072777355116
0.272,1.0642820569051044,5894.089836088609
0.276,0.710131085903205,5902.543476676811
0.28,0.3615641877552478,5906.746538165709
0.284,0.05362452813867678,5896.550934241575
0.288,-0.195604669196895,5897.358175472541
0.292,-0.38050019896978227,5899.333366608527
0.296,-0.5018350109567218,5893.964451976865
0.3,-0.5623748596868808,5891.372611923884
0.304,-0.5654724152355838,5901.489485317924
0.308,-0.5159750087376355,5900.387780194492
0.312,-0.4216871869712528,5898.782198956773
0.316,-0.29387510063194,5893.617307252208
0.32,-0.14639341846740517,5898.990884846922
0.324,0.006055616795798019,5900.655455937974
0.328,0.14993296977388865,5899.5373925109625
0.332,0.27494411461431634,5901.357967476386
0.336,0.3760344101780294,5889.937559730951
0.34,0.45459231021298924,5899.578345418357
0.344,0.5177444515253373,5898.60218669699
0.348,0.5752813635474082,5895.40369514287
0.352,0.635281877529501,5908.394112489571
0.356,0.7004571431378287,5897.431482921441
0.36,0.7666023194353488,5902.45085481622
0.364,0.8231526908155188,5891.345480937827
0.368,0.8552179018236667,5910.079402280877
0.372,0.8467090828859514,5896.616171941923
0.376,0.7841932000331424,5904.948857091556
0.38,0.6606909638190042,5900.397494865881
0.384,0.47854413803405893,5892.343068749456
0.388,0.2507649273862689,5902.407214532529
0.392,0.0003308214717220081,5887.595134651027
0.396,-0.24306061248894442,5903.734384290495
0.4,-0.44846083486658206,5897.267188137971
0.404,-0.5898118934632803,5906.550457547209
0.408,-0.6507177003287375,5898.826344984903
0.412,-0.626604997950093,5899.686489805069
0.416,-0.5244338707012994,5900.848804381126
0.42,-0.36083727454170567,5902.213663377031
0.424,-0.1592188048317413,5902.93961504376
0.428,0.05410769788537545,5902.972913637164
0.432,0.2543219430535041,5897.926168681415
0.436,0.4217673287219475,5903.079050751673
0.44,0.5432487917328233,5913.262861487371
0.444,0.6105903612386333,5904.28110011588
0.448,0.6185094190687734,5899.036792873033
0.452,0.5647209560683997,5900.956302901511
0.456,0.4528336244640783,5892.517690682355
0.46,0.2953169462787546,5894.966615298768
0.464,0.11309877477744988,5903.297551330557
0.468,-0.06937797727923727,5898.588114639757
0.472,-0.23186403811407327,5896.355033197265
0.476,-0.36519787983207297,5895.895706490458
0.48,-0.47374640352441594,5900.6452145066505
0.484,-0.5716979640751374,5903.765722192015
0.488,-0.6746120033630648,5906.624355365681
0.492,-0.7899947349290085,5899.015922430765
0.496,-0.911269048152379,5900.574625882986
0.5,-1.0182992850433783,5893.783826708433
0.504,-1.084752373614819,5909.028662567613
0.508,-1.0891693635768063,5906.226554252027
0.512,-1.0248027807183693,5897.73293677157
0.516,-0.9040353871629325,5894.893063259877
0.52,-0.7556545649447185,5896.833322698412
0.524,-0.6161025453004236,5898.918493347172
0.528,-0.5181548499235797,5898.356771577409
0.532,-0.4813425428254154,5909.048004938241
0.536,-0.5070757407518557,5897.733899607887
0.54,-0.5787504266144544,5899.694274665547
0.544,-0.66555915234163,5906.7880539905145
0.548,-0.7292417644982306,5893.49462000859
0.552,-0.7335452346421076,5901.276138999962
0.556,-0.6547443898933456,5894.9037149496535
0.56,-0.48944241389991144,5894.172763844206
0.5640000000000001,-0.2557740304069904,5901.945435894534
0.5680000000000001,0.013117306924138823,5891.648987515805
0.5720000000000001,0.28071057712891934,5896.928241506287
0.5760000000000001,0.5190571229732804,5896.1167942740885
0.58,0.7166686493842782,5897.037719204286
0.584,0.8798926376825676,5902.273785497557
0.588,1.0274218224768141,5894.829461911082
0.592,1.1796124434750455,5898.975176808562
0.596,1.3462988786573369,5897.3361199572655
0.6,1.517971943154397,5891.4626203685775
0.604,1.6643864461562068,5911.376151406548
0.608,1.741858592489581,5903.364462636033
0.612,1.7070333503969242,5897.595871014724
0.616,1.5321158181615249,5901.9532256425255
0.62,1.2154296571083234,5898.842585515887
0.624,0.782861531641884,5899.765655291605
0.628,0.2803365143845324,5901.455331914944
0.632,-0.23797236347459938,5902.040252150866
0.636,-0.7201162244838426,5899.606735538137
0.64,-1.1228675929611494,5907.264591599764
0.644,-1.414939461621342,5898.888695520834
0.648,-1.5786011840685656,5891.744859297832
0.652,-1.6103207409045974,5898.998724421981
0.656,-1.519983641396248,5897.590082608981
0.66,-1.32820766571283,5893.241520796866
0.664,-1.0620353281317996,5893.078260186202
0.668,-0.7501296135466579,5896.659444081543
0.672,-0.4188826120399787,5912.003996965982
0.676,-0.09031805619191502,5894.131417593753
0.68,0.21832853635257624,5895.168134994305
0.684,0.49424092003018477,5905.349978574186
0.6880000000000001,0.7287995155521876,5909.03368431887
0.6920000000000001,0.9178533789343439,5897.9135094168005
0.6960000000000001,1.0621263751387446,5897.916540332516
0.7000000000000001,1.166983508865769,5904.421969821922
0.704,1.2408879560695507,5908.638021469304
0.708,1.292573482220218,5895.111999235154
0.712,1.3279292149394568,5906.0027412712525
0.716,1.3481664926592996,5900.961404220749
0.72,1.3503763461157239,5902.269023184333
0.724,1.3300865201127408,5907.5278127662505
0.728,1.2839762224815334,5891.937869121465
0.732,1.2110088321997126,5895.000040074711
0.736,1.111983206494139,5900.611231163141
0.74,0.98896180777379,5901.962638437193
0.744,0.8454838120783139,5905.042629325495
0.748,0.6867554509800152,5894.522496471702
0.752,0.5185836760538207,5907.673872562537
0.756,0.3454543836407225,5898.110915962025
0.76,0.16974811024664524,5900.683961937814
0.764,-0.006557220670708753,5904.508106802077
0.768,-0.17857298336078797,5897.654742476175
0.772,-0.3359064460001104,5905.087688908412
0.776,-0.46273844448361795,5896.5902779768985
0.78,-0.5409615177711782,5900.256322218451
0.784,-0.5551155729923144,5891.080149799094
0.788,-0.4971713536189008,5905.089223425818
0.792,-0.36989835481651046,5890.114720697134
0.796,-0.18859678274805744,5901.250705129537
0.8,0.018929709489032134,5903.742642180871
0.804,0.21483880103022407,5900.469019567629
0.808,0.3566910498740446,5903.932933666682
0.812,0.40532201854012495,5892.284402520936
0.8160000000000001,0.33359229831576587,5911.346633535728
0.8200000000000001,0.1340032620399885,5902.502782253405
0.8240000000000001,-0.177198527755896,5899.368371406285
0.8280000000000001,-0.5617795154779563,5907.16491505313
0.8320000000000001,-0.9678006148385161,5902.75625526242
0.836,-1.3417697082792066,5905.376338494464
0.84,-1.6396113706909057,5895.632326183742
0.844,-1.8323196320344366,5892.691785028691
0.848,-1.905618321975538,5898.4850841123925
0.852,-1.8561250912100937,5900.361516694622
0.856,-1.6876855068841603,5890.470123102642
0.86,-1.4105444888148233,5899.8037274384105
0.864,-1.0434108508557023,5887.862299091063
0.868,-0.6158758579539301,5900.0239044998925
0.872,-0.16807232855951965,5886.100353154739
0.876,0.25382649863406626,5892.723477935477
0.88,0.6053264946228646,5898.143890761475
0.884,0.8521530100618568,5893.333920058728
0.888,0.9768918188749193,5893.259719599809
0.892,0.9815666967914669,5900.895531366454
0.896,0.885266089417796,5900.629905230029
0.9,0.7175390111357481,5896.312657570636
0.904,0.5097095250444025,5897.086671985478
0.908,0.2872448418467965,5900.690299026628
0.912,0.06629369231276654,5905.613365177699
0.916,-0.14435960039188386,5901.097318814733
0.92,-0.33780824810114096,5898.539094709519
0.924,-0.5038745666189678,5906.184092708013
0.928,-0.627514856718077,5895.6941952775815
0.932,-0.691642811688126,5908.16969999146
0.936,-0.6828408315826732,5903.710018271129
0.94,-0.5969824954019104,5904.795147935244
0.944,-0.4420744680968575,5901.719593159919
0.948,-0.23764895480517473,5898.902413807658
0.952,-0.012107665763624431,5897.345916469385
0.956,0.200330812678432,5909.00669225305
0.96,0.3628726186963912,5903.28747459386
0.964,0.4407835768865221,5898.778172896954
0.968,0.4084971684508856,5902.253632491264
0.972,0.25838210320095056,5900.708466277345
0.976,0.007926725593200429,5905.556646409874
0.98,-0.29886071031502637,5891.98247785273
0.984,-0.5983734331379132,5895.703775379029
0.988,-0.8217112550701452,5908.997489542056
0.992,-0.9121250572626052,5893.264522793557
0.996,-0.8398317408922235,5901.091764211736
1.0,-0.6093773017428694,5887.925123652157
1.004,-0.2577016791648396,5895.176797855363
1.008,0.15566550766426956,5895.791714793021
1.012,0.5629421757897576,5897.697525641775
1.016,0.9031916105710861,5897.662469994769
1.02,1.1347254551781327,5903.763193234139
1.024,1.2421350896120642,5907.424480144335
1.028,1.2364873121662616,5901.190908991836
1.032,1.1487966773398754,5902.29013506284
1.036,1.018735626306134,5893.033594583822
1.04,0.8821443644583641,5897.681855422897
1.044,0.7613010801929596,5902.531314778791
1.048,0.6607289253901414,5902.93129944174
1.052,0.569279613294098,5898.499790541909
1.056,0.46737308580668546,5898.307253191166
1.06,0.3369750041166992,5892.338393660621
1.064,0.17106146824716528,5900.004712282913
1.068,-0.020789738991979327,5898.858481907966
1.072,-0.21280820214813095,5901.903247494886
1.076,-0.3691655355792244,5898.224111993679
1.08,-0.4534399543457296,5907.748335955518
1.084,-0.43844894424349967,5895.752358388232
1.088,-0.31411698272697963,5896.095686249784
1.092,-0.09169274687993653,5904.520737566271
1.096,0.19691455239286276,5896.444003464509
1.1,0.5050777715595381,5900.372016570253
1.104,0.7818508143981505,5895.739751818475
1.108,0.9846546571705109,5901.9705151880535
1.112,1.0905924361775448,5896.582095103137
1.116,1.1019967846003247,5885.8334509465485
1.12,1.0435195539145055,5895.902520905609
1.124,0.9520646685119312,5894.894271360246
1.128,0.8644264856291445,5900.188196890389
1.132,0.8081029779473382,5913.104953403095
1.136,0.7982079608743988,5899.361161903919
1.14,0.8394842203408706,5893.748727373025
1.144,0.9296440655555342,5904.55623537877
1.148,1.0604924844100907,5913.363661055704
1.152,1.2161645443102282,5900.123157885507
1.156,1.3709417916734996,5891.520131411032
1.16,1.4902820477313428,5899.566530679881
1.164,1.5372876235990414,5899.059725150515
1.168,1.4836725390111691,5899.80121561897
1.172,1.3211697364869022,5908.893258464586
1.176,1.0680844863211547,5901.530101812887
1.18,0.7671161986822027,5898.315307576182
1.184,0.4741405923008693,5895.666394462594
1.188,0.24169813734208015,5904.309646980011
1.192,0.10311304695689913,5897.604564300437
1.196,0.06245134411674075,5893.702863305847
1.2,0.09330667727055116,5906.370384950543
1.204,0.14714161376233434,5897.151470649696
1.208,0.1693235561821104,5898.42738938095
1.212,0.11789700829513021,5898.672990378473
1.216,-0.021798984368411153,5899.2549271060125
1.22,-0.23233371680706397,5894.152599362435
1.224,-0.47066809622739775,5895.280795185355
1.228,-0.6826910643561142,5892.9960987819895
1.232,-0.8199388686846562,5898.299382037323
1.236,-0.8528043539003375,5901.62461438989
1.24,-0.7769025697353001,5906.216275322103
1.244,-0.6124128344203709,5896.936792185423
1.248,-0.39832108340077915,5898.149849919943
1.252,-0.18351153234473933,5905.11815694911
1.256,-0.015628103765259235,5909.5906843953535
1.26,0.07145780583573821,5903.201769404116
1.264,0.06916698044259244,5895.822926196851
1.268,0.000366142960752219,5890.176572438903
1.272,-0.0843790649370276,5899.508325913923
1.276,-0.12196685087613841,5890.752158912016
1.28,-0.05926678389044032,5898.133506506071
1.284,0.12609606509806484,5898.314928182614
1.288,0.4162530679034202,5902.963877286661
1.292,0.759224150757002,5903.893099711021
1.296,1.0870503164142726,5897.888868799662
1.3,1.336849281137693,5901.758793918897
1.304,1.4659592183918695,5909.519952740008
1.308,1.4573165624065934,5901.077777612809
1.312,1.316984854566861,5894.091559125612
1.316,1.0684344510264536,5902.500503031247
1.32,0.7467182370344664,5894.803195398411
1.324,0.3926577219688243,5892.284308149593
1.328,0.0462372717014735,5894.819805905888
1.332,-0.2597339690418366,5898.8242860958135
1.336,-0.5030607491909996,5896.554933327254
1.34,-0.6713734520930391,5898.288479675725
1.344,-0.7588449579687057,5892.975923341306
1.348,-0.7639058354845406,5893.325382093739
1.352,-0.690225756310837,5903.696646853201
1.356,-0.5499372832208554,5896.52522330175
1.36,-0.365460024930055,5896.959939056119
1.364,-0.1666450446642771,5892.854035608439
1.368,0.016871664736771038,5892.791154251122
1.372,0.16456192732615021,5899.726301549712
1.376,0.27004183884738564,5897.964617130849
1.38,0.33903279331694836,5905.312179163036
1.384,0.3814771790843221,5895.059006553624
1.388,0.4029508962136199,5892.975278690809
1.392,0.40075779883698076,5909.467574110686
1.396,0.36662245825985196,5898.302950272461
1.4,0.29379209184178884,5904.603893053294
1.404,0.18421161376962875,5903.863574039949
1.408,0.05150362248043484,5905.959217563849
1.412,-0.08241064744195437,5908.762939204979
1.416,-0.19530376600966134,5895.895160676334
1.42,-0.2722549079192388,5900.214359037012
1.424,-0.3086287273236488,5903.702288344937
1.428,-0.30838415219833193,5897.336401392639
1.432,-0.2809814644473204,5902.662524927936
1.436,-0.23961897672130295,5891.938241861411
1.44,-0.20058899912219144,5897.84344194456
1.444,-0.18157982147934537,5892.804502857969
1.448,-0.19771361830370052,5900.029313727997
1.452,-0.25690391996865364,5898.245958751432
1.456,-0.35750376267393935,5906.028110865078
1.46,-0.4895567683586308,5905.148040210458
1.464,-0.6383991073425144,5896.907614090236
1.468,-0.788635716284118,5890.912119063905
1.472,-0.9274983634494526,5894.467835249872
1.476,-1.047542048624534,5904.105409983058
1.48,-1.1487007403933482,5901.824512264526
1.484,-1.239077801044978,5905.518558713246
1.488,-1.3331690797362235,5900.356553395166
1.492,-1.4465181724101128,5895.1952265318505
1.496,-1.5875154367021267,5900.210785460175
1.5,-1.7492992482393719,5898.782730642169
1.504,-1.9059571384794538,5899.125939979143
1.508,-2.016362717547522,5904.661981370884
1.512,-2.036136615093959,5901.368151682333
1.516,-1.9346354598519147,5897.627845381155
1.52,-1.7109632758573472,5905.994343230836
1.524,-1.4018810068062852,5900.5192861946125
1.528,-1.0762531984974664,5905.750854336846
1.532,-0.8156622638268132,5896.500373183116
1.536,-0.6872733495591009,5900.7346798832505
1.54,-0.7194343837607898,5896.867573609785
1.544,-0.8900421272797517,5905.911264105495
1.548,-1.1324078294486277,5903.774373569468
1.552,-1.3560182248735686,5897.859145160429
1.556,-1.4740870685828913,5899.455299299143
1.56,-1.428546562194353,5893.670193513386
1.564,-1.2053836730240854,5910.46567886571
1.568,-0.8365794949123093,5902.32840940936
1.572,-0.38844994976486497,5900.024998937961
1.576,0.05970301014019358,5903.246915503674
1.58,0.4392299099366202,5899.315689952277
1.584,0.7101423295226124,5906.500021797282
1.588,0.8682069132009551,5905.653006699125
1.592,0.9396673889582874,5900.455254844179
1.596,0.9659916484091963,5908.726600727951
1.6,0.984612025566238,5906.903076134568
1.604,1.0134547959031686,5901.619345034198
1.608,1.0454197504012204,5904.706943696959
1.612,1.0543943601498795,5903.680614504338
1.616,1.0094037933575835,5892.219273635398
1.62,0.8903827080300262,5897.104468713606
1.624,0.6988003362781747,5900.14195040608
1.628,0.4589913748131896,5901.556542798032
1.632,0.21036091091001605,5902.09967595218
1.636,-0.005761473426612417,5903.849394014339
1.64,-0.1596826409538424,5897.902860005009
1.644,-0.24312724565819208,5903.553439369005
1.648,-0.2723963042598221,5896.43905462795
1.652,-0.283873046910285,5904.2192358221055
1.656,-0.3231600396112352,5898.635577198415
1.66,-0.4311035025943635,5899.078033291062
1.664,-0.6307590314594238,5900.881579624265
1.668,-0.9188290203701811,5892.921727825707
1.672,-1.2636531558778974,5891.136492851311
1.676,-1.6102192241178042,5904.798182185806
1.68,-1.891295138259231,5900.78826901462
1.684,-2.042431571449325,5896.018496826324
1.688,-2.017413559786702,5906.456208613398
1.692,-1.8005534687031057,5898.093118945279
1.696,-1.4130292173262466,5894.460757119307
1.7,-0.9114394552293609,5884.282698294852
1.704,-0.3779466518630878,5896.164939660573
1.708,0.09645587515992891,5900.797818485046
1.712,0.43157165569444905,5904.614109762588
1.716,0.5754970997337537,5899.054194038175
1.72,0.5157450177991119,5902.791974679585
1.724,0.28145956411188233,5893.122793922871
1.728,-0.06387880962502739,5894.045837456009
1.732,-0.4377183155853394,5893.242063337203
1.736,-0.7579267089176057,5908.767365241492
1.74,-0.9613160789802881,5891.377711589936
1.744,-1.0162655648298597,5905.914392245606
1.748,-0.926481061834569,5903.285923744187
1.752,-0.7256347091663307,5903.511371814908
1.756,-0.46505322435722585,5888.937685365808
1.76,-0.19831941605994516,5901.678855969039
1.764,0.03264746393393262,5898.632719989175
1.768,0.20614146151674184,5899.304410683583
1.772,0.3219945759442308,5896.457016349327
1.776,0.39627581418359414,5898.921301987078
1.78,0.45167198391784763,5898.445497877638
1.784,0.5066766139874462,5895.651177734813
1.788,0.5673469275375067,5903.85005832273
1.792,0.6256187084000413,5899.031034294262
1.796,0.6662421026805893,5890.305010049803
1.8,0.6796087302221384,5894.634215798881
1.804,0.6730050532127333,5890.082569555945
1.808,0.6725753734288608,5902.046565110523
1.812,0.7134991576796343,5895.672923051337
1.816,0.82288002107782,5908.264673716241
1.82,1.0039802496715986,5900.943989330428
