时间(s),电压(V),幅值(高频80K)
0.0,-0.7235705305269622,5899.367614876549
0.004,-0.33199428048668794,5903.985862267083
0.008,0.043175960476138385,5897.5346103762695
0.012,0.39021019723538286,5900.111160397082
0.016,0.6971537410122496,5898.039981122601
0.02,0.9520885780191688,5898.793808489311
0.024,1.1448359599208229,5899.3502197735415
0.028,1.2685841007122554,5907.167213004738
0.032,1.319596612167351,5893.983651260377
0.036,1.2949013005201078,5905.209783801037
0.04,1.1902889777730719,5901.218797253707
0.044,1.001355896538132,5904.346508804119
0.048,0.7279471490723367,5897.721854082088
0.052,0.37970248341560914,5900.36090805777
0.056,-0.020043535209590107,5904.807773343945
0.06,-0.43355825778306306,5903.696140015395
0.064,-0.8119686179287046,5894.940657779738
0.068,-1.1031931197708427,5905.3311043933245
0.072,-1.2643254361882903,5895.549256792854
0.076,-1.2755479633312865,5895.332671003181
0.08,-1.1498473564186986,5904.711107978592
0.084,-0.9327816593394151,5892.757097766351
0.088,-0.6905864945377957,5897.477380042832
0.092,-0.49097737621783244,5898.3143312403645
0.096,-0.38483842553650555,5896.359900832829
0.1,-0.39560448459150244,5914.485937982628
0.104,-0.5179918544076992,5916.818291888983
0.108,-0.7234071802049453,5898.585721729869
0.112,-0.9684778881249148,5901.423205189505
0.116,-1.2041350581348524,5894.60601452852
0.12,-1.3833946408490227,5893.51150239476
0.124,-1.4667476600869682,5894.754539800566
0.128,-1.425733206535865,5900.96344591444
0.132,-1.2466753023056356,5901.697071339687
0.136,-0.9356961597706968,5888.74281299207
0.14,-0.5229969163236297,5895.41166266089
0.144,-0.06206831183902478,5896.390320730907
0.148,0.3788757148713424,5900.054513963116
0.152,0.7312426175987022,5899.26347360054
0.156,0.9406803406477056,5907.812414156946
0.16,0.9768119995598085,5901.216283933952
0.164,0.83598310882588,5902.814332169908
0.168,0.5381132968093825,5898.637983353181
0.172,0.12048917508593568,5897.843306706463
0.176,-0.3686201878562077,5892.789636625515
0.18,-0.8749221638929376,5893.314240743577
0.184,-1.342029619787584,5899.076451756129
0.188,-1.716276094131948,5910.654861422948
0.192,-1.9538010119959544,5907.118436578068
0.196,-2.028583350520798,5913.74412030709
0.2,-1.9376709123735627,5891.6001402361935
0.204,-1.7004708042979888,5904.303719557388
0.208,-1.3523756820035904,5901.805639552123
0.212,-0.9360502372320778,5901.193914144378
0.216,-0.49395651346470515,5900.093252906497
0.22,-0.06375562050654353,5890.546577080883
0.224,0.32375331382729816,5903.112446346383
0.228,0.6453460082268889,5892.086629358859
0.232,0.8857852482768929,5904.225383390273
0.236,1.0382307518447456,5900.429637932026
0.24,1.1042316502881588,5894.550097261682
0.244,1.0929917178315638,5893.493970061098
0.248,1.0201521973894598,5897.512740411694
0.252,0.9063312607107343,5892.849458504859
0.256,0.7753925601684556,5905.28790431406
0.26,0.6525540867527743,5905.86392126898
0.264,0.562257045812994,5895.213715856888
0.268,0.5248896996037498,5898.328459518133
0.272,0.5517047777893733,5908.749231159512
0.276,0.6395372891538891,5903.823698243889
0.28,0.7690084492993863,5907.663873290628
0.284,0.9088544788211034,5897.317272725027
0.288,1.0251946760028385,5899.984191674089
0.292,1.0914832934961096,5901.2467047320615
0.296,1.0951221427640545,5889.705600232258
0.3,1.0391262424296395,5896.183326125573
0.304,0.9392655343275301,5895.13810295516
0.308,0.8182453011383376,5899.519460287392
0.312,0.6995987525769021,5901.816439518669
0.316,0.6042524527250676,5894.516527299351
0.32,0.5506766764827388,5900.192086925544
0.324,0.5562816466160629,5901.366347471639
0.328,0.636408276189526,5895.581113226411
0.332,0.7992819132926282,5899.012089179288
0.336,1.0388421428386505,5902.941102643487
0.34,1.3295897308589435,5906.0721186942
0.344,1.627214220055424,5894.484728501553
0.348,1.8762070410081733,5892.2920296094
0.352,2.022280072338452,5894.740870375509
0.356,2.0252962540455957,5906.668811114771
0.36,1.8689219341297876,5895.736854342399
0.364,1.5651179474915837,5897.219550562506
0.368,1.1527479537109986,5896.754270721271
0.372,0.6899656927171522,5895.317884786316
0.376,0.2412547111237684,5907.594020213832
0.38,-0.1377017765741695,5894.659269470478
0.384,-0.4125513993993811,5900.9611123586765
0.388,-0.5761824074537399,5902.015815948477
0.392,-0.6466709126221146,5893.189128976194
0.396,-0.6587302250738266,5892.516841918112
0.4,-0.6516939835561247,5897.659166456868
0.404,-0.6572808124354405,5897.300311059955
0.408,-0.6899288490296259,5903.213239815744
0.412,-0.7419826136611842,5902.781720987418
0.416,-0.7854660818303071,5901.270056725143
0.42,-0.7810485288667499,5894.830186002926
0.424,-0.6926940059330107,5895.904602369825
0.428,-0.5038103154943852,5899.3288884557605
0.432,-0.22890952542381696,5899.390414512272
0.436,0.08463781570168984,5905.586831842844
0.44,0.36694365022917935,5899.4612378986085
0.444,0.5455299963801434,5906.486869498455
0.448,0.5681328624095363,5902.938081833933
0.452,0.4198200809299151,5900.957456864469
0.456,0.127545947414869,5894.615117347636
0.46,-0.24942205390153427,5900.5191110330525
0.464,-0.6380533519701894,5905.424245559968
0.468,-0.9703860083894402,5898.565188508378
0.472,-1.1963974082824833,5899.505742952172
0.476,-1.2902168280424569,5903.735284799104
0.48,-1.251996669377938,5902.623557653923
0.484,-1.1064991759754137,5904.232115111037
0.488,-0.8971131485053266,5896.224176683379
0.492,-0.6740428567303982,5904.959462479227
0.496,-0.4782496457021929,5899.803345613597
0.5,-0.32633406097989975,5904.379093713639
0.504,-0.20318880141377071,5896.261073131335
0.508,-0.06720698338326474,5902.837711518273
0.512,0.1324679312075554,5904.281563460212
0.516,0.4331836866698994,5897.517041913822
0.52,0.8403462046402375,5899.061504038873
0.524,1.321440446772379,5900.57837470102
0.528,1.814691922953857,5893.769671566631
0.532,2.247822382989278,5896.253934581002
0.536,2.5583453318214895,5898.38951509507
0.54,2.7071674634369782,5894.560693382727
0.544,2.6814665404350526,5893.533542140655
0.548,2.488703841139186,5896.798857781741
0.552,2.1477945576160766,5912.0452658683525
0.556,1.6833983711913134,5895.295383728283
0.56,1.1256006612655747,5899.4059695791
0.5640000000000001,0.5130198486883776,5894.735215447421
0.5680000000000001,-0.1046166661097313,5901.302718190567
0.5720000000000001,-0.6676492747263858,5898.861705099544
0.5760000000000001,-1.112576280338465,5896.485788021233
0.58,-1.3822631265700416,5901.0255246919205
0.584,-1.438163902151212,5901.352082668418
0.588,-1.2717956568530495,5903.038282231075
0.592,-0.9123652541113628,5897.996155153998
0.596,-0.42716198413585804,5893.957245653713
0.6,0.08806482540526885,5898.371396845687
0.604,0.5288520457591676,5893.175740035092
0.608,0.8077043812500992,5896.012475732177
0.612,0.8776188580259959,5892.669271581571
0.616,0.7442584378873752,5903.911070185295
0.62,0.46113775549914776,5891.964301396536
0.624,0.10952329752290771,5895.013288198006
0.628,-0.22853331468716748,5889.537961882447
0.632,-0.49355999540360224,5897.218102389797
0.636,-0.6607714888290027,5899.2736422697335
0.64,-0.7387088057071814,5908.300608972788
0.644,-0.7577424286655068,5900.537151573362
0.648,-0.7547918758655178,5902.29132134537
0.652,-0.759822378854866,5905.0742507087625
0.656,-0.7870308795519488,5898.415870052445
0.66,-0.8320923393050497,5903.36707211521
0.664,-0.876244460407237,5909.210222638143
0.668,-0.8961149535398898,5902.416285587465
0.672,-0.8751982937396285,5903.011689030181
0.676,-0.8115654523187661,5898.343818566586
0.68,-0.7184825647379398,5906.415737592758
0.684,-0.6187225968735096,5900.673071102084
0.6880000000000001,-0.5362575131316252,5896.286629722118
0.6920000000000001,-0.4888360106141034,5895.29683692848
0.6960000000000001,-0.48294081320525645,5900.597044211798
0.7000000000000001,-0.5112420413197835,5897.662559393409
0.704,-0.552578675483004,5897.346159260909
0.708,-0.5746909738759572,5904.977048475618
0.712,-0.53980964611217,5898.927450430005
0.716,-0.4128437383707472,5896.096686337142
0.72,-0.17102121347780858,5891.698146889166
0.724,0.18743119666031993,5913.02432629446
0.728,0.6384086830743319,5906.80158516313
0.732,1.1327839670845554,5911.393896738922
0.736,1.6036989661307526,5903.384876784147
0.74,1.9797203864443484,5900.955742787972
0.744,2.201145756375611,5895.714646184556
0.748,2.234461491208099,5909.128889001714
0.752,2.0798390395112194,5903.203798528808
0.756,1.7692455539419891,5894.210981728616
0.76,1.3564931883855793,5900.66002899095
0.764,0.9034980936180416,5894.383229690549
0.768,0.46796079996990314,5906.279322562203
0.772,0.09585528906193057,5901.710846905425
0.776,-0.1814146416998263,5897.549024777681
0.78,-0.34762888096609895,5900.795557549971
0.784,-0.4021009509267413,5907.3409033068365
0.788,-0.3600296548724234,5905.83077755698
0.792,-0.25203284729383235,5902.243791000622
0.796,-0.12157886515940847,5903.274041509033
0.8,-0.01882887380240157,5909.0024793157545
0.804,0.009797538530003851,5899.335635151842
0.808,-0.0654125686060447,5897.374674850805
0.812,-0.24649671742660806,5894.294404481525
0.8160000000000001,-0.5039111610381901,5905.54708447069
0.8200000000000001,-0.7821501992425043,5904.051647329141
0.8240000000000001,-1.0136541340655758,5899.583838090703
0.8280000000000001,-1.1372448699834645,5896.634627747476
0.8320000000000001,-1.116044091914246,5904.054314753545
0.836,-0.9492919841138237,5898.051628009722
0.84,-0.6735621941978206,5910.460198119515
0.844,-0.35230640453611556,5901.771287016999
0.848,-0.05730467254218205,5897.467339033289
0.852,0.15094967126237596,5900.371526695686
0.856,0.23672670508065802,5898.245947018389
0.86,0.19259898653912672,5903.662385173166
0.864,0.034148548967126845,5896.190095033121
0.868,-0.20947865217624903,5887.524979482257
0.872,-0.5039459053473353,5907.065257948684
0.876,-0.8143389933749405,5899.552967286031
0.88,-1.1068920033113276,5898.891675128166
0.884,-1.3502595776057844,5904.104210245902
0.888,-1.5177225825691223,5908.4422745693455
0.892,-1.5901465460173734,5897.742867852022
0.896,-1.558819564354193,5908.762267591479
0.9,-1.4271660272448845,5898.235333434374
0.904,-1.2105203695617681,5905.279667905127
0.908,-0.9337936079960455,5899.189766173192
0.912,-0.6275887706491108,5905.798195607797
0.916,-0.3234814749620243,5902.364273348022
0.92,-0.048924877817695805,5901.496908207077
0.924,0.1774500025946596,5905.531251988907
0.928,0.34818249839115906,5907.753045209179
0.932,0.46460175006253657,5900.705346842389
0.936,0.529497397150064,5892.211768484449
0.94,0.538350008773605,5898.433939816398
0.944,0.4747236129285439,5898.779135310773
0.948,0.313919322009195,5903.045695651537
0.952,0.03469670813303027,5903.565791467482
0.956,-0.36559762549801295,5902.67502180606
0.96,-0.8592217586603399,5895.984251281185
0.964,-1.3852457875120379,5896.219012868171
0.968,-1.8583286277686144,5902.254928631827
0.972,-2.187427970674328,5900.728294540023
0.976,-2.2990139432719503,5904.770408678522
0.98,-2.158062222975136,5892.276668932258
0.984,-1.7813949192876548,5904.819026994699
0.988,-1.2394677358958244,5899.366499606427
0.992,-0.6439490893952504,5908.624489735951
0.996,-0.12171928643699474,5906.44615616445
1.0,0.2184170341043894,5901.543777750291
1.004,0.31553338575074646,5899.791644286845
1.008,0.17233073830393547,5892.45006817405
1.012,-0.14867588657272418,5902.912597496087
1.016,-0.546673130421853,5907.567240790485
1.02,-0.913525096421051,5907.283339486834
1.024,-1.1630182623027958,5905.299409497648
1.028,-1.248684192215819,5901.71135572675
1.032,-1.1659505670026178,5904.441749137577
1.036,-0.9412067132885947,5910.311929207922
1.04,-0.614994587131932,5898.313559229352
1.044,-0.2271120499583994,5902.331249582379
1.048,0.1912786240068833,5905.410614943875
1.052,0.6176468693560414,5905.674171195128
1.056,1.0331953934650084,5894.253324963579
1.06,1.4178245031169625,5897.075838164819
1.064,1.7484360642811394,5901.374036059043
1.068,2.0009897238561396,5904.352310964476
1.072,2.1546143593042024,5891.36532343852
1.076,2.1961706673362413,5903.988806888073
1.08,2.124310455013308,5904.440034468031
1.084,1.9516598623586214,5893.110792219586
1.088,1.7033476744220326,5899.214801584629
1.092,1.411364170965657,5899.956473376512
1.096,1.106420699861018,5893.514015435301
1.1,0.810207837549477,5904.96137651585
1.104,0.5308227801472877,5910.240852421624
1.108,0.2631815814099414,5897.44823289236
1.112,-0.0054917945453543775,5902.205431856327
1.116,-0.2870869068058194,5902.9161399596605
1.12,-0.5841074868201397,5892.330815030062
1.124,-0.8841448955573891,5893.500334450151
1.128,-1.1591470154792514,5900.076087491145
1.132,-1.3700610613242554,5893.308826848161
1.136,-1.4761151989740107,5892.7411015705065
1.14,-1.446617319509258,5899.556172804873
1.144,-1.271974006987566,5901.1536866664965
1.148,-0.9703477711911644,5902.985213863987
1.152,-0.5872035042060539,5909.358518916315
1.156,-0.18664628615959172,5900.409446558975
1.16,0.16379513202979037,5904.2099076862205
1.164,0.40990629845833787,5900.225778666453
1.168,0.5228012990194266,5913.967613563756
1.172,0.50264215153921,5899.431598045246
1.176,0.3746108958605863,5895.646514398324
1.18,0.17997389755807455,5893.419476464583
1.184,-0.03473393728135356,5904.300299925538
1.188,-0.22799317224250332,5898.9402493179405
1.192,-0.3714084747412302,5905.0199860923685
1.196,-0.45444825004050965,5901.747637269829
1.2,-0.48452674343402846,5900.241006898802
1.204,-0.4816131315851167,5896.069890174018
1.208,-0.4686548266784144,5893.253099483783
1.212,-0.46154220122939965,5894.184557939452
1.216,-0.46277981599951923,5902.120911783288
1.22,-0.4610992305569447,5905.395604885769
1.224,-0.4364619620961808,5896.786328053602
1.228,-0.3676992896256198,5904.791080690421
1.232,-0.23953968230295528,5903.412721288766
1.236,-0.04748947662857024,5897.35692287482
1.24,0.1988328498401309,5898.913203504137
1.244,0.47362916974536307,5898.182974090076
1.248,0.7362936984724389,5902.787850174313
1.252,0.9391756099835209,5899.931014711951
1.256,1.0415721454094662,5896.247483641437
1.26,1.0251286465534608,5896.619815376655
1.264,0.9035957704919733,5904.290881076981
1.268,0.7217084277893621,5904.114387611922
1.272,0.54251764485086,5905.579598430948
1.276,0.4275196625963648,5900.783680602961
1.28,0.4171988199344374,5902.32486752808
1.284,0.5193913312884024,5902.829072519935
1.288,0.7091071606859268,5901.714101051038
1.292,0.9385444807075768,5896.82748271999
1.296,1.1527973782367331,5904.088118939488
1.3,1.305819518044412,5909.280429840926
1.304,1.3718950004606052,5898.253021426004
1.308,1.3497975672035574,5896.330519316891
1.312,1.259346831576296,5892.837141215948
1.316,1.1322440888387044,5901.741000879079
1.32,1.0005371397122893,5898.814358869477
1.324,0.8867170326583476,5900.83894314469
1.328,0.7989165253124062,5901.99379723527
1.332,0.7327199973923912,5887.4892862697725
1.336,0.6780713804485484,5903.497218332356
1.34,0.6272385772702136,5899.700984802054
1.344,0.5797370464110718,5901.618033877303
1.348,0.5422910932717354,5897.175669770893
1.352,0.5241063937234549,5898.069774834216
1.356,0.5291873529782669,5901.186244702551
1.36,0.5489030593164265,5898.073150957389
1.364,0.5588559875058103,5891.527202901434
1.368,0.5228082154267747,5902.945975022239
1.372,0.4032279206465934,5900.604590238236
1.376,0.174907742740847,5902.6117428876805
1.38,-0.1633660310654749,5900.219346936962
1.384,-0.5836529137354506,5900.929714541638
1.388,-1.032629811438349,5899.213329669543
1.392,-1.4434183298297072,5905.098610486153
1.396,-1.7515718100962023,5894.086903861466
1.4,-1.9104958563349828,5899.975680216418
1.404,-1.9029013240524038,5895.914958281374
1.408,-1.7460683112493318,5906.019215284608
1.412,-1.4888295065376156,5895.6502569094855
1.416,-1.199379704086808,5902.378821169494
1.42,-0.9465018939968837,5901.4491314143215
1.424,-0.7803258674514768,5901.774511162701
1.428,-0.7196088845720365,5903.377494687003
1.432,-0.7501050693277187,5896.604714909488
1.436,-0.833701128831741,5898.941863291385
1.44,-0.9230622022276873,5890.607498464133
1.444,-0.9750043490612214,5904.360751031795
1.448,-0.9587697727025016,5894.920468149676
1.452,-0.8598327940375098,5905.511478789924
1.456,-0.681796279331956,5896.335315163338
1.46,-0.44742594694617915,5892.2054722257135
1.464,-0.19737189012804898,5900.309858951602
1.468,0.015747583476275227,5896.499028143963
1.472,0.13878511506452124,5895.84084202313
1.476,0.13297279726767766,5905.596381944479
1.48,-0.012420716623354788,5906.266978240111
1.484,-0.27302857987352525,5891.8600337671705
1.488,-0.5925316919722813,5898.281686435011
1.492,-0.8963521998061579,5904.996201682574
1.496,-1.1121988148561492,5897.453038134417
1.5,-1.19025913754983,5900.608623108729
1.504,-1.1152369207601514,5889.998671184465
1.508,-0.906199454646804,5906.817784158066
1.512,-0.60629578708616,5902.596931502231
1.516,-0.26848498998036496,5893.37284015804
1.52,0.056901984767193506,5904.752707759679
1.524,0.3301377873651674,5900.842688048317
1.528,0.5260754293765025,5895.368501831889
1.532,0.6358691549145014,5891.296239158152
1.536,0.6674472635121147,5897.351410188274
1.54,0.6439491629000714,5895.366403832405
1.544,0.598508198398618,5898.798937915245
1.548,0.5653426185243156,5901.668975063224
1.552,0.5698355671835658,5907.9537018049305
1.556,0.6212567254081094,5905.2666644862775
1.56,0.7101511778986971,5904.113923414351
1.564,0.8103340401366824,5897.585447610585
1.568,0.8847771965763805,5901.162373255767
1.572,0.8946820699196956,5897.406073918902
1.576,0.8102078472113701,5902.421549944177
1.58,0.6200095084394052,5894.022359331328
1.584,0.3362384151408344,5907.342236396299
1.588,-0.007401648606066354,5902.29071761972
1.592,-0.36446399903391336,5894.398054209048
1.596,-0.6880295105480634,5903.037412033781
1.6,-0.9411160074230744,5906.406877269976
1.604,-1.1013470745813798,5890.643314336925
1.608,-1.1597343443862338,5902.019596158876
1.612,-1.1163771323197218,5904.174545760129
1.616,-0.9764915891190094,5900.704213272209
1.62,-0.7490571094196269,5901.257526931545
1.624,-0.4483295933009756,5908.002864568582
1.628,-0.0963996338155419,5900.759332854097
1.632,0.27572413578374166,5897.315971350338
1.636,0.6300907796877709,5906.422045230911
1.64,0.9271730741125238,5901.678018152113
1.644,1.1339763259439435,5896.13327037495
1.648,1.2328899441305463,5892.264286980477
1.652,1.2277574791491939,5901.57391575015
1.656,1.1436288876245966,5892.435212397066
1.66,1.0192808488650809,5907.147752765585
1.664,0.895430363117151,5898.371690348291
1.668,0.8035649407175365,5897.14908973661
1.672,0.7590464191301937,5901.931235218653
1.676,0.7593526343150486,5903.584607183297
1.68,0.786465482473218,5898.106061019578
1.684,0.8119966188373687,5898.749097704978
1.688,0.8038523228727187,5896.325969210153
1.692,0.7336509971886062,5894.7562043115
1.696,0.5844244739195216,5895.36221393155
1.7,0.3575685658167102,5902.3300972005145
1.704,0.07645401032654259,5911.356981061384
1.708,-0.21655918163136953,5907.658281007703
1.712,-0.4705817560458443,5902.261059586809
1.716,-0.6405601852005814,5897.347285209028
1.72,-0.6994164005785287,5897.750840228636
1.724,-0.6436448563976057,5892.743166736003
1.728,-0.4923819909997055,5905.554278427711
1.732,-0.2827589296310014,5896.253973135223
1.736,-0.06375172811901023,5901.760827088817
1.74,0.11125914090616555,5902.0015472365
1.744,0.19361771084113366,5894.683096785378
1.748,0.1494763168359451,5898.0565286663
1.752,-0.031409673396365245,5900.597092788405
1.756,-0.33119894329352273,5890.842280943919
1.76,-0.7061740795812274,5890.969636209144
1.764,-1.0958665065907913,5907.477800864542
1.768,-1.4367057249067434,5901.826039739927
1.772,-1.6761943698588433,5905.93674839865
1.776,-1.7836107702386623,5890.35985891256
1.78,-1.7545120888446755,5900.842078084309
1.784,-1.608310785875425,5895.8377804543525
1.788,-1.3804487374539365,5898.935691526266
1.792,-1.1124107856205432,5902.336815922258
1.796,-0.8431199345588655,5906.3349994998425
1.8,-0.6039882602847552,5904.796640379994
1.804,-0.41771456932782386,5896.88523665917
1.808,-0.2989307796193928,5893.99558837504
1.812,-0.25430149679590536,5901.940862275891
1.816,-0.28118836250961443,5893.475401425605
1.82,-0.36636189353418724,5907.022657952893
1.824,-0.48738731283133674,5904.344415005595
