时间(s),电压(V),幅值(高频80K)
0.0,0.8180096609441306,5900.092412813513
0.004,0.9780774403907433,5893.080782902573
0.008,1.0992105292873013,5897.714092575298
0.012,1.1426669453840972,5901.351597823099
0.016,1.0737351515098468,5902.759820034997
0.02,0.8702595984033548,5899.730774583584
0.024,0.533440644155731,5900.863200192195
0.028,0.09611584949110212,5900.290150763176
0.032,-0.3777481967015908,5893.768132495693
0.036,-0.8050784896716675,5893.204066584348
0.04,-1.1035716370180773,5897.082013656878
0.044,-1.2119452900306549,5895.546579424845
0.048,-1.104284866383531,5896.533033867924
0.052,-0.795918532601828,5893.863696827427
0.056,-0.3409106408554723,5892.710062351293
0.06,0.17803807878197236,5899.547826386765
0.064,0.666172806976337,5895.494472369101
0.068,1.0371533381125615,5900.421350766547
0.072,1.232528840201532,5895.538454459799
0.076,1.2342641113081076,5892.661446784894
0.08,1.0662070300045277,5896.396584140025
0.084,0.784608260920127,5900.596273149579
0.088,0.4618299161398483,5902.985793346795
0.092,0.16894986181606314,5899.230601215902
0.096,-0.038186044626095234,5901.731136897972
0.1,-0.12740672357143268,5897.055353826221
0.104,-0.09315393837362705,5903.547770954645
0.108,0.04536703989956379,5904.0450319429065
0.112,0.2502326103361654,5902.038154773704
0.116,0.4742902713826509,5900.765300807059
0.12,0.6723222183285618,5897.821923791871
0.124,0.8108673554070682,5904.947774434763
0.128,0.8737407229820746,5900.384904560223
0.132,0.8624011591369497,5901.190122791073
0.136,0.7929830263082398,5905.093753825757
0.14,0.6924848213048301,5904.232324893737
0.144,0.5947001782047066,5897.955720745176
0.148,0.5344232650488929,5903.625295269872
0.152,0.5391510997245716,5896.530820680871
0.156,0.6205992282737371,5898.720652253604
0.16,0.7704258528682169,5894.227986568899
0.164,0.9631612720183957,5900.067791555409
0.168,1.1653481632232123,5890.395896445792
0.172,1.3463106953785664,5904.303505335902
0.176,1.4855341839538143,5899.6144967524415
0.18,1.5746017602733888,5899.106524253735
0.184,1.6151317721240388,5895.732530414153
0.188,1.6151006080716976,5906.264251058223
0.192,1.584565369659859,5901.104669684323
0.196,1.5309166281442919,5897.259208100695
0.2,1.4546955737011456,5893.521533455131
0.204,1.3480824745230973,5905.036137569451
0.208,1.1975410000171025,5898.886693733351
0.212,0.9900508187167194,5899.327795258784
0.216,0.7206132532960037,5898.976942294928
0.22,0.39844220125025454,5896.49983766267
0.224,0.04990164870972853,5906.972753143895
0.228,-0.2835003067639851,5899.995682233682
0.232,-0.553608686461062,5893.346710676522
0.236,-0.7200997818803097,5892.295330881613
0.24,-0.7661980161239738,5900.113677096158
0.244,-0.7078575532507136,5900.112894814646
0.248,-0.5904067489849699,5899.437507936432
0.252,-0.47286314007382635,5895.582505849552
0.256,-0.40669688685097727,5905.407968154719
0.26,-0.41860597159906604,5892.81041752184
0.264,-0.5044919111597437,5901.452566169706
0.268,-0.6359507701196714,5894.6175518180025
0.272,-0.7746117102472526,5893.006595601348
0.276,-0.8867443699101768,5898.454825416365
0.28,-0.9518146710350769,5906.354336400109
0.284,-0.9627852618102335,5900.053636602003
0.288,-0.9205626985002304,5907.633423564276
0.292,-0.8278546430815066,5906.535496960934
0.296,-0.6872562316916886,5905.728858212809
0.3,-0.5047654368289736,5900.13409662995
0.304,-0.2956070474233164,5896.8415540770775
0.308,-0.08733540128595614,5898.159952209702
0.312,0.08321831788383705,5896.604201020479
0.316,0.1788573667502893,5905.03743515077
0.32,0.1730215784494931,5907.557730531127
0.324,0.057964101625673496,5897.93008063186
0.328,-0.15306550589156448,5908.527046263711
0.332,-0.429479695109249,5906.37717180382
0.336,-0.7299870656986965,5902.238676047819
0.34,-1.0089822474813257,5900.779544124374
0.344,-1.2215818975082944,5903.666602955309
0.348,-1.3284713880203658,5896.059330156252
0.352,-1.3016452686731144,5907.485544389953
0.356,-1.130199702253222,5905.909282255341
0.36,-0.8241569455245558,5904.728787798441
0.364,-0.41491226793577846,5903.725218064297
0.368,0.04790726884842046,5891.385132479014
0.372,0.5028207233100563,5895.474812281322
0.376,0.8856455070554148,5899.392087635112
0.38,1.140377824956552,5902.867775041495
0.384,1.2295863026175056,5898.995233422151
0.388,1.1414359283368964,5901.768181882476
0.392,0.8913125643095882,5907.077604300752
0.396,0.5181897445349022,5902.743236940356
0.4,0.07788249335373909,5903.27558323588
0.404,-0.36467202193740117,5898.835617923047
0.408,-0.7440519584473478,5896.3665135160645
0.412,-1.0051226862559715,5895.899750977826
0.416,-1.1148662091199262,5897.168496395952
0.42,-1.0703431475302776,5906.36262633984
0.424,-0.8976932138873384,5900.50918613028
0.428,-0.6419954478083755,5899.643731488421
0.432,-0.35321965723513654,5896.313643044167
0.436,-0.07468824656002003,5896.964328930849
0.44,0.16259191632791617,5899.83633425593
0.444,0.3404628787965214,5887.918134234934
0.448,0.45178644340487634,5906.052102822408
0.452,0.4981242160269731,5903.615686286737
0.456,0.48701028756888864,5899.265164081337
0.46,0.4288347943424005,5901.955149176542
0.464,0.33461427032193236,5904.429812814426
0.468,0.21597157571604492,5908.3966725276805
0.472,0.08681068246411963,5903.942096441829
0.476,-0.035709146515976106,5892.589950006345
0.48,-0.13342721885613884,5902.66309867046
0.484,-0.19318889091950955,5901.3397131826505
0.488,-0.2139434505317788,5898.46566670161
0.492,-0.21019119594164082,5902.331924193888
0.496,-0.20845534573118338,5904.127337791254
0.5,-0.23795371218318384,5902.011944313037
0.504,-0.32048152359842247,5905.849561321956
0.508,-0.46437792441198583,5902.72991098201
0.512,-0.6638625841291576,5904.893141804414
0.516,-0.901238937838669,5905.738780629439
0.52,-1.1482973005039674,5902.737333624161
0.524,-1.365542411157647,5893.702691052089
0.528,-1.501950650452755,5906.28107612088
0.532,-1.50031539547686,5902.136562883252
0.536,-1.311322126360791,5904.485689565296
0.54,-0.9140966053686754,5902.028007809185
0.544,-0.3353329304828026,5899.1844519896
0.548,0.3433232109724715,5896.698996248226
0.552,0.9969916492981751,5907.534751872763
0.556,1.4877614393269971,5891.313738317736
0.56,1.7038076134293698,5902.986682126382
0.5640000000000001,1.593298606825772,5900.794617725842
0.5680000000000001,1.1809696164543395,5901.476040506847
0.5720000000000001,0.5616975119867168,5898.3893526458205
0.5760000000000001,-0.1264745670402074,5907.751945532923
0.58,-0.7399079583261131,5894.881360172988
0.584,-1.1639753176203271,5911.411453474322
0.588,-1.3340258838578274,5904.674330193974
0.592,-1.2394846029954865,5899.712027430199
0.596,-0.9147859425466585,5915.906752728342
0.6,-0.4237861746770454,5896.209353769299
0.604,0.15665461212609763,5902.635502592964
0.608,0.750745624738199,5907.601703172673
0.612,1.2941196126871297,5889.126631864505
0.616,1.739876740375706,5905.249474093995
0.62,2.0604559657050725,5903.568134349239
0.624,2.246196794643768,5899.405385262901
0.628,2.3016003391649953,5901.93308171494
0.632,2.240319973874657,5898.317003267146
0.636,2.0803912595138585,5890.999219473438
0.64,1.8413006147361604,5892.102827732581
0.644,1.5433775230398428,5910.604142676107
0.648,1.2086048284374096,5899.746694783964
0.652,0.8614774214870995,5901.581862596039
0.656,0.5288299864842066,5903.436818416333
0.66,0.2380305987041717,5900.520705853021
0.664,0.013621400990032378,5907.359639077527
0.668,-0.1266761892622695,5898.202826504683
0.672,-0.17508918386911784,5901.4496683089055
0.676,-0.13452333050938123,5904.255627200462
0.68,-0.016234313894898,5896.958392648475
0.684,0.16446039622461234,5903.064508597251
0.6880000000000001,0.3918549079098953,5897.460255974078
0.6920000000000001,0.6505340036074029,5905.882146848559
0.6960000000000001,0.9225293235533073,5904.028383713303
0.7000000000000001,1.1828227717929494,5906.725418892035
0.704,1.3967359746073578,5906.11912171531
0.708,1.5225621820369988,5895.248099424281
0.712,1.520464556361647,5904.299399948502
0.716,1.3652814439298826,5907.470125995026
0.72,1.0583855103282618,5898.99762102704
0.724,0.6336366536836664,5894.249133686122
0.728,0.15466694959241228,5893.455937398081
0.732,-0.29628829096764325,5893.989738382087
0.736,-0.6354148094711595,5899.582884059336
0.74,-0.7960596478020455,5895.810323697433
0.744,-0.7443228300259848,5901.377062035782
0.748,-0.48707145922171113,5900.542970380688
0.752,-0.06970787909930293,5898.899560118944
0.756,0.4361423279408165,5905.024258117001
0.76,0.9513775816993825,5898.866423227537
0.764,1.4080090209665064,5902.552328505241
0.768,1.760720488446609,5900.147512713636
0.772,1.9880208058332873,5894.896591309426
0.776,2.08491576553697,5899.599523190452
0.78,2.0527112652289388,5900.553093814614
0.784,1.8920224886986687,5902.46662386135
0.788,1.6029813728785318,5892.042712991909
0.792,1.1929425565343428,5896.57287731737
0.796,0.6875596085653626,5900.401339674017
0.8,0.13801843342782422,5899.768263155769
0.804,-0.38201724928840797,5892.985034806921
0.808,-0.7913358972180002,5900.965614515705
0.812,-1.0233160322502677,5899.680951152308
0.8160000000000001,-1.046334738643685,5906.870035559503
0.8200000000000001,-0.8734131104333065,5905.66085717827
0.8240000000000001,-0.5566229886879711,5903.2158832071855
0.8280000000000001,-0.16903768738735273,5902.415736477188
0.8320000000000001,0.21721606425240583,5907.06295473215
0.836,0.5475314939825646,5901.3025906713065
0.84,0.7911428413917335,5899.075601637241
0.844,0.9384182559180493,5888.867270724693
0.848,0.9939909816239851,5897.09931215026
0.852,0.9701994584199304,5891.0851950262895
0.856,0.8828372654601154,5898.804185175995
0.86,0.7492248773800885,5910.163174782416
0.864,0.5875753081672266,5906.112320105953
0.868,0.4162368629627582,5908.69392082249
0.872,0.25202059574330815,5902.079321973896
0.876,0.10802317906708829,5907.06142763792
0.88,-0.008257345246495388,5896.666830891689
0.884,-0.09614795277880422,5894.808497101514
0.888,-0.1619329439643878,5899.788519872163
0.892,-0.21690463529855525,5913.227484649488
0.896,-0.2727361243907285,5894.969098696476
0.9,-0.3352149349606868,5906.350177755326
0.904,-0.3989554116586731,5911.887811133063
0.908,-0.44594724762150284,5907.439692413205
0.912,-0.44934109557895024,5902.537893977082
0.916,-0.38145112778944146,5901.7896764558855
0.92,-0.22303216804285173,5907.59731323562
0.924,0.02956599285672906,5895.914565238684
0.928,0.3618524689872538,5905.888954291058
0.932,0.7438905327176468,5897.018195451688
0.936,1.1365378814799336,5896.316173048083
0.94,1.497939808311245,5914.15294793623
0.944,1.7878225328601398,5900.1196096650565
0.948,1.9702082433755759,5899.971505959786
0.952,2.0172416699301188,5909.771435976054
0.956,1.9152558808501514,5898.955220982783
0.96,1.670772246804286,5894.60165947458
0.964,1.312545802879315,5892.6721651304
0.968,0.887149326070548,5901.118759256785
0.972,0.448497865535422,5896.390488862437
0.976,0.04458638810885103,5904.3089991094375
0.98,-0.293709005091757,5905.722856623992
0.984,-0.5577174310166333,5899.663074900497
0.988,-0.7588860032193796,5898.628579503473
0.992,-0.9216120582490391,5910.302266014726
0.996,-1.074110643558403,5904.258737697038
1.0,-1.2391679341533102,5903.3452920114805
1.004,-1.4255166304917488,5902.4362310743
1.008,-1.6216607664758806,5891.231637507966
1.012,-1.7957842407975482,5901.855630665037
1.016,-1.9044245505586321,5896.779438073634
1.02,-1.9081430416153338,5900.848578550701
1.024,-1.7876896318950173,5906.851099113275
1.028,-1.5529061665998989,5895.334952860462
1.032,-1.2400515621555674,5904.2309328964775
1.036,-0.8993765619774475,5898.643543580733
1.04,-0.5795852609257747,5896.865708200783
1.044,-0.3161760708303415,5904.813028043655
1.048,-0.12707086985027985,5899.115246662016
1.052,-0.014682673117554812,5894.323168458022
1.056,0.028743091229368238,5894.114415876908
1.06,0.015697999502845113,5895.753995907445
1.064,-0.04033287214017784,5902.717973877958
1.068,-0.12682703743088256,5898.574328101021
1.072,-0.23310572408022004,5896.499439831263
1.076,-0.35061436330715956,5898.739684771303
1.08,-0.47268773794030516,5900.2225399043455
1.084,-0.5938733376521671,5900.342621537643
1.088,-0.7087572200236649,5895.8961887062815
1.092,-0.8098893742520726,5902.662550628845
1.096,-0.8849873026633501,5909.358428963964
1.1,-0.9154921648640497,5900.749132413932
1.104,-0.8796412057272261,5901.430125415727
1.108,-0.7612952923504269,5894.767936094515
1.112,-0.5616782458177616,5896.018219006256
1.116,-0.3079320038565211,5894.235085961086
1.12,-0.052419460334952636,5896.677173606122
1.124,0.13932702019490054,5910.862905331416
1.128,0.20813659783114197,5905.790929285032
1.132,0.12034550945288572,5894.593554955799
1.136,-0.1206695784589862,5904.786682522451
1.14,-0.473923025996972,5905.419377679925
1.144,-0.8707108578875725,5892.807351215858
1.148,-1.231916963404041,5906.2323224898655
1.152,-1.4879499103214144,5895.432183450461
1.156,-1.5956759883795661,5896.769423567274
1.16,-1.5474846799804753,5905.873874175658
1.164,-1.3699982936621478,5903.524749489905
1.168,-1.113283606118469,5896.723025003074
1.172,-0.8347708734949046,5898.766826639328
1.176,-0.5837994951286226,5895.497499656311
1.18,-0.39164289672737196,5892.756937536637
1.184,-0.26895921405571055,5902.120434360525
1.188,-0.20978698115639408,5915.193299515183
1.192,-0.19928347412040365,5900.793068550147
1.196,-0.22154369776539098,5907.117465016443
1.2,-0.26453018465246103,5900.554196225731
1.204,-0.32117783357647417,5891.45415080421
1.208,-0.387660806334475,5895.026808566501
1.212,-0.4605784142667025,5911.311557800332
1.216,-0.53463192222409,5902.514463881406
1.22,-0.6016681891515716,5901.4547637358855
1.224,-0.6510268634694961,5905.261122913132
1.228,-0.6704247609887342,5896.401050864321
1.232,-0.6467132173301686,5906.177735995553
1.236,-0.5666887079170309,5905.809802586344
1.24,-0.4187106812175507,5892.809163579888
1.244,-0.1954014059995413,5902.631703334747
1.248,0.10317540329113727,5902.0251951967175
1.252,0.4667561471357924,5894.331541049885
1.256,0.873326870182746,5902.907479868337
1.26,1.2895943372352086,5892.6460541141205
1.264,1.6741551952207958,5897.531314303901
1.268,1.9831989025831258,5897.599916792085
1.272,2.1774188381687143,5903.075826078983
1.276,2.2283686902150324,5895.029774851964
1.28,2.123102280564906,5897.96659646913
1.284,1.8666122616135965,5896.500791221838
1.288,1.4814301021988414,5905.493384317304
1.292,1.0034623299539056,5903.381662409633
1.296,0.4742177919676717,5908.285908283307
1.3,-0.06806408763744959,5901.09481395325
1.304,-0.5943881101451449,5906.743048587087
1.308,-1.0852339321150446,5901.38109232507
1.312,-1.5252312043001974,5900.008638094316
1.316,-1.8951978614608807,5897.225043356285
1.32,-2.1658263402309896,5901.042969548676
1.324,-2.297450579331709,5894.799142217248
1.328,-2.248676406878735,5908.885382263809
1.332,-1.992515810900249,5903.3888046038
1.336,-1.533868833830418,5899.759695022868
1.34,-0.9202571997970501,5895.585217012165
1.344,-0.23998593484075134,5896.309941148377
1.348,0.393222585479257,5890.167339627351
1.352,0.8649129408828792,5898.646616314485
1.356,1.086131834121637,5906.184428591566
1.36,1.0130525734409823,5906.377579728419
1.364,0.6548721217091154,5899.2408118866215
1.368,0.06955401085224995,5898.268194599459
1.372,-0.6493511872594355,5903.311874557443
1.376,-1.3903679630179453,5904.494264712943
1.38,-2.042418945445166,5899.460227635801
1.384,-2.5110477969011242,5903.466809683622
1.388,-2.7307151088351116,5905.397873944853
1.392,-2.6722532712751472,5890.9326371871775
1.396,-2.34530469174692,5909.556858467076
1.4,-1.7959150529617578,5907.169006368605
1.404,-1.099576071024287,5894.976227407975
1.408,-0.3501656985389439,5903.114543387523
1.412,0.35426852817702753,5902.896101461468
1.416,0.9268294683168494,5908.933823031497
1.42,1.3050594007055611,5891.266973553279
1.424,1.4592751333690035,5898.0519476651525
1.428,1.394677845142238,5892.829947019975
1.432,1.1477540585429118,5899.903687731143
1.436,0.7783656232087781,5903.639313014335
1.44,0.3591227554668738,5900.1696796041815
1.444,-0.03630439471520023,5906.247418419457
1.448,-0.34438346085917687,5899.566824441628
1.452,-0.5212960601992193,5914.245140855797
1.456,-0.550134542625065,5891.988986970848
1.46,-0.4446454197735621,5895.106802534742
1.464,-0.2474738612715247,5900.109540185363
1.468,-0.02072645250804437,5903.306985240273
1.472,0.17086400256222364,5896.397033575953
1.476,0.27957378946414474,5902.679643159444
1.48,0.28979569662275817,5906.534766326775
1.484,0.22257554143640293,5899.555957183868
1.488,0.1278685764272875,5899.210574195525
1.492,0.06752350760834899,5903.569022336546
1.496,0.09513409704418985,5902.099089338917
1.5,0.23951128226603632,5903.260392560121
1.504,0.4965595996277281,5893.9690922043055
1.508,0.8310295456506976,5888.321148069999
1.512,1.1866956067839967,5903.519673765217
1.516,1.501499482935614,5899.361239232308
1.52,1.7229127077529525,5898.200726023566
1.524,1.8188626201321008,5899.472332342601
1.528,1.7815372052766392,5896.193697925568
1.532,1.6242513581297042,5901.95691094735
1.536,1.373998602614566,5898.331709666531
1.54,1.0634643657806773,5903.124321293095
1.544,0.7253006633284828,5897.228343694382
1.548,0.3887958587724744,5901.771854558876
1.552,0.07724884880967292,5908.586228873042
1.556,-0.19479804597963216,5901.421373058031
1.56,-0.42321702792602023,5905.686250635192
1.564,-0.6130322883556772,5896.440187274456
1.568,-0.774007798453017,5906.375502179123
1.572,-0.9146913419164665,5901.466038149753
1.576,-1.0370844859013535,5899.863470876864
1.58,-1.1337905948343807,5889.7893701069015
1.584,-1.1890083324810192,5906.639560945826
1.588,-1.1836852805090619,5903.577693864968
1.592,-1.1031594378210272,5896.284852487896
1.596,-0.9439408976325208,5897.159594943812
1.6,-0.7166571092133136,5899.937318447245
1.604,-0.4443412170222263,5906.212741031062
1.608,-0.15721474742593003,5907.673425115813
1.612,0.11418539172324872,5901.305836629894
1.616,0.3457573716081955,5902.024778462524
1.62,0.5248160479213836,5893.657328784506
1.624,0.6517318731924336,5893.2576862377055
1.628,0.737135495942333,5904.362797280908
1.632,0.7952032777867238,5903.785802720641
1.636,0.835944004451505,5898.741346044266
1.64,0.860622286138918,5894.79657315169
1.644,0.8628224042801602,5908.810168163481
1.648,0.8340539607695456,5905.564036490274
1.652,0.7699842391057521,5904.404913973526
1.656,0.67341458939105,5902.496161438816
1.66,0.5527002183523074,5890.912100977258
1.664,0.41738833360084665,5902.680109681431
1.668,0.2743767206662523,5910.339061408527
1.672,0.12706291490281904,5903.021486627495
1.676,-0.02256711661253468,5900.673241285662
1.68,-0.17137543565422464,5906.85125835183
1.684,-0.3147084656233122,5896.606491273799
1.688,-0.4483592097507753,5908.146647662536
1.692,-0.5701525730499093,5902.434448408873
1.696,-0.6785991473731751,5898.052126531559
1.7,-0.7690800561939568,5897.910856808764
1.704,-0.8306345331824703,5901.418315357189
1.708,-0.8463361177309852,5909.163812078574
1.712,-0.79817102744954,5889.048804653326
1.716,-0.675113198585932,5903.449812820541
1.72,-0.48152659871542414,5894.8875846010005
1.724,-0.2421541661185481,5901.676740024688
1.728,-0.0005049691615536896,5900.284867022155
1.732,0.18978397546973944,5890.701963524268
1.736,0.2774493795401491,5899.448644255748
1.74,0.22532621981700046,5895.980199326589
1.744,0.01824305743193251,5890.96987408769
1.748,-0.3333122963838328,5902.892348204422
1.752,-0.7928302081712726,5894.032003119561
1.756,-1.300453147980096,5906.934245768775
1.76,-1.7799193342402542,5896.406723828962
1.764,-2.1512035843843424,5900.731944429284
1.768,-2.347859296196768,5900.835030120764
1.772,-2.3343952501067684,5891.209623750218
1.776,-2.117112020449788,5894.147070446006
1.78,-1.7433863714786308,5902.558228219707
1.784,-1.288835636401538,5905.667479299405
1.788,-0.8369753775514295,5900.038661291592
1.792,-0.45902712855653366,5897.592733797833
1.796,-0.20051659520000711,5902.403037798427
1.8,-0.07713011911246795,5897.070009281696
1.804,-0.07803494943294333,5904.6378593438185
1.808,-0.17305552207973166,5897.157681153742
1.812,-0.3209470108990527,5909.697410485216
1.816,-0.477660010826506,5900.270935796887
1.82,-0.6040743014613464,5891.693026927871
