时间(s),电压(V),幅值(高频80K)
0.0,1.529095368328665,5905.455355103118
0.004,1.2388526940955018,5904.7511246013055
0.008,1.0140730004517835,5898.332575310994
0.012,0.8934981591684251,5904.617718814719
0.016,0.8750776443444052,5899.613232432232
0.02,0.9162541963659991,5908.303591023077
0.024,0.9505172834880862,5896.246653726347
0.028,0.9135132132798897,5904.816503715661
0.032,0.7673584880999014,5904.193812106587
0.036,0.513339204023878,5894.668067593619
0.04,0.1899299258105996,5898.077030151874
0.044,-0.14019225874533864,5897.01008677169
0.048,-0.40801608006470064,5899.216738902737
0.052,-0.556063912154739,5902.014184296841
0.056,-0.5528815721728809,5894.579460280939
0.06,-0.4010640910851837,5892.706290079182
0.064,-0.13645784469307914,5902.053915455962
0.068,0.1811571016320557,5902.829016141557
0.072,0.4824096084807167,5904.588254063764
0.076,0.70321585165458,5904.451972952085
0.08,0.7974034746284867,5905.7584621019
0.084,0.7461744957970676,5906.389785328705
0.088,0.5630923263000454,5898.093900685107
0.092,0.2916681404572638,5897.360079973473
0.096,-0.006370641302730696,5889.482977305056
0.1,-0.2692771030501567,5904.086412755846
0.104,-0.4527402415316084,5903.019122306948
0.108,-0.5399101710603188,5900.5280920312425
0.112,-0.5417316785672395,5897.899902726696
0.116,-0.4893214065607836,5904.071332241543
0.12,-0.4216640724093408,5899.791701008744
0.124,-0.37219161456198807,5896.4046149458445
0.128,-0.35796040825980346,5899.487624050623
0.132,-0.3745709613668305,5898.05628584027
0.136,-0.3981518333738177,5900.906624823518
0.14,-0.39359497156661394,5902.343680628909
0.144,-0.3268447901117325,5901.963475570065
0.148,-0.1781334663877433,5893.854241910924
0.152,0.04799687716002252,5904.854204820076
0.156,0.32045683845200273,5903.133563015503
0.16,0.5896200071443205,5904.320161927144
0.164,0.8031097883103336,5912.162961595522
0.168,0.9222532134710507,5904.033694165549
0.172,0.9317617954461805,5905.875785963856
0.176,0.8396130552356628,5893.5702160943865
0.18,0.6695819568493581,5904.305410482046
0.184,0.45140632071289427,5890.31379277155
0.188,0.21233102180966568,5898.34622820882
0.192,-0.02873560907196051,5891.288637039895
0.196,-0.264111418702701,5894.403857324535
0.2,-0.49626937680359273,5903.37940978311
0.204,-0.7321979724129378,5896.964574470273
0.208,-0.9750492221237103,5901.072374204511
0.212,-1.2169806162168513,5902.1523171905465
0.216,-1.43640885063656,5898.718091545576
0.22,-1.6006444400567967,5897.208518431869
0.224,-1.6734182816749095,5898.450921982259
0.228,-1.6260393267539837,5900.263651303033
0.232,-1.4494289210721294,5902.64401374097
0.236,-1.1625513674863661,5898.305845014401
0.24,-0.8129115331283566,5897.986293321529
0.244,-0.46755533738649635,5903.601359648459
0.248,-0.19662822323454884,5899.252266107903
0.252,-0.05403253096728418,5900.725903773346
0.256,-0.060757058379401124,5901.488240591679
0.26,-0.19611619411232237,5899.0627586446
0.264,-0.4000519216844118,5901.213521281607
0.268,-0.5864869109949856,5895.634691239085
0.272,-0.6649285931485649,5907.386704346914
0.276,-0.5653556117051597,5892.335903756568
0.28,-0.25968843939645153,5893.534276114537
0.284,0.22692364874973484,5892.229184467994
0.288,0.8188775821987826,5901.945810837887
0.292,1.4060069044005574,5904.5018339924045
0.296,1.8677648741447699,5905.497778246003
0.3,2.0997082700565994,5906.488603264957
0.304,2.03683700445799,5903.807682498226
0.308,1.6689062104369263,5899.476458028322
0.312,1.043592654928407,5906.894279272083
0.316,0.25585084879977266,5908.608997752259
0.32,-0.5738587673370487,5902.712266145775
0.324,-1.3257025214930869,5901.097984847211
0.328,-1.9031099238115026,5898.034749094215
0.332,-2.2465219963761753,5900.344016905467
0.336,-2.336902275617633,5903.360682449923
0.34,-2.1909669033511654,5898.830772712695
0.344,-1.8517177709883903,5900.303985767946
0.348,-1.3779765370746517,5898.873219350707
0.352,-0.8355291618919737,5910.97902690833
0.356,-0.29064131816687655,5893.270605593086
0.36,0.1947579044660284,5894.451775232402
0.364,0.5670058530122236,5898.513483279833
0.368,0.7839606399028674,5898.182829767992
0.372,0.8180089023486014,5910.702979073019
0.376,0.6598485672576769,5897.954577503078
0.38,0.3232609013957983,5897.171494911779
0.384,-0.1512418797958132,5895.707984276983
0.388,-0.6976182215195986,5893.393584319181
0.392,-1.2329406626271464,5897.953992129102
0.396,-1.672634455398646,5892.871287650711
0.4,-1.9480721295020287,5901.26802598923
0.404,-2.021055836221159,5898.770711891197
0.408,-1.8910716748894831,5894.100054917351
0.412,-1.5938462001224887,5896.501428881783
0.416,-1.1919853229804878,5895.834012095571
0.42,-0.7598826743705858,5893.488351794144
0.424,-0.36635033651753346,5899.293937925718
0.428,-0.05968908247190985,5894.229968365025
0.432,0.1399336169851895,5902.822668652469
0.436,0.2381579611605485,5902.525344887426
0.44,0.25588985216513793,5907.871891649005
0.444,0.21631632448030652,5904.26624570992
0.448,0.13606877467424067,5900.245188683281
0.452,0.02421205812966801,5904.400205889038
0.456,-0.1119866007760732,5899.725280496066
0.46,-0.2595666183778096,5894.789978370129
0.464,-0.3965902004871374,5897.91628389104
0.468,-0.4957325531873647,5898.865688732228
0.472,-0.5325324086328923,5904.0509442197335
0.476,-0.4937347177692746,5904.551549640234
0.48,-0.38231232222786726,5896.742766137891
0.484,-0.21778968431452597,5902.555645388262
0.488,-0.031615001265586785,5894.836116941472
0.492,0.14142103130706496,5897.89534325715
0.496,0.2726113630818508,5898.935179307817
0.5,0.3454415600881649,5883.180457148047
0.504,0.3561493353646848,5899.019640199634
0.508,0.31011921868332,5896.487094574969
0.512,0.21767555585137607,5902.229912041335
0.516,0.0923158309617342,5904.386519566476
0.52,-0.047780493588497015,5910.920535677297
0.524,-0.17682468617652733,5907.744790439457
0.528,-0.2607995327529715,5898.173672954493
0.532,-0.2621840091300654,5899.645744808182
0.536,-0.14986372353029628,5900.126062454038
0.54,0.08909678487806028,5893.137841848979
0.544,0.44022063730432354,5901.175187794179
0.548,0.8584000988658187,5912.009132399769
0.552,1.2723791443120733,5888.0859576781295
0.556,1.5969524345071706,5894.145558669358
0.56,1.7513433609081486,5903.181172929546
0.5640000000000001,1.6800475546382596,5894.89909281261
0.5680000000000001,1.3701446307282548,5906.187376908387
0.5720000000000001,0.8588543919027085,5891.729987906135
0.5760000000000001,0.22791513618307155,5897.220345106983
0.58,-0.41441330731413994,5901.859953676585
0.584,-0.9591503752657213,5903.485725423115
0.588,-1.3230610914949306,5900.517254932423
0.592,-1.4680382002183636,5899.351712150271
0.596,-1.4077070222006327,5906.88284906108
0.6,-1.1995952157690433,5898.332885631718
0.604,-0.9255756458368466,5893.713955793309
0.608,-0.6668106943490014,5900.451799441472
0.612,-0.4812906129084201,5888.715557002824
0.616,-0.3911273204170634,5893.581798154072
0.62,-0.3825235116749284,5898.672788626107
0.624,-0.41569670650653956,5902.525670980036
0.628,-0.4387376366917149,5901.997945513562
0.632,-0.40048721672858,5894.77600012704
0.636,-0.26118607084158135,5898.845745880485
0.64,-0.0019880888164527186,5899.970461864875
0.644,0.36686592881963415,5895.645634874912
0.648,0.8028255466895131,5900.054726164236
0.652,1.2376027217519359,5901.210768817669
0.656,1.5946544391283464,5893.86376810053
0.66,1.8120260149627532,5907.039825887727
0.664,1.8605901628725514,5893.22797305695
0.668,1.7493810833398986,5899.241090056037
0.672,1.5168364582991685,5899.450568105706
0.676,1.2143951624364302,5902.792913175176
0.68,0.8915791507033698,5905.750927101118
0.684,0.588155447899352,5901.104623854659
0.6880000000000001,0.33288526714142824,5903.546284808709
0.6920000000000001,0.14446753871480006,5905.30169817232
0.6960000000000001,0.030760289670867955,5900.509760584019
0.7000000000000001,-0.013920861811347296,5904.257147593559
0.704,-0.009960689257582062,5904.79343791424
0.708,0.011657960320388672,5904.813036130415
0.712,0.01868674116102901,5910.518297580444
0.716,-0.012035585077943564,5903.382664324457
0.72,-0.08789855587790779,5897.213050172216
0.724,-0.19924406600808034,5900.216974516018
0.728,-0.3224837205634036,5900.606525224074
0.732,-0.42588811262782234,5897.512232855965
0.736,-0.4767251999079764,5903.2914407227545
0.74,-0.4488820574633067,5897.445184971725
0.744,-0.33029078320022137,5896.368464327917
0.748,-0.1289182115001896,5890.171555723716
0.752,0.12518421747236397,5903.779076587415
0.756,0.3846935527760621,5891.766981010291
0.76,0.5976320763341997,5895.515617862448
0.764,0.7248815697473889,5915.211161692352
0.768,0.7561003444410441,5894.758048478
0.772,0.7164187440758696,5904.062968984999
0.776,0.6591960537599219,5906.910040866101
0.78,0.6463718965838007,5901.77898557085
0.784,0.7238803864481778,5910.56846434531
0.788,0.9018594580522851,5901.550305679632
0.792,1.1476446196050454,5903.681401370904
0.796,1.3948811527123717,5900.133329143451
0.8,1.5655252878335761,5890.851041082111
0.804,1.595459080391931,5901.168189001205
0.808,1.4530114527727507,5904.285354502176
0.812,1.1445436517043266,5901.189605930452
0.8160000000000001,0.7086973900041766,5909.501125686193
0.8200000000000001,0.20528017067632992,5900.647176065332
0.8240000000000001,-0.29597496493933795,5901.682389331952
0.8280000000000001,-0.7250354589696653,5898.799818167415
0.8320000000000001,-1.0205661592357074,5908.68762189395
0.836,-1.1394203605008044,5900.479522538381
0.84,-1.0657461782312312,5901.806974979075
0.844,-0.8165606487208613,5906.566709550118
0.848,-0.44023942823119017,5895.420067279961
0.852,-0.006694674288926799,5902.943283693157
0.856,0.4082770014712103,5897.271602482006
0.86,0.7395310871942797,5898.972642800894
0.864,0.9454329628768645,5903.59956246923
0.868,1.014709028398165,5900.519476959275
0.872,0.9667084961727355,5894.4415852986285
0.876,0.8450191927883172,5895.382040898559
0.88,0.7052615295263702,5900.811642628264
0.884,0.6001173645640369,5902.4152128862615
0.888,0.5664665376900043,5903.770405181994
0.892,0.618617136413376,5903.566281393456
0.896,0.74862061379094,5903.326565979702
0.9,0.9322271283140532,5895.016921345753
0.904,1.1383253362807322,5896.89524256164
0.908,1.3395029990604652,5904.7044162104
0.912,1.520624815945816,5902.8060109248445
0.916,1.6820264381016763,5900.824861111048
0.92,1.8355744554597968,5900.404433008867
0.924,1.9951042232685074,5894.576312641996
0.928,2.1655127543733887,5900.803889276203
0.932,2.3352595464340835,5900.336610407793
0.936,2.4751929719080636,5906.854005740326
0.94,2.543913960812977,5889.3281528429725
0.944,2.4978872657881785,5895.7132381604215
0.948,2.3038057361095685,5902.1469721165895
0.952,1.9507194383972555,5902.534625104597
0.956,1.4591696194864294,5903.625101994511
0.96,0.8838752028464946,5891.537589222087
0.964,0.3067525432405435,5902.7854439351295
0.968,-0.1801452754068831,5901.770120402908
0.972,-0.49733047279487763,5894.48642193514
0.976,-0.598162980640833,5892.77692992781
0.98,-0.47933883341863526,5899.955218957079
0.984,-0.17894712019768502,5895.245743566305
0.988,0.23503293905677103,5898.991536497047
0.992,0.68000981217587,5902.335540346895
0.996,1.0727975474439342,5905.468766454487
1.0,1.3403877760406329,5904.350345570938
1.004,1.42827516016363,5902.915141576012
1.008,1.3075234292122462,5911.215510265357
1.012,0.9800588132524267,5900.90623529057
1.016,0.4805549254419926,5904.732746399755
1.02,-0.125995110005689,5904.792903314595
1.024,-0.7511005007589857,5904.11692363663
1.028,-1.2942401408039155,5899.629898201402
1.032,-1.6588927977114103,5896.385730346184
1.036,-1.7712253490386602,5892.378795307003
1.04,-1.5972354546355847,5899.899380925076
1.044,-1.1527357819821304,5888.339531670662
1.048,-0.5013231583611161,5901.0537070734745
1.052,0.26067610687423715,5903.46130176165
1.056,1.0276395727796157,5895.282507290176
1.06,1.7078728706079616,5898.850952066701
1.064,2.2385595545163386,5894.648308172498
1.068,2.589034357675336,5905.284973819579
1.072,2.7547149131929354,5900.954423585007
1.076,2.7473127005069005,5901.882275099693
1.08,2.5865932319289384,5894.803614777809
1.084,2.296596093007068,5901.135517594532
1.088,1.9065924583285294,5893.935685760379
1.092,1.454343071323507,5904.658741720354
1.096,0.9870860720747461,5896.977362600192
1.1,0.556379098638472,5901.853524417352
1.104,0.20701458565704334,5887.924396866577
1.108,-0.03552790245446402,5898.187267784621
1.112,-0.17354072568041173,5896.058830211193
1.116,-0.237532803990443,5900.104161000331
1.12,-0.2770743679059971,5902.804602682104
1.124,-0.34339227496090335,5902.698209549954
1.128,-0.4689711953866412,5902.563154818649
1.132,-0.652341453477242,5904.812812037936
1.136,-0.855278216655018,5902.270966110211
1.14,-1.0146069127079662,5887.884986999411
1.144,-1.0646842480057,5900.565824025576
1.148,-0.9623888095950578,5896.623226530373
1.152,-0.7051861252329562,5898.549865720966
1.156,-0.3348862675026334,5899.128694878488
1.16,0.07489629512030187,5907.72021813809
1.164,0.4426478732158026,5904.12376555836
1.168,0.7042076839930342,5898.056303654022
1.172,0.828998478410245,5903.39254840031
1.176,0.8219702448695329,5895.335092425094
1.18,0.7136890303375395,5901.312585024315
1.184,0.5459701302023728,5889.942714623708
1.188,0.3597467807230737,5904.526882239062
1.192,0.1876999523651357,5900.848355954682
1.196,0.05077724979000749,5891.532407870557
1.2,-0.04296577792607666,5899.823116417905
1.204,-0.09768774874524794,5901.819681757546
1.208,-0.12672784768903683,5896.427726937889
1.212,-0.14703094263881947,5898.643666922867
1.216,-0.17255865160658182,5895.276274345903
1.22,-0.20984586584433146,5891.841387236797
1.224,-0.25830851041771735,5897.692675249579
1.228,-0.31473302411174126,5897.075611842105
1.232,-0.3780291178865356,5906.320430168834
1.236,-0.44989451559977783,5905.297222560702
1.24,-0.5300244298261653,5897.421314835778
1.244,-0.6086193910580636,5904.817488898826
1.248,-0.6615133365929061,5899.326505825994
1.252,-0.6528206701151011,5905.060861357966
1.256,-0.5464797092709202,5898.562071052012
1.26,-0.32282354465629015,5903.36875497059
1.264,0.007573257013079964,5893.827532032047
1.268,0.4000262750342712,5894.401414543992
1.272,0.7842920618322443,5902.468642757412
1.276,1.0822013142105722,5901.064754599524
1.28,1.2277861071160894,5901.936302323191
1.284,1.1836442327012882,5896.012892375898
1.288,0.9499728177249408,5898.048731029229
1.292,0.565612631555285,5899.758620765433
1.296,0.10183645136397913,5891.485314082094
1.3,-0.35054150060652095,5906.011613063758
1.304,-0.6999814967626609,5900.63221140486
1.308,-0.8760778496603796,5901.546498778735
1.312,-0.8485116241857695,5906.681989792909
1.316,-0.6360035467003314,5897.663653999374
1.32,-0.3008555242300651,5905.281915113944
1.324,0.06960626179301228,5906.706221304294
1.328,0.38786229957514096,5902.867876638934
1.332,0.5885412913374015,5901.968807786487
1.336,0.6415628302731498,5901.508275641779
1.34,0.5533913118570091,5900.503639661674
1.344,0.35806033765496625,5907.4842402704735
1.348,0.10311333677847319,5898.3053103133125
1.352,-0.16346378704847328,5906.026978220187
1.356,-0.4014820199808647,5902.334161814207
1.36,-0.5818091832943907,5900.292513720206
1.364,-0.686963957514295,5895.706414059186
1.368,-0.7112712981643136,5897.104289445528
1.372,-0.6611390593578349,5906.291770220835
1.376,-0.5546355148033394,5908.657486431209
1.38,-0.41925064385451116,5903.184924376239
1.384,-0.28729943482268877,5898.417539621662
1.388,-0.18945577122525523,5902.708522252887
1.392,-0.14769997758520167,5897.72556022733
1.396,-0.1691266681388516,5897.141660364683
1.4,-0.2422069643235818,5900.711498806726
1.404,-0.33755273829634336,5900.226339560837
1.408,-0.4147530621275704,5906.540744583733
1.412,-0.43425720102804133,5905.154541215942
1.416,-0.3698494985746819,5910.0517921535165
1.42,-0.21618961997051675,5900.557031209708
1.424,0.011374203102471352,5896.031379963547
1.428,0.2833259478712328,5899.428965243336
1.432,0.5650313511410529,5905.683289701255
1.436,0.8244655268872355,5902.881733643295
1.44,1.0361515710395544,5906.24845906574
1.444,1.1812749672775464,5899.802857986969
1.448,1.246572935831978,5901.961482581954
1.452,1.2253954113270809,5897.80892194634
1.456,1.12209841034434,5901.439560583626
1.46,0.9570932801323911,5902.415863267627
1.464,0.767602968949675,5895.653169965677
1.468,0.6007073049533619,5903.381542128474
1.472,0.4999488670542524,5904.054955714329
1.476,0.49140062701933185,5901.818826280636
1.48,0.5760787965458721,5895.034575310089
1.484,0.7319086963557,5909.238379245951
1.488,0.9229933599495197,5902.764853646839
1.492,1.1108769845650124,5904.634596746486
1.496,1.2633146500350552,5905.87980421942
1.5,1.3588329142673963,5911.101494446383
1.504,1.387478096180744,5901.962253392776
1.508,1.348762975089252,5891.744371567656
1.512,1.247923355199648,5894.437077928595
1.516,1.0921217641345762,5899.588456038603
1.52,0.8886364521021578,5899.374496075464
1.524,0.6462165728144607,5902.443463101544
1.528,0.37878139078214673,5902.4369192666045
1.532,0.10880827058061192,5903.324861459597
1.536,-0.1327459263799999,5905.2402876035285
1.54,-0.31172698787902303,5903.555192331006
1.544,-0.3998428079014181,5908.590735995424
1.548,-0.38302868212684604,5902.210809025054
1.552,-0.2645219483675918,5906.5217500606095
1.556,-0.06146378850448948,5900.577673026165
1.56,0.20191320918526265,5898.155503008687
1.564,0.4997180247985089,5908.981839916018
1.568,0.8055488168890839,5901.399863983796
1.572,1.0904069576493516,5903.536631805441
1.576,1.3214407384616047,5898.4926738202175
1.58,1.4652406719290552,5888.289235181269
1.584,1.4958294275298907,5897.674108597341
1.588,1.4035021148732305,5905.851626108867
1.592,1.199565159115481,5899.97092049557
1.596,0.9144841035932916,5897.380681432882
1.6,0.5906222109599207,5891.709557042418
1.604,0.2728468174071838,5895.769162563293
1.608,-5.850862903943242e-05,5903.144021491234
1.612,-0.20177349502867373,5897.43703197628
1.616,-0.32210594197368825,5892.941504859955
1.62,-0.3672707813198724,5896.119850637403
1.624,-0.35618497596838955,5900.185632562915
1.628,-0.313468938490875,5898.656532378561
1.632,-0.2615974512008506,5902.972291521475
1.636,-0.2153681725501475,5905.894121526359
1.64,-0.18089880211239304,5904.019928023804
1.644,-0.1592069875006989,5907.220516468663
1.648,-0.15202821042514975,5915.423270300269
1.652,-0.16594269725432967,5894.368027304584
1.656,-0.2113167157394302,5897.749439663904
1.66,-0.29564170337125706,5895.26535854199
1.664,-0.41516426928880595,5901.815073105231
1.668,-0.5509249041603691,5898.796424687096
1.672,-0.6731310715640909,5904.817410397316
1.676,-0.7524790046601051,5902.939510192442
1.68,-0.7724233181006506,5899.249336200475
1.684,-0.7355609210545067,5895.503001132836
1.688,-0.6608019840414585,5903.295663187239
1.692,-0.5735880906976362,5902.221270446717
1.696,-0.49516346082009355,5896.438598252176
1.7,-0.4363306455604131,5885.688976387537
1.704,-0.39727550701153497,5900.720734030592
1.708,-0.3712426185706123,5901.426787512657
1.712,-0.3488649027430295,5901.256624485233
1.716,-0.32177491667161556,5896.688689131654
1.72,-0.2859825742915004,5899.041139654252
1.724,-0.24502600057940183,5897.141335915936
1.728,-0.21099211649473593,5899.761181288509
1.732,-0.20120778451588264,5903.4110860864685
1.736,-0.2309776250451287,5906.766718990696
1.74,-0.3059125719487962,5901.597482039826
1.744,-0.41809193169069236,5899.037732107206
1.748,-0.5480836283138573,5902.698528050716
1.752,-0.6717989478765237,5901.41565763471
1.756,-0.7693342892342401,5899.178887179384
1.76,-0.8325979597805286,5892.475035808392
1.764,-0.8688676821857124,5898.043856680245
1.768,-0.8985112469113223,5909.976595971117
1.772,-0.9473815754542172,5906.974650168771
1.776,-1.0369616352218518,5897.648975521831
1.78,-1.1763560127450303,5899.025579269827
1.784,-1.3590752081020816,5901.944945102514
1.788,-1.5652057897568639,5898.5965599777
1.792,-1.7672380982786935,5895.037234118482
1.796,-1.9364723419628023,5901.342250966772
1.8,-2.047249387668512,5903.350663279506
1.804,-2.078162736937971,5894.868587062616
1.808,-2.0118361286557174,5894.709721286721
1.812,-1.8361535141649659,5899.292188239686
1.816,-1.5485034918112,5897.606340997875
1.82,-1.1612322888951685,5896.980599305779
