时间(s),电压(V),幅值(高频80K)
0.0,3.331872920673105,5896.902265672022
0.004,2.565594157098476,5911.763527316312
0.008,1.882623028768416,5889.136162180569
0.012,1.3550099818412074,5897.191206652872
0.016,1.025070973061317,5904.734546541369
0.02,0.8968660422486043,5901.455285808761
0.024,0.9366541080337529,5900.944252392065
0.028,1.0834829680206528,5900.453568343227
0.032,1.2666115633571433,5893.098183702863
0.036,1.4237864057616592,5894.991157598913
0.04,1.51499962893904,5901.265686875666
0.044,1.5285049082762507,5893.615494508315
0.048,1.4777637829891501,5907.802421066295
0.052,1.390148538331489,5907.0530983068165
0.056,1.2914710151645308,5891.800202916179
0.06,1.1931472906673888,5904.267112013666
0.064,1.0881211821813714,5896.70353646933
0.068,0.9569236656394066,5899.851909742368
0.072,0.7795445960199718,5909.7388756463015
0.076,0.5463410142293837,5893.934379475513
0.08,0.2633689398604268,5898.716158499027
0.084,-0.04832717797004607,5903.139042363121
0.088,-0.3575971369477729,5898.016595061432
0.092,-0.6306730102128275,5898.280711868553
0.096,-0.8399267872120254,5906.371062783316
0.1,-0.9709815467737112,5911.784534508297
0.104,-1.024308423299098,5903.349682268185
0.108,-1.0101015221867575,5901.970428906939
0.112,-0.9400628459495182,5896.165714721632
0.116,-0.8220960953997705,5901.081526380353
0.12,-0.6612484302320727,5903.723348309487
0.124,-0.46493319202738387,5898.288534818358
0.128,-0.24727954709631836,5895.004895409141
0.132,-0.02866822916004939,5899.001367574865
0.136,0.16960122341960163,5899.351670257634
0.14,0.33213548156574285,5907.638334316066
0.144,0.45348658137184333,5894.195728829805
0.148,0.5370550168051199,5899.14357420724
0.152,0.5898030744797744,5902.885389726715
0.156,0.6163516505924489,5902.683622645446
0.16,0.6166061253406904,5903.366355691888
0.164,0.5888573848728319,5903.060882802944
0.168,0.5362480608453515,5897.494428418728
0.172,0.47179818096472725,5911.920809687769
0.176,0.4182061478426233,5898.507563903386
0.18,0.40210750262487666,5907.730058067988
0.184,0.44561306048358745,5897.333669998028
0.188,0.5591741512740958,5902.724823489509
0.192,0.7387956357167861,5896.577961247686
0.196,0.9680286155529132,5906.464295754807
0.2,1.222549633415642,5895.891827949489
0.204,1.4739552713082988,5907.302308824839
0.208,1.6906361180448175,5907.315873942567
0.212,1.83702005407316,5898.137503649809
0.216,1.8756136859257933,5909.821702393268
0.22,1.7756845906676002,5896.2768334753255
0.224,1.5275057821953522,5901.091564021166
0.228,1.1555249899421633,5906.482858013287
0.232,0.7221553282753359,5902.346579757034
0.236,0.3173406650969521,5901.114308719784
0.24,0.035494007302787164,5896.68151608414
0.244,-0.05248599374121015,5895.46651702532
0.248,0.07822432360304078,5893.207589202014
0.252,0.397318695172179,5899.993891847676
0.256,0.8262691999659056,5889.503748122164
0.26,1.2579628708656472,5897.45574603105
0.264,1.5825400245671697,5901.985424163781
0.268,1.7125707354649458,5900.313872072426
0.272,1.602426667626032,5892.963099899933
0.276,1.258907848785336,5897.086443937437
0.28,0.7416982018701666,5901.454099470554
0.284,0.15320570142253906,5910.028464316903
0.288,-0.38123911345230543,5893.415318339429
0.292,-0.739594032406857,5896.403155584861
0.296,-0.8301672298494475,5902.425856711309
0.3,-0.6130474272049167,5904.776961583831
0.304,-0.11080233852136029,5905.295195563189
0.308,0.5937515505995831,5905.802428800073
0.312,1.372272075707764,5899.465577025091
0.316,2.075864503767517,5903.828249440934
0.32,2.5659008487376407,5903.26772539399
0.324,2.743533104821034,5897.129512464162
0.328,2.5698022095416264,5901.125009734183
0.332,2.071112988912874,5911.816176320781
0.336,1.329986289346824,5903.411114914803
0.34,0.4652611278563543,5902.205554975679
0.344,-0.39214736828796004,5897.839541761254
0.348,-1.1221413210981244,5896.987394221889
0.352,-1.633281395478513,5906.966365877062
0.356,-1.8743606931535872,5903.798214361488
0.36,-1.8394769528843167,5905.812373070279
0.364,-1.5658693086699715,5901.172846328484
0.368,-1.1241515088087024,5896.554942740428
0.372,-0.602905008490198,5901.697497079151
0.376,-0.09174950148728535,5895.570826454673
0.38,0.3331518652623393,5909.13490154888
0.384,0.6187649005885609,5905.594161510935
0.388,0.7388303890862874,5899.327283987989
0.392,0.691414473147094,5895.247386747275
0.396,0.4925070535501702,5904.992994571677
0.4,0.17003852438156816,5908.92292881875
0.404,-0.23790870220403051,5897.650579671377
0.408,-0.681292084301707,5897.773520333978
0.412,-1.0981275063298728,5903.583008805179
0.416,-1.421982820343163,5893.085342379235
0.42,-1.597047641422581,5897.735127258924
0.424,-1.5941087117634951,5893.898823142744
0.428,-1.4185756580518738,5890.775997090008
0.432,-1.1057935619628052,5900.720534985291
0.436,-0.7060158692109587,5899.328463175896
0.44,-0.26691870902117076,5908.672486734036
0.444,0.17738821636722535,5902.568471826715
0.448,0.6058448666439171,5894.250245753308
0.452,1.0008908295284908,5903.447768504528
0.456,1.3388216344503583,5900.130132131518
0.46,1.5889285969706186,5903.045203469358
0.464,1.7231405929559593,5902.496578647351
0.468,1.7297953462886642,5897.079351989096
0.472,1.6228159514378415,5901.081969875844
0.476,1.4415576635310454,5902.175906402738
0.48,1.2422073147734922,5901.988476560107
0.484,1.0844395885507094,5895.39098727182
0.488,1.016552623909294,5903.427842346969
0.492,1.0611228593055462,5901.293032386153
0.496,1.2037045798053658,5899.889686789945
0.5,1.3888162269236708,5898.070254726587
0.504,1.5278237057798305,5899.321381892862
0.508,1.5203016215563612,5904.405918637702
0.512,1.2844161164512429,5898.912671620071
0.516,0.7861732305093706,5893.833248273858
0.52,0.056392016141578426,5904.498913225194
0.524,-0.8109877655833474,5898.323539168732
0.528,-1.678774979264666,5901.104249056544
0.532,-2.3988756174975214,5895.982082193204
0.536,-2.848561124101713,5894.603653324648
0.54,-2.961011913148641,5896.133301844509
0.544,-2.741561808881145,5899.832952631238
0.548,-2.2648575113573135,5909.688960647112
0.552,-1.6538730996074777,5897.475896407022
0.556,-1.0472534770301751,5905.686768759116
0.56,-0.5647399335296339,5904.516795949899
0.5640000000000001,-0.28052185729566514,5900.127169023556
0.5680000000000001,-0.21134939518207277,5898.910092256789
0.5720000000000001,-0.3211732297103304,5899.360090485601
0.5760000000000001,-0.5388191850475025,5904.113526758809
0.58,-0.7815332019858402,5902.948573557983
0.584,-0.976299878806958,5892.650274961909
0.588,-1.0731388337259438,5896.580635049738
0.592,-1.0492000084823911,5902.2511307926
0.596,-0.9067093717620807,5900.673590408049
0.6,-0.6688275325411649,5899.592597233544
0.604,-0.37501257548831246,5900.660336347171
0.608,-0.07455474000645747,5899.43648919213
0.612,0.18308147917868184,5903.283669129907
0.616,0.35961917190835807,5902.78301984212
0.62,0.436938123988636,5901.756727662603
0.624,0.4197650263107877,5910.513232035041
0.628,0.3307911190084976,5901.773369756373
0.632,0.1999603478951355,5900.576934720393
0.636,0.052151349094405504,5902.878715668122
0.64,-0.1012842611923419,5899.044491365998
0.644,-0.2629516105536423,5903.163401169367
0.648,-0.4414458705865613,5901.56304689294
0.652,-0.6389966312907694,5902.178902446378
0.656,-0.8416323995136347,5905.078738819076
0.66,-1.0185693783458676,5897.170647525669
0.664,-1.1330385680083546,5906.134688628503
0.668,-1.15954477523576,5904.640303146919
0.672,-1.0975387647409518,5906.950232169966
0.676,-0.9729895000791566,5901.40403765647
0.68,-0.8266049874371375,5899.4924054237
0.684,-0.6951384916624155,5902.670511397387
0.6880000000000001,-0.5953947713494839,5906.506635225014
0.6920000000000001,-0.5183511116869888,5897.012369953171
0.6960000000000001,-0.43549380024507484,5909.416604194055
0.7000000000000001,-0.3140175562430696,5900.283021410379
0.704,-0.13428779600105223,5901.182964548954
0.708,0.09749487865055646,5898.763441935901
0.712,0.34692697042169607,5896.370687888381
0.716,0.5613137517224004,5894.884751735841
0.72,0.6884492410907272,5909.655549805832
0.724,0.6961426866883453,5908.411497733464
0.728,0.5837071984920046,5905.053552742323
0.732,0.3804477282331387,5901.721751319413
0.736,0.1322367461139972,5908.360526004101
0.74,-0.11714296351243016,5912.579042527522
0.744,-0.3407343970093566,5891.728157241406
0.748,-0.5325506921263397,5891.53291623971
0.752,-0.7006364823923799,5906.948354010011
0.756,-0.8541917700523176,5900.194831303478
0.76,-0.9917836261837538,5896.736259686509
0.764,-1.0960976643190614,5905.143505787737
0.768,-1.1373506319630895,5898.152131066984
0.772,-1.0836088830460568,5896.932486697481
0.776,-0.9133948758166243,5902.888172835865
0.78,-0.6256329805217195,5906.286771898327
0.784,-0.2438451546243297,5902.14316047456
0.788,0.1862632413706623,5899.767418368001
0.792,0.6053262942041884,5901.056075655306
0.796,0.9536863610919611,5903.791704259101
0.8,1.1871269521524477,5900.544279911352
0.804,1.2905263122129105,5905.250867017955
0.808,1.2837898855875531,5903.778632037303
0.812,1.2161172698011546,5896.9338123407
0.8160000000000001,1.1494239270506088,5906.450219200712
0.8200000000000001,1.1368826208191904,5891.310766007387
0.8240000000000001,1.204699200575319,5906.85556420302
0.8280000000000001,1.3433028760721926,5904.534815875103
0.8320000000000001,1.5098810320489122,5899.734168591393
0.836,1.6403002430854812,5907.847974137472
0.84,1.6665547781280117,5903.6831531184325
0.844,1.535677663489564,5907.864544433826
0.848,1.2259680859369213,5902.622551680278
0.852,0.7560666740616464,5898.341498049552
0.856,0.18356852213985,5901.0258930812215
0.86,-0.40674365578680255,5906.331298494935
0.864,-0.9213997318608667,5901.642200807298
0.868,-1.2781882083514493,5897.192539600567
0.872,-1.4225486578393463,5899.5949434955255
0.876,-1.3370775212004355,5897.632297699978
0.88,-1.0434435647513567,5903.866686109481
0.884,-0.5981382084817715,5908.441048949917
0.888,-0.08366189943757778,5903.144567735583
0.892,0.40421000219526027,5904.083039645288
0.896,0.7724585326545647,5900.332287363444
0.9,0.948093071265073,5896.511185013956
0.904,0.893014283311184,5901.119576834122
0.908,0.6124061625022814,5902.733764013381
0.912,0.1539129973037024,5894.832837905846
0.916,-0.4023646266646812,5906.560417368143
0.92,-0.9601845955785236,5899.178269229444
0.924,-1.4257311231721126,5905.163998948919
0.928,-1.7247651618103226,5892.125251687447
0.932,-1.8150746335104622,5904.046914909424
0.936,-1.6911910804501114,5897.298499068961
0.94,-1.380092264539326,5893.622632547724
0.944,-0.9300243284520465,5897.690385935235
0.948,-0.39724491729488315,5908.408291199108
0.952,0.16459649048816932,5907.375881125284
0.956,0.7100437687633788,5905.133229805646
0.96,1.2026263636338699,5909.751986825813
0.964,1.6127029863067768,5898.361783175998
0.968,1.9146794117567618,5906.757413481266
0.972,2.0857827850187216,5899.546550105981
0.976,2.107906206941355,5900.715102087273
0.98,1.9725590056142526,5890.297380792808
0.984,1.686953267781199,5890.970212621923
0.988,1.2778767195175835,5900.891492405434
0.992,0.7903795197904597,5906.807050392626
0.996,0.28044271373448204,5912.04346663879
1.0,-0.19650416934000697,5906.349983563811
1.004,-0.5974578656966414,5911.004656177181
1.008,-0.8999694207348765,5892.039815742387
1.012,-1.1036124555732183,5893.576162326343
1.016,-1.2243584419146076,5898.670985840904
1.02,-1.2842390768079799,5898.6314628894725
1.024,-1.3004913156324631,5911.227753658684
1.028,-1.2782657417171548,5895.148154637716
1.032,-1.2093006628993825,5897.291512357524
1.036,-1.07695354323891,5904.449596663003
1.04,-0.8661632999857007,5908.323021331532
1.044,-0.5750359625387743,5900.218920052139
1.048,-0.22341879514135654,5898.032284771827
1.052,0.14548794394203177,5904.542399716029
1.056,0.471765863147561,5892.283427286325
1.06,0.6923029323974732,5902.985233691736
1.064,0.7583055031854036,5909.066744655694
1.068,0.6523119604204938,5897.76373415147
1.072,0.39852508797671166,5899.175160368941
1.076,0.06099462555667869,5894.847041687844
1.08,-0.27147386809796037,5903.50043195677
1.084,-0.5093285981407457,5900.5963918713815
1.088,-0.5874819879390358,5901.06760809735
1.092,-0.4837760532419188,5894.557381067051
1.096,-0.22475784353493064,5897.660170415642
1.1,0.12381445041631652,5898.194833541699
1.104,0.4794429907216475,5894.203664429751
1.108,0.770315694092696,5907.729535544139
1.112,0.956289147732213,5899.951258916316
1.116,1.0344775161576054,5901.526401319582
1.12,1.0283923028619129,5900.630015743036
1.124,0.9682713878103767,5897.939588046754
1.128,0.8742281758212674,5898.407363846606
1.132,0.7507290341051408,5904.000457164213
1.136,0.5930590683864647,5899.670025290116
1.14,0.39933068962182977,5902.740410114929
1.144,0.1795779425322905,5898.689719967698
1.148,-0.04314668386352942,5904.019835267707
1.152,-0.23909179533526007,5904.60138115648
1.156,-0.3808462083957811,5897.022967859531
1.16,-0.45010017749374576,5900.819315124601
1.164,-0.44016729222371787,5901.541029950456
1.168,-0.3558702668359597,5911.968569412541
1.172,-0.21345304140653779,5894.225529988589
1.176,-0.04114424629197911,5911.594866390926
1.18,0.12163400609166082,5897.78040804165
1.184,0.22885744067079622,5902.587808660981
1.188,0.23696986849599774,5904.535013751516
1.192,0.11693404042834253,5905.6813635195385
1.196,-0.13396003015669114,5893.382463954496
1.2,-0.4848891609701571,5900.640307235286
1.204,-0.873003782834149,5907.714407035069
1.208,-1.2153864695157113,5902.328602729602
1.212,-1.429248900838233,5909.56270227772
1.216,-1.4545020469174743,5905.781361462819
1.22,-1.2716165360830916,5902.408269850757
1.224,-0.909291202876635,5901.85173467098
1.228,-0.4393323823727351,5899.977864404751
1.232,0.040729638744524246,5904.088372869833
1.236,0.43332786225182224,5902.019499229437
1.24,0.6678796364696546,5905.996590766965
1.244,0.7211371586450794,5905.071129968659
1.248,0.6242658395623002,5899.427954632695
1.252,0.4533104601049625,5896.595057634899
1.256,0.3045764474610537,5903.604812975954
1.26,0.2621812273802775,5902.456184442482
1.264,0.3689882246844653,5896.646813480482
1.268,0.6116132926132504,5900.367037109191
1.272,0.925170377940066,5903.749588988699
1.276,1.2161842936105807,5907.886768585144
1.28,1.3952207676966717,5893.107649331365
1.284,1.4066227187540015,5909.60056945912
1.288,1.2435878644235197,5901.952297752176
1.292,0.9434353142865674,5900.728032453109
1.296,0.5672702317673028,5900.172152646814
1.3,0.17470987635279026,5905.501483377375
1.304,-0.19540179935548052,5900.962206887253
1.308,-0.5317213868366846,5907.263587714049
1.312,-0.8437429601893541,5899.152795759373
1.316,-1.1462942057108185,5900.07351611725
1.32,-1.4435322605379615,5898.827680007849
1.324,-1.7207508589041627,5910.630477499826
1.328,-1.9474411636473556,5904.71059429922
1.332,-2.088445512913297,5895.980186935881
1.336,-2.1167054581246636,5902.9097430159445
1.34,-2.022430290348543,5905.097136440015
1.344,-1.8164884352635597,5899.832033923103
1.348,-1.5277959116842945,5906.894535864803
1.352,-1.1958043461804062,5903.57482766544
1.356,-0.860603544407969,5897.716347580847
1.36,-0.5537675935280213,5902.271981087702
1.364,-0.2924171154868001,5911.886592650376
1.368,-0.07795874216121884,5895.930162538386
1.372,0.10008504754764798,5898.287845925272
1.376,0.2563634545338032,5904.086957052859
1.38,0.40109009255465233,5905.103790177865
1.384,0.5341860899977409,5904.929437313207
1.388,0.6447359660456365,5900.448213830942
1.392,0.7158616338879543,5894.659349635962
1.396,0.7323740588731178,5899.277591318949
1.4,0.6872790539863508,5899.657696784104
1.404,0.5844182887987669,5903.7536486751205
1.408,0.4370265027452188,5905.925662395444
1.412,0.2638220750762074,5893.44023772515
1.416,0.08475495157242136,5908.960805863274
1.42,-0.08198921866154263,5903.260599101653
1.424,-0.2210973604998854,5900.007513731329
1.428,-0.3195191193915197,5910.391388522137
1.432,-0.36513503803326636,5902.2810513265085
1.436,-0.346861697500628,5905.195771155974
1.44,-0.25852409387523845,5902.318711282548
1.444,-0.10636336237977015,5908.398357320491
1.448,0.08382734321128316,5899.369539179219
1.452,0.26567524543122256,5910.41773838817
1.456,0.38071353965973737,5894.758372343714
1.46,0.37499180854365105,5900.515613795988
1.464,0.21819207782826464,5910.781537982968
1.468,-0.08208374658868367,5899.2613235528925
1.472,-0.4769559641062635,5904.078008836309
1.476,-0.8862967391696568,5898.156114425564
1.48,-1.21976385163591,5896.844021725579
1.484,-1.4022197429978218,5904.476900754282
1.488,-1.3951075906435693,5896.531096878451
1.492,-1.2067309113408464,5905.882330767256
1.496,-0.8883724885774136,5904.621777087912
1.5,-0.5183203034550653,5902.055536664261
1.504,-0.18002919433289158,5903.467881158283
1.508,0.05795158799504157,5897.375297739037
1.512,0.15432134335754352,5904.447419903707
1.516,0.09749306127630616,5891.50121810434
1.52,-0.0995938774855662,5901.188360612263
1.524,-0.4073519782023576,5905.347519129607
1.528,-0.785767672120614,5903.242763557607
1.532,-1.1879297577960577,5896.710528123312
1.536,-1.5629003318707388,5905.080751141666
1.54,-1.8604177076429698,5901.48072777857
1.544,-2.0380820499707673,5895.982785493025
1.548,-2.069505116517163,5906.403720913987
1.552,-1.9507833154774024,5899.9134927758005
1.556,-1.702702646816463,5899.105579360299
1.56,-1.3669573021078323,5898.598891265947
1.564,-0.9962793846677087,5895.199884436513
1.568,-0.6406072684784395,5907.580581556538
1.572,-0.3335252552279327,5904.896405085378
1.576,-0.08408265096163692,5900.135444644946
1.58,0.12216981632240656,5900.158138874194
1.584,0.31258106424495263,5900.287633116678
1.588,0.5112158401921922,5903.049831010502
1.592,0.7239331742451549,5905.847619879541
1.596,0.9313149443903224,5891.967396435442
1.6,1.0926230615582886,5901.078196520631
1.604,1.1592211183407826,5899.341696644052
1.608,1.0922349506417686,5903.469803161538
1.612,0.8780086350606873,5899.392885656104
1.616,0.536338131201845,5907.855593660907
1.62,0.11955296957040591,5901.732909375829
1.624,-0.29690915531327944,5911.602014863618
1.628,-0.6306162750476098,5907.325147381733
1.632,-0.8117354726996515,5898.471653369526
1.636,-0.800795303903854,5901.574516101081
1.64,-0.5988926068041324,5904.239318796267
1.644,-0.24721665479818938,5895.698183020296
1.648,0.18355300089076604,5900.020107437529
1.652,0.6106573747705366,5912.608503287855
1.656,0.958485160742687,5907.167403047653
1.66,1.174159321987361,5904.500195670069
1.664,1.235392647891781,5906.702983445873
1.668,1.1493512721483643,5902.684157777385
1.672,0.9442762877627757,5904.25437061215
1.676,0.6578146146456787,5899.894004403498
1.68,0.3267074377764929,5896.263618399679
1.684,-0.0188699070150431,5900.542641583988
1.688,-0.3557897679133969,5903.879784432344
1.692,-0.6650665569797406,5896.4739476864925
1.696,-0.9282006659269203,5902.849412709456
1.7,-1.125243204895321,5901.7965118675775
1.704,-1.236147874147651,5904.463316815951
1.708,-1.2453290490115347,5905.945030813788
1.712,-1.1478062455800677,5895.676961091923
1.716,-0.9545849230637984,5902.372469268153
1.72,-0.6947113973788823,5902.026951896584
1.724,-0.41186728121305904,5902.25898194115
1.728,-0.15505408451192415,5904.821189475403
1.732,0.03455540756272287,5902.667852564015
1.736,0.13639701679190253,5892.972470785424
1.74,0.1579716571451331,5897.995085225382
1.744,0.13328347681259184,5911.065115364692
1.748,0.11195869581130685,5904.287992590088
1.752,0.14288456400520697,5906.944862849136
1.756,0.2585302090820618,5908.9440377611245
1.76,0.4654156444376598,5905.417740421674
1.764,0.7434836424892648,5910.323350097125
1.768,1.0535435464596936,5901.847885797783
1.772,1.3486156001985417,5899.786483795797
1.776,1.5841051733738245,5905.098545275617
1.78,1.7242077134397042,5895.15971553519
1.784,1.7452501602047255,5908.4506550889855
1.788,1.6377251765838867,5906.818730072462
1.792,1.4075837971408502,5897.698272222788
1.796,1.076112744226013,5896.300094005771
1.8,0.6777757787501187,5905.855943601113
1.804,0.25632573893949334,5901.213006450221
1.808,-0.14000738649635863,5896.169673324159
1.812,-0.46422257271586426,5905.532082422963
1.816,-0.678038151839318,5905.098411715849
1.82,-0.7608588921682652,5903.297207674732
1.824,-0.7168344408042883,5898.465901127619
