时间(s),电压(V),幅值(高频80K)
0.0,0.18428232141790513,5893.186045863793
0.004,0.4056338895189958,5895.992132856182
0.008,0.6040052070882304,5897.809072808487
0.012,0.7633767890239465,5905.106722329125
0.016,0.8837777532065267,5910.430677805272
0.02,0.9799366823487183,5902.774152550501
0.024,1.0728533111298737,5902.671313598726
0.028,1.1767786057377991,5901.899138638527
0.032,1.2865460117536411,5904.034825446046
0.036,1.3718524710798847,5897.941840263401
0.04,1.3837027096689518,5900.119526716585
0.044,1.2726893354142768,5903.098605783495
0.048,1.0116123651620976,5893.446113476408
0.052,0.6113828525983266,5897.359438819883
0.056,0.1223422587274495,5902.576303160681
0.06,-0.37933303316680034,5893.993656514388
0.064,-0.8139096669050261,5901.211265659253
0.068,-1.120385547201781,5890.753159393019
0.072,-1.2713860180790595,5895.827563928963
0.076,-1.276543457867519,5907.646492790615
0.08,-1.1743689190125681,5901.722422035378
0.084,-1.016711061277139,5891.798154577318
0.088,-0.852397008363968,5896.894101822801
0.092,-0.7160460955917551,5897.544116831659
0.096,-0.6246054448640718,5897.95248204724
0.1,-0.5801341883675764,5906.213653188889
0.104,-0.5752266924134513,5902.285025420106
0.108,-0.5980632810558008,5913.395507963664
0.112,-0.6361812054290239,5897.58740844853
0.116,-0.6795372410769737,5898.157650403187
0.12,-0.7231671637258327,5904.766375738971
0.124,-0.7685702289391625,5900.9185612241145
0.128,-0.8225843999631423,5913.606298668674
0.132,-0.8934610945162181,5894.655900797796
0.136,-0.984951032502333,5897.979806945225
0.14,-1.0897964729640708,5894.904992713076
0.144,-1.1848137366121387,5887.070622676191
0.148,-1.2307669080194459,5903.692297187436
0.152,-1.1797115546376151,5892.599141357608
0.156,-0.9892166902234227,5902.301368112819
0.16,-0.6383867114135754,5899.658463595516
0.164,-0.13831908231045809,5899.349305876593
0.168,0.46805789235500384,5889.937911459508
0.172,1.1161674804570252,5897.459042683584
0.176,1.7345942942704506,5902.8701322516645
0.18,2.2583667889102035,5901.0627148269405
0.184,2.6372590345212052,5895.171703645179
0.188,2.8388466945150648,5897.131500195666
0.192,2.8477257153848385,5903.36961796875
0.196,2.663026073639627,5903.188504733047
0.2,2.2968974210900375,5900.351537869512
0.204,1.775639146259231,5902.685400096077
0.208,1.1417837694783946,5907.947599058779
0.212,0.4527687483265493,5909.466323962306
0.216,-0.22641446186265363,5893.037282945076
0.22,-0.8342200257591631,5895.342021005374
0.224,-1.3219044894184495,5899.51622307983
0.228,-1.6579469367013735,5893.4806821395305
0.232,-1.8282871333879347,5898.557400273512
0.236,-1.8348491400423044,5899.133840632649
0.24,-1.6936033351759667,5900.253090500941
0.244,-1.4319421069905751,5903.001319244088
0.248,-1.08512738597414,5898.113858152073
0.252,-0.6922078077711463,5897.705894226836
0.256,-0.29195685277522104,5900.100126072629
0.26,0.08073285867838048,5894.988251817558
0.264,0.39771738091762965,5905.747906941587
0.268,0.6400979843376684,5888.323527556283
0.272,0.80110849248207,5895.133721936038
0.276,0.8887629952013002,5900.619031026693
0.28,0.9254808584355219,5892.709702514393
0.284,0.9421721206257809,5901.6525597340415
0.288,0.9676545049756529,5904.602214122286
0.292,1.0176439130477486,5902.684009894774
0.296,1.0880516188992764,5893.864119345922
0.3,1.1554724416549158,5904.972464120598
0.304,1.1853042446932966,5898.06017131288
0.308,1.1451575162157988,5905.912117023912
0.312,1.018561320673433,5905.681068155746
0.316,0.8136838008467113,5894.784189173224
0.32,0.5646465886344297,5895.063273575956
0.324,0.32602988466417465,5898.487443350921
0.328,0.1616312393065292,5896.642595805446
0.332,0.12821073512286896,5889.951527355291
0.336,0.25691348636524314,5902.714895557448
0.34,0.5384968552970887,5903.096552387521
0.344,0.9196585359744445,5897.363079283171
0.348,1.3144355753504366,5902.736747024463
0.352,1.628065704677541,5902.767921923811
0.356,1.7847983227362807,5898.182401113342
0.36,1.7496782991996025,5895.716032248724
0.364,1.5375839876994641,5895.947968498816
0.368,1.2079177021340326,5898.524379650959
0.372,0.8476698437797368,5893.108466804585
0.376,0.5483179475775912,5899.323824044397
0.38,0.38323626288075,5895.174918877808
0.384,0.39157478340742136,5897.455191705646
0.388,0.5716916825983829,5898.337753688655
0.392,0.8838223300223136,5894.438733371714
0.396,1.2600446297935315,5912.373088698245
0.4,1.6195759573117463,5900.001575746603
0.404,1.8868349566374312,5908.84773110156
0.408,2.008001235532059,5894.836623091815
0.412,1.9610895863546907,5899.361557404589
0.416,1.756596105240124,5897.299780717
0.42,1.4296741858111481,5893.311012660741
0.424,1.0280519497186449,5909.756301336732
0.428,0.6007676561865456,5899.450837144723
0.432,0.19102193696301312,5899.330586059194
0.436,-0.16686978428302718,5895.768260827042
0.44,-0.4488708934399686,5898.621153880254
0.444,-0.6430493195953053,5893.484905209694
0.448,-0.7516086827291556,5891.270915631245
0.452,-0.7909098126369303,5893.57028480684
0.456,-0.7868817223962801,5899.057884796437
0.46,-0.7649461916321185,5900.655674105526
0.464,-0.7373696108066273,5894.408378596032
0.468,-0.6946849335014714,5892.154275216652
0.472,-0.6077654470312277,5897.36323934674
0.476,-0.44179121009017797,5894.562114654777
0.48,-0.1761377557924313,5899.523248332735
0.484,0.1793860325324897,5890.569474437053
0.488,0.5793722877724705,5896.404339350144
0.492,0.9507517296808776,5898.407866908071
0.496,1.211031992562948,5904.711874864056
0.5,1.291562880186758,5897.800478269866
0.504,1.1598404172237162,5892.648951411734
0.508,0.8346613682781273,5904.83148262424
0.512,0.38839393709533465,5897.6068620833885
0.516,-0.06684823550667633,5909.146734700214
0.52,-0.40740773320422025,5908.171460160186
0.524,-0.5333115160790741,5906.944324505492
0.528,-0.3991807863964735,5903.781329115584
0.532,-0.02938502285566504,5893.455624433557
0.536,0.48855554467947715,5891.367597899769
0.54,1.0292196690048727,5901.7674392142
0.544,1.4630701580426908,5894.058701972963
0.548,1.6878031596326017,5902.536440336252
0.552,1.649933468452505,5895.777878898948
0.556,1.353249630614621,5901.313323531336
0.56,0.8535984068605416,5896.250584798506
0.5640000000000001,0.24223814699438123,5899.280743367438
0.5680000000000001,-0.3772690390757968,5897.250893943541
0.5720000000000001,-0.9125041237362735,5895.519812349745
0.5760000000000001,-1.3006386933288678,5899.074833861497
0.58,-1.5180841529823856,5897.105639433781
0.584,-1.5795051594603602,5897.560918727011
0.588,-1.5273533299095068,5893.714791782683
0.592,-1.4160676527185283,5891.05972345351
0.596,-1.295922162675553,5891.146633144243
0.6,-1.2004124565993315,5899.068000981225
0.604,-1.14001419031823,5898.113105242511
0.608,-1.103928824993285,5899.090969262693
0.612,-1.068658451399982,5900.242854377499
0.616,-1.0092265921538646,5894.037279197835
0.62,-0.9083300830147165,5895.543353963295
0.624,-0.7607493728182334,5897.515728246207
0.628,-0.5728876268094514,5898.165418591202
0.632,-0.3590136020741366,5907.95734015326
0.636,-0.13625912408422716,5895.827882810829
0.64,0.08006596533002582,5898.276326290536
0.644,0.279589655311485,5895.422420506687
0.648,0.45710134606007563,5891.709929459163
0.652,0.609609793480542,5896.589930844438
0.656,0.7321883549275932,5902.77559006974
0.66,0.8155625747790306,5899.378153733859
0.664,0.8471398718382622,5890.576099961936
0.668,0.8152700226087841,5892.030739778544
0.672,0.7150949384033751,5902.323423401941
0.676,0.5533085602968749,5899.972787647362
0.68,0.3491551771145706,5895.624071072935
0.684,0.13084737468280108,5902.373438984094
0.6880000000000001,-0.07092908043665173,5895.802100046743
0.6920000000000001,-0.22971382488317768,5899.034044770219
0.6960000000000001,-0.3280130641149321,5902.967062676861
0.7000000000000001,-0.3589326659539824,5891.688056215046
0.704,-0.32481589282656714,5897.57443075035
0.708,-0.23449979745022992,5898.906751916067
0.712,-0.10144543868756964,5893.025137344727
0.716,0.056038369097020875,5901.264503632305
0.72,0.21323074459510502,5899.39407222429
0.724,0.33842203657114,5893.767232802698
0.728,0.3958782921830109,5907.665544200248
0.732,0.3533243764513781,5897.485795668223
0.736,0.1921540418654208,5895.705731123384
0.74,-0.08360170750386096,5888.809250692916
0.744,-0.44355758594675787,5894.906370079608
0.748,-0.8344491395169151,5894.86500867425
0.752,-1.1899501085843023,5903.401978827157
0.756,-1.4439864306340442,5905.449269600825
0.76,-1.5441696425638523,5897.140150783009
0.764,-1.4626344877464046,5899.966353373629
0.768,-1.2024992599647812,5897.849681208705
0.772,-0.798576727177091,5903.170247374527
0.776,-0.31137212036848916,5899.968712884339
0.78,0.18494435637282397,5896.116583111141
0.784,0.617330575859022,5898.662189867734
0.788,0.9267355445344432,5899.82762599299
0.792,1.0755858911873297,5893.245341014478
0.796,1.0498717027744076,5905.144134585285
0.8,0.8587800803630805,5898.302415837735
0.804,0.5344529750334079,5893.724803133062
0.808,0.1310610899609341,5891.8175984599775
0.812,-0.2801567269009434,5903.3490706095645
0.8160000000000001,-0.6222098554952461,5893.9252962825285
0.8200000000000001,-0.8288651998368608,5896.205175236342
0.8240000000000001,-0.8616638318731235,5897.667807231397
0.8280000000000001,-0.7208327664843917,5902.7123403623145
0.8320000000000001,-0.4447032865703238,5898.857656150934
0.836,-0.0971817984882833,5904.691405252561
0.84,0.2512001275873724,5892.844162855877
0.844,0.5405130939391681,5898.883462830141
0.848,0.731401285163805,5900.657596423273
0.852,0.8076776635831809,5891.178456364369
0.856,0.7751074201841337,5902.479536264824
0.86,0.6591987293123566,5897.929804030596
0.864,0.5014225153189789,5902.482663694231
0.868,0.35154484475719494,5888.659979941321
0.872,0.2556392142229063,5896.127374717313
0.876,0.24298656003656693,5906.574784514066
0.88,0.3173730709168438,5901.503387564823
0.884,0.45720092357496694,5901.462471296511
0.888,0.6245398410872327,5894.303039393241
0.892,0.7785632341799692,5898.467098681658
0.896,0.8869670175776218,5904.776851546541
0.9,0.9309274542964102,5898.021870873415
0.904,0.9033921815968948,5904.34769981483
0.908,0.8043347280791882,5900.621593116873
0.912,0.6376433597604075,5885.542595543299
0.916,0.41216506963537114,5887.981898047386
0.92,0.14605875231454052,5896.896894797125
0.924,-0.1288103481429235,5896.135603045708
0.928,-0.3664975363395682,5898.103269688131
0.932,-0.5137162510426911,5893.173656827788
0.936,-0.5237586972423259,5903.090196465351
0.94,-0.37343581030785256,5901.842819407627
0.944,-0.07581234486909724,5901.645916971522
0.948,0.31804032074730704,5892.1981346459015
0.952,0.7306386389208647,5892.420390856337
0.956,1.0791124055493198,5901.880952117159
0.96,1.2973414673904613,5902.928409303772
0.964,1.351038362445066,5900.085445206317
0.968,1.2417259286394777,5894.8650947267
0.972,1.0006318527147775,5889.569355475049
0.976,0.6768086497485349,5896.676235099812
0.98,0.32432164102621963,5904.371060729744
0.984,-0.008294998945882905,5896.997816910489
0.988,-0.2854828049119644,5891.327301781993
0.992,-0.48947365853757946,5897.654738989935
0.996,-0.6223443672500458,5897.808298117579
1.0,-0.7040262843606653,5896.732676129604
1.004,-0.7653595652927933,5900.422837907423
1.008,-0.8373579021165085,5898.699431908142
1.012,-0.9400283280358752,5892.109835111227
1.016,-1.0750527505118894,5899.724259719126
1.02,-1.2258056856458388,5889.900323118375
1.024,-1.3652245994969492,5897.596667714832
1.028,-1.467734517855306,5897.217837234021
1.032,-1.518510516327811,5881.966820638084
1.036,-1.514713365913677,5889.289591706137
1.04,-1.4586597579662777,5901.79806997474
1.044,-1.348456422302553,5896.720899607826
1.048,-1.1736071692113925,5907.280292122548
1.052,-0.9202450540210594,5898.650091736964
1.056,-0.5843515979302143,5898.1493124049575
1.06,-0.18516743475754105,5899.595705610333
1.064,0.2305288999596489,5899.52884282593
1.068,0.5976608980470421,5898.8467104279935
1.072,0.851986104482346,5903.990532424326
1.076,0.9502900522981773,5895.024821994284
1.08,0.8836027881239765,5896.060880062315
1.084,0.6804195656184594,5892.3800724267385
1.088,0.4014110952279034,5900.128288569714
1.092,0.12785987143639704,5897.904966220809
1.096,-0.05544167048860479,5896.573128937384
1.1,-0.08184990326224628,5887.380981578622
1.104,0.07504376162643467,5894.755503762591
1.108,0.386197441314814,5888.868806815133
1.112,0.7661518136183242,5908.169530309538
1.116,1.0900601300206725,5885.945443094172
1.12,1.2262817501391927,5901.097626501842
1.124,1.0755069247623406,5898.309561576836
1.128,0.6034140194455789,5893.628774042693
1.132,-0.14499132413406668,5898.837234041387
1.136,-1.0548232911871305,5900.666122997201
1.14,-1.970944794247826,5894.3187198781325
1.144,-2.736874421906973,5891.677094901588
1.148,-3.230350152341017,5896.185459798889
1.152,-3.386597655718518,5905.277072871032
1.156,-3.2058931401054482,5901.286239239147
1.16,-2.7465868733561254,5896.634579729722
1.164,-2.107632502608074,5901.720808950391
1.168,-1.4058996616803279,5906.879819338632
1.172,-0.7533594867668661,5897.815986630459
1.176,-0.23808314776755946,5906.603845902239
1.18,0.08859666954164971,5902.174596596229
1.184,0.21786770826037602,5898.321840933063
1.188,0.18215222864031527,5904.523089629382
1.192,0.047071485011059844,5896.149582887545
1.196,-0.10277934728257504,5899.762249057237
1.2,-0.18285629938114653,5896.78538382243
1.204,-0.12953680651793137,5897.450724480215
1.208,0.08159544926917307,5891.723254081549
1.212,0.42508236632826507,5893.732926058166
1.216,0.8270288756447693,5900.599231285641
1.22,1.180825198259326,5896.584080385592
1.224,1.3749307736188918,5898.316004258976
1.228,1.325568718395679,5882.433041643045
1.232,1.0043648229385447,5897.697914729676
1.236,0.45177054663851046,5904.141693085453
1.24,-0.22877223928386645,5895.023242831315
1.244,-0.8949818348818919,5895.768087187629
1.248,-1.4013445069494956,5898.4419818680935
1.252,-1.6355571824327997,5900.113489093521
1.256,-1.5452106464253734,5899.465910925669
1.26,-1.1480046298535573,5895.782293768125
1.264,-0.5244698541176727,5898.362729243163
1.268,0.20308337742389532,5893.987141603177
1.272,0.8991427484587994,5898.330236086696
1.276,1.4441405193725176,5901.192629243875
1.28,1.7576789378226443,5896.840281505978
1.284,1.810951366870935,5895.804919732706
1.288,1.6263219352308422,5909.251705030637
1.292,1.2655009585986308,5897.253269921708
1.296,0.8105765981150128,5892.514058879789
1.3,0.34346293801004263,5901.364093250468
1.304,-0.07087189618996875,5885.266065335825
1.308,-0.39354781072852496,5884.296463660561
1.312,-0.6121031183393686,5893.871888251941
1.316,-0.7337288361292372,5900.853337878942
1.32,-0.7749685977895238,5894.348101781173
1.324,-0.7518763835652482,5895.830579866867
1.328,-0.6739361013659576,5903.908148036141
1.332,-0.5433396475015361,5894.908623559497
1.336,-0.35892057618705103,5892.270642879827
1.34,-0.12224519276272124,5903.92753991293
1.344,0.1571326428339222,5890.351182612817
1.348,0.45947555586652794,5895.9338563667225
1.352,0.7564020350996269,5903.862296658298
1.356,1.0152171224627704,5895.993915215879
1.36,1.2041456639512251,5893.027046120243
1.364,1.2968084121595225,5895.852171580548
1.368,1.2755987717326807,5894.45472761746
1.372,1.1349710322929196,5906.366363721773
1.376,0.8853413407351409,5897.308191249469
1.38,0.5559418594778376,5891.942623392208
1.384,0.19298603812409945,5899.666789426243
1.388,-0.1491604497696819,5897.577942677609
1.392,-0.4219370781564026,5890.488915097117
1.396,-0.5963672283914542,5895.344525692966
1.4,-0.6711132491020689,5897.612520588663
1.404,-0.6717359817384313,5896.912514803205
1.408,-0.6415543610025339,5894.690136039903
1.412,-0.6274973903518564,5908.593401958837
1.416,-0.6658000966114669,5897.113668000025
1.42,-0.7719484869546741,5892.083682429435
1.424,-0.9374238263546621,5893.727289257843
1.428,-1.1334102539905033,5899.32916954249
1.432,-1.3195293141235465,5896.0833683105175
1.436,-1.4544966449356191,5898.961480053779
1.44,-1.505720798589101,5895.069226333291
1.444,-1.456062604362984,5897.589450723822
1.448,-1.3073629297641085,5897.661761882418
1.452,-1.0809606374702054,5897.824498087788
1.456,-0.8149283659463817,5901.126176553686
1.46,-0.5569426123157434,5908.512270869764
1.464,-0.3524023218109177,5897.241268569198
1.468,-0.23047398290551396,5898.742659522442
1.472,-0.1938595138338213,5892.151410835736
1.476,-0.2177175892558781,5902.064159250359
1.48,-0.2589074538742496,5903.797160509241
1.484,-0.27176876529312183,5904.759021437484
1.488,-0.22425850382237827,5897.553096724675
1.492,-0.10912286733888836,5897.206128388128
1.496,0.05263558962526261,5891.038596571328
1.5,0.2163086819278374,5893.982320733242
1.504,0.32492204668856767,5894.142688360569
1.508,0.3255340711650089,5894.246993625255
1.512,0.18694127319073817,5900.044594182798
1.516,-0.08678541724182942,5890.905036071536
1.52,-0.4533204619535909,5893.18806698371
1.524,-0.842900602201543,5896.8968165079295
1.528,-1.179431496842829,5896.2309443804215
1.532,-1.4024797299162794,5896.881740043493
1.536,-1.4807035149857597,5901.774327521232
1.54,-1.4135384033069653,5897.212488614398
1.544,-1.225170737974695,5898.273863337326
1.548,-0.9569400634702566,5898.556654493458
1.552,-0.6608039028865607,5890.41029775635
1.556,-0.39215258761156413,5898.333426340879
1.56,-0.1993920784667214,5899.032198997122
1.564,-0.11062506174799883,5899.541465600676
1.568,-0.12183574341055768,5893.293950857923
1.572,-0.19299310356135407,5889.763653474179
1.576,-0.25650926075723895,5898.816063100464
1.58,-0.23735897217943747,5889.016101336454
1.584,-0.07888721623589799,5901.617759774093
1.588,0.23450702245296937,5900.298678437635
1.592,0.6663464500611262,5894.96616293379
1.596,1.1341438953195908,5895.989908688652
1.6,1.5323803953299733,5892.484998006529
1.604,1.7653826456472448,5899.585313213461
1.608,1.7780984110911604,5901.34838752695
1.612,1.5726934908313166,5894.534653997499
1.616,1.2044623853114445,5897.461646460192
1.62,0.7595350052089536,5903.331622965984
1.624,0.32504550162386214,5897.047641601676
1.628,-0.034775062290283994,5899.5205964730285
1.632,-0.287898498989168,5907.013099689792
1.636,-0.4298142780940115,5904.320722779174
1.64,-0.4723687650438435,5890.54941945233
1.644,-0.43371800157045975,5890.8401023972665
1.648,-0.332593347666356,5899.196113351969
1.652,-0.18644435934546885,5901.873969720134
1.656,-0.012174399414441688,5890.167452954663
1.66,0.1714869720687077,5896.100411464319
1.664,0.3411569043973156,5887.410976137538
1.668,0.4675424646393203,5896.936785678209
1.672,0.518216988509494,5888.820386653742
1.676,0.46568282196535,5894.497780703761
1.68,0.29872851983400733,5897.49101802192
1.684,0.031667829724793824,5900.605325957624
1.688,-0.2942598517584521,5901.314723621326
1.692,-0.6192234390992113,5896.971671003352
1.696,-0.8796851194358688,5893.689997492466
1.7,-1.0239878581882207,5895.658506421833
1.704,-1.0236626926413936,5894.651513922355
1.708,-0.8783133534737217,5889.214837253085
1.712,-0.6143619061586394,5892.8403873770585
1.716,-0.2787734140729593,5901.735954805708
1.72,0.07110155824095296,5907.679813711549
1.724,0.3798793668524074,5898.165738283717
1.728,0.6058012124756345,5897.288455277052
1.732,0.7280926924115956,5899.443301126984
1.736,0.7474044719280687,5894.900632913251
1.74,0.6796089462040025,5889.1262469304975
1.744,0.5466274420737999,5902.863047484613
1.748,0.3692836167646528,5897.741931756664
1.752,0.16502998722389747,5900.634719218413
1.756,-0.05037207238115636,5900.724525523093
1.76,-0.26021765710667233,5894.939977785552
1.764,-0.4456442847820324,5895.581905022123
1.768,-0.5866211087324675,5894.37505306364
1.772,-0.665095729088317,5897.995692468157
1.776,-0.6700901589637184,5899.47359334059
1.78,-0.603719436864465,5899.978585235885
1.784,-0.48521414549890607,5903.861138981234
1.788,-0.3490491745050089,5893.859836872986
1.792,-0.2356395938177425,5897.290835499961
1.796,-0.1777501310923469,5899.75173496826
1.8,-0.18873502888978042,5895.714381136993
1.804,-0.25775310875183827,5892.790130016958
1.808,-0.35370491125417003,5902.246043752445
1.812,-0.43618508071853046,5902.736488998274
1.816,-0.4692954655710985,5896.529820114618
1.82,-0.4330727375967483,5902.891467878649
