时间(s),电压(V),幅值(高频80K)
0.0,-0.005805601927739982,5899.001089824065
0.004,0.3571186237904556,5892.220970556179
0.008,0.6606823877511243,5886.351226133689
0.012,0.8604751887676702,5910.282096776507
0.016,0.9354566033054224,5902.243546284169
0.02,0.8896197387844893,5903.202013187981
0.024,0.7500066696225894,5893.202684660672
0.028,0.5625600347034215,5892.430227034319
0.032,0.38370848776792127,5895.720857785388
0.036,0.26643446751634825,5897.790979306496
0.04,0.24485698262153618,5906.134469708565
0.044,0.32472312640990925,5903.745911471553
0.048,0.48444052023485146,5902.952578712188
0.052,0.6850642174036266,5901.267878225945
0.056,0.8834654603112488,5903.257262107411
0.06,1.043097254408062,5903.700911288792
0.064,1.1394875704624037,5896.849159808815
0.068,1.1602181586318279,5896.361174742116
0.072,1.1009093518801498,5900.892583822815
0.076,0.959906393570451,5889.14327055406
0.08,0.7347486729454643,5905.475864749546
0.084,0.4225440675604547,5904.997896215536
0.088,0.024109357071551454,5898.949849033902
0.092,-0.4506050481086596,5897.1104556228165
0.096,-0.9788270104598525,5899.178248348137
0.1,-1.5242800346027958,5904.249572673776
0.104,-2.038885424136897,5900.4506462586205
0.108,-2.4664069683365195,5899.83164268146
0.112,-2.748838537199849,5908.519469324699
0.116,-2.836081175185035,5896.339171252216
0.12,-2.6976056017492356,5888.994621553527
0.124,-2.3334161460471137,5899.253038515405
0.128,-1.7814316553518483,5895.39700399251
0.132,-1.1181688576499862,5891.686006925183
0.136,-0.4492939225737699,5904.407464630098
0.14,0.1114317491419413,5917.251984982725
0.144,0.47075456374343805,5908.12860089053
0.148,0.5822804773545042,5902.860855117149
0.152,0.46010209403934815,5901.813423850013
0.156,0.17463886218975,5896.13457515582
0.16,-0.16701888254558742,5897.771499918185
0.164,-0.4490721750799962,5899.927076573821
0.168,-0.5749956211213234,5906.13910883
0.172,-0.4889441980455488,5894.730133990289
0.176,-0.18659784524622403,5905.083811779073
0.18,0.28626796753764366,5900.994539782171
0.184,0.8467793886982166,5900.595230250731
0.188,1.3956588743605804,5902.196847873278
0.192,1.8394500021348834,5896.700435826396
0.196,2.108651538224632,5898.410915218997
0.2,2.1685986671684017,5894.3414655083925
0.204,2.022020972009925,5901.870170121446
0.208,1.7037257372703012,5902.933738840487
0.212,1.2697013611731724,5906.065174391984
0.216,0.7844512852387576,5891.6939360264105
0.22,0.31017666059653837,5904.240852747965
0.224,-0.10041345677147785,5905.563196412491
0.228,-0.4080551680317182,5900.281708796373
0.232,-0.5892115391102224,5898.038378603848
0.236,-0.6377167141577597,5898.177324416628
0.24,-0.5650546407666966,5895.507626042082
0.244,-0.3973998232856468,5896.609584124927
0.248,-0.1686608626951002,5896.900234916757
0.252,0.08847389706542036,5902.639042008065
0.256,0.34946263014912643,5900.783422147028
0.26,0.5992624663722464,5904.246394542457
0.264,0.8276201696150102,5895.179698463508
0.268,1.0218032918978996,5898.567412359304
0.272,1.1622371305863757,5908.060888582108
0.276,1.2245552180508,5906.741899430693
0.28,1.187248211993887,5895.026305771999
0.284,1.0408500613786522,5906.8718363323405
0.288,0.7941616266600393,5905.596210873892
0.292,0.47459071798909486,5896.644073583445
0.296,0.12206274453544284,5892.531783448607
0.3,-0.22139723374095854,5899.318787700083
0.304,-0.522146910144766,5903.735887504634
0.308,-0.7607878451881701,5891.184006463469
0.312,-0.9308008148917494,5906.921527256317
0.316,-1.031331611839736,5895.694428685864
0.32,-1.0590452545697662,5884.948194135437
0.324,-1.0043403981740884,5899.153871720866
0.328,-0.8541137023911789,5902.302538904903
0.332,-0.5991256137444962,5890.947927209385
0.336,-0.24144732783694856,5904.266621827756
0.34,0.20220380992172315,5888.244853652543
0.344,0.702268101753321,5896.021774705131
0.348,1.2205193188206682,5894.496727134587
0.352,1.712826342729272,5903.751104356097
0.356,2.1294915258829414,5899.88532734819
0.36,2.41599463121385,5893.258350969224
0.364,2.5184018981532,5899.958550968279
0.368,2.3954866564401853,5904.046091534325
0.372,2.0349141247360003,5900.580950013402
0.376,1.4665569297203491,5896.556781441046
0.38,0.7653803177549132,5897.414316887601
0.384,0.040173535566199084,5898.902255990313
0.388,-0.5898387438834253,5901.638956519686
0.392,-1.0239307979183228,5906.685298547054
0.396,-1.2057509143994893,5899.732132553143
0.4,-1.1379274382661997,5905.160377023845
0.404,-0.8799545425034206,5894.977458343294
0.408,-0.5291203955522938,5894.328764391696
0.412,-0.1907516471237551,5900.152172239503
0.416,0.05136758782739902,5905.311078125032
0.42,0.1539322620148132,5897.999934354665
0.424,0.11717367222355299,5900.855728294055
0.428,-0.026204324585327433,5898.006672981076
0.432,-0.2293812458186265,5897.6822407205855
0.436,-0.44914640280315693,5893.612916775836
0.44,-0.6572247613333544,5904.397975044959
0.444,-0.842732621501674,5902.547748487628
0.448,-1.0065792151704782,5900.677719240803
0.452,-1.151321441215473,5904.686665795598
0.456,-1.2712640555516392,5905.9247688069945
0.46,-1.347310011902937,5906.868337707417
0.464,-1.3494789922555852,5896.255808678574
0.468,-1.2469083726722847,5893.723927898073
0.472,-1.0212719401958628,5904.029341638055
0.476,-0.6775657480735661,5903.444117508045
0.48,-0.24783980179166917,5901.244179783763
0.484,0.21283123907096846,5897.30917584566
0.488,0.6358758289632855,5896.319664087209
0.492,0.9512627717691864,5894.558428581006
0.496,1.100189448154102,5907.222957036433
0.5,1.0476895322440434,5902.739813544205
0.504,0.7936811491658435,5893.460914740805
0.508,0.37874827478317463,5902.085798091031
0.512,-0.11997955740207485,5892.171756202433
0.516,-0.6047667411786769,5902.029319303367
0.52,-0.9813717659772123,5898.669417651973
0.524,-1.1829910576774372,5894.271745159196
0.528,-1.18549834638418,5896.371039298259
0.532,-1.0094777392808088,5892.307974743309
0.536,-0.7098008520586545,5892.435713682552
0.54,-0.3575222371514289,5904.33035815878
0.544,-0.020898344099946828,5899.250835867788
0.548,0.2481610758285163,5896.332666193337
0.552,0.4192000792162025,5898.496039043489
0.556,0.48150920888200427,5890.387713914598
0.56,0.44008579187579405,5905.08799120823
0.5640000000000001,0.312691393611723,5895.961626824902
0.5680000000000001,0.1278269245365867,5898.229320718818
0.5720000000000001,-0.07897999937775019,5894.964639745552
0.5760000000000001,-0.2722327444053285,5898.441319325847
0.58,-0.4256321373093851,5903.768730654431
0.584,-0.5300635426036817,5901.35537338099
0.588,-0.596894110880662,5904.969628545978
0.592,-0.6540629203685473,5898.170318712688
0.596,-0.7345844016677282,5898.876172483135
0.6,-0.8606246282255599,5900.329875563353
0.604,-1.0296402281677313,5898.639281834889
0.608,-1.209235986045785,5893.359215196496
0.612,-1.3436612521178006,5903.286380653319
0.616,-1.3697150708673298,5894.02077567696
0.62,-1.2360940449574191,5903.649640192051
0.624,-0.9192806581427773,5902.398611410748
0.628,-0.43129872732503605,5897.170548905514
0.632,0.18113605576203368,5910.335567917034
0.636,0.8433861515933705,5886.602215388708
0.64,1.4629663315453183,5900.811385473571
0.644,1.942460048754186,5904.664451280937
0.648,2.195942943411328,5895.123084525033
0.652,2.16779630033867,5906.519377954624
0.656,1.8491559636172539,5901.172353328819
0.66,1.2850574424239323,5903.982187731998
0.664,0.5675096640909664,5904.126942687404
0.668,-0.18429985541785043,5898.095239866645
0.672,-0.8498672761212122,5890.060620124575
0.676,-1.3310289371833348,5901.327114138713
0.68,-1.567605167273148,5891.842873455593
0.684,-1.54297357359101,5901.598690603692
0.6880000000000001,-1.280559888122249,5898.944966690287
0.6920000000000001,-0.8338430309590134,5898.093920708349
0.6960000000000001,-0.2728024709108439,5894.0826159047
0.7000000000000001,0.3304671152337965,5898.581303053608
0.704,0.9146008224000095,5904.010061070148
0.708,1.4383253843161496,5902.591199937511
0.712,1.8845688325311531,5892.109783908996
0.716,2.257782396728956,5905.488240493936
0.72,2.574522432760677,5891.270568332125
0.724,2.850425212662196,5887.573193233565
0.728,3.088972794587407,5904.380329110508
0.732,3.276438980863781,5904.0182259512485
0.736,3.3838941595599357,5900.225325906117
0.74,3.374489352932875,5894.77878824969
0.744,3.2139803039122627,5903.619257531071
0.748,2.882675054594525,5896.761159787096
0.752,2.3859667480278812,5897.542134834167
0.756,1.759595526740692,5904.000376392708
0.76,1.066702261496889,5897.123222720543
0.764,0.3864833670657531,5893.258650829097
0.768,-0.20257391555513227,5895.081006837831
0.772,-0.6395320060219478,5906.833111414162
0.776,-0.8921220937101588,5894.076369870156
0.78,-0.9586598174010182,5889.430275869262
0.784,-0.8617899897171318,5898.758864860349
0.788,-0.63919294379734,5893.475948610015
0.792,-0.3368453584120277,5894.023622286685
0.796,-0.0065150571947137645,5904.604552993383
0.8,0.2956980217707287,5891.523918359918
0.804,0.5142445122826584,5896.500913698264
0.808,0.6037709303024066,5898.727473799184
0.812,0.5404989638889318,5891.006897129429
0.8160000000000001,0.3301137287163929,5893.473405875407
0.8200000000000001,0.007962616784183507,5907.14866962046
0.8240000000000001,-0.36954478517118267,5892.81854008394
0.8280000000000001,-0.7399983805010992,5900.625877366557
0.8320000000000001,-1.0514532515800983,5889.630557660352
0.836,-1.2744686814850965,5901.435125928188
0.84,-1.4061726235300847,5902.130928985582
0.844,-1.4667096122948446,5898.769329470971
0.848,-1.4906641275217176,5899.672297949749
0.852,-1.5157441833998824,5898.830397452102
0.856,-1.570533271893928,5907.350934403489
0.86,-1.664155186734332,5891.098513390127
0.864,-1.7817694238459736,5903.188799066063
0.868,-1.8883844205677704,5899.370862279416
0.872,-1.9396051261522371,5900.865215260352
0.876,-1.894734824667981,5899.472489637044
0.88,-1.7275879997262555,5902.866875510527
0.884,-1.4324713209038915,5892.2989763941605
0.888,-1.0246598941255065,5903.927281877721
0.892,-0.5358058532838744,5911.140241813274
0.896,-0.006093608501471195,5895.57459058371
0.9,0.5235468509684659,5894.639340336149
0.904,1.0159794504372295,5895.225096461401
0.908,1.4383695008268447,5895.770439778076
0.912,1.7607731749302398,5903.524945880436
0.916,1.9561568265204579,5907.543156813613
0.92,2.004162072496961,5893.052059586651
0.924,1.8982104917103793,5896.9735598621055
0.928,1.6525258194849801,5894.403245483401
0.932,1.304326754996215,5899.507700864781
0.936,0.9079337920965566,5898.302184755879
0.94,0.5213768001904997,5905.195052627563
0.944,0.19063886723441906,5897.064650884471
0.948,-0.06088505741333359,5904.423751925587
0.952,-0.23236506255523512,5898.585191293017
0.956,-0.33573524297860474,5903.763046657615
0.96,-0.3825779837726781,5898.740570454936
0.964,-0.37539932102245077,5898.507910813537
0.968,-0.30763034329725625,5895.8331403523125
0.972,-0.17144317636734163,5891.105759757571
0.976,0.03176811047259129,5907.753631799924
0.98,0.2847346072897455,5891.726254552805
0.984,0.5556549944618681,5904.561496583918
0.988,0.8068020002397935,5899.089934211473
0.992,1.0052770163053557,5899.967231933751
0.996,1.130034323418118,5911.272579932785
1.0,1.1726433784274226,5897.941157105734
1.004,1.1337871686532008,5901.5357466277865
1.008,1.0193625967840771,5904.022326074467
1.012,0.8385123133561438,5894.65613258845
1.016,0.6037716861851956,5900.117634150173
1.02,0.33283883643802464,5899.458790590184
1.024,0.05115756912206498,5900.70409821711
1.028,-0.2067068073904905,5907.261726826845
1.032,-0.39958361279583215,5898.8329871423975
1.036,-0.487137352384097,5894.733204373508
1.04,-0.4403242320688557,5904.084223470357
1.044,-0.25130816821144225,5893.206036991313
1.048,0.06009930678350513,5900.95710348529
1.052,0.4447674720888878,5896.234618141649
1.056,0.8277789402266875,5903.421916450632
1.06,1.118118911786127,5892.043251735454
1.064,1.225753965503101,5889.980699215129
1.068,1.084928318391954,5901.863012316272
1.072,0.6776071738586348,5902.589163823076
1.076,0.04738581690234724,5898.958422934097
1.08,-0.7043639922787833,5890.002683985799
1.084,-1.441674932468917,5907.988344359888
1.088,-2.0296942883088924,5895.897353656831
1.092,-2.3705550537280944,5897.805891584795
1.096,-2.4268748658116546,5905.060464260208
1.1,-2.2254160359902877,5908.957829540638
1.104,-1.8414180092190164,5897.205713663165
1.108,-1.371276842684815,5898.401276552201
1.112,-0.9041993977636692,5900.227907350596
1.116,-0.5016785104478835,5894.97062680045
1.12,-0.18944958436894915,5893.492986582362
1.124,0.03772153303561374,5907.428674345109
1.128,0.2019361152249165,5910.071705531504
1.132,0.32537073949583695,5901.110440146721
1.136,0.4182854519949786,5903.830795506689
1.14,0.4767369776335162,5903.225681943235
1.144,0.4899348366765207,5899.312012243192
1.148,0.4523913408458533,5906.192734952508
1.152,0.3736592485571398,5899.288613701131
1.156,0.2798022737081538,5894.612885120246
1.16,0.20524738079026134,5886.459926536466
1.164,0.17865014250333378,5901.214654851166
1.168,0.2093524631825346,5906.995439864727
1.172,0.28115779449018663,5897.114255641831
1.176,0.35733516042393965,5894.133313870442
1.18,0.3954984319190521,5905.806239971149
1.184,0.3659253377681521,5897.823186028942
1.188,0.2652982475994204,5906.097016961592
1.192,0.12040822186115799,5900.480742411791
1.196,-0.01931670194113885,5905.720914073829
1.2,-0.0978643314637152,5897.331213694139
1.204,-0.0720037908350771,5899.746072066497
1.208,0.07266441104531343,5906.30492524364
1.212,0.3144923768781031,5900.914892390886
1.216,0.5994160746900106,5898.558099631224
1.22,0.8538487230346087,5901.654181143755
1.224,1.003264243994114,5898.669418266449
1.228,0.9919564467504116,5901.769285873486
1.232,0.7988337350592467,5906.211098300701
1.236,0.4444026224729617,5897.181155005564
1.24,-0.01375550353924468,5899.795828579036
1.244,-0.4958082799812829,5906.362491162554
1.248,-0.9198225215131635,5899.637919388772
1.252,-1.2210124562500944,5905.98417514148
1.256,-1.3653711596690896,5896.483643864416
1.26,-1.355396069795247,5903.230179769928
1.264,-1.227472746349132,5889.062611256572
1.268,-1.0417421634892066,5899.326517322029
1.272,-0.8665440757223429,5901.211390777998
1.276,-0.7609180318025416,5890.350319639054
1.28,-0.7595321803800276,5900.170982249234
1.284,-0.8641612569549341,5891.709591806195
1.288,-1.0443640922813626,5901.521593911743
1.292,-1.2475414741220032,5899.551287756077
1.296,-1.4155542831010104,5893.407080991799
1.3,-1.502689923309804,5900.696647390078
1.304,-1.4893729735653554,5900.291422043028
1.308,-1.3877889488859638,5903.472906958765
1.312,-1.2381177510600982,5909.378930219999
1.316,-1.096131904281637,5895.768505217303
1.32,-1.0148110350883304,5889.854742555312
1.324,-1.0249881010991533,5896.044497047377
1.328,-1.1219159765835398,5899.043301839676
1.332,-1.263787887836016,5901.543786043388
1.336,-1.3837538797940445,5893.524211900727
1.34,-1.4111452784099645,5901.558751752576
1.344,-1.2940990326159185,5905.975685404188
1.348,-1.0160148948485404,5889.707471609939
1.352,-0.6011793876455996,5896.985327251858
1.356,-0.10893059887964902,5901.123832965795
1.36,0.3805547682073972,5907.935804539349
1.364,0.7840980493815731,5898.411351379781
1.368,1.0330094644404726,5903.096166689617
1.372,1.087742825085038,5905.299390999019
1.376,0.9475024429577262,5895.4908091235375
1.38,0.6519645198551544,5906.12237251284
1.384,0.27284560767768273,5895.907521119682
1.388,-0.1037874283286129,5903.806711595855
1.392,-0.3992294055427446,5910.347048276916
1.396,-0.5604754312952187,5891.973189558243
1.4,-0.5697075692691601,5905.339514554223
1.404,-0.44390102435863427,5895.823978107803
1.408,-0.2272641188297714,5895.619115782834
1.412,0.019742305530029054,5902.963001701852
1.416,0.23237206444802358,5903.13551476785
1.42,0.3537614731668671,5904.310111142208
1.424,0.3465659608806652,5901.973456523878
1.428,0.20191428964942523,5912.041398598901
1.432,-0.05728457157205249,5899.221324993645
1.436,-0.380559220787719,5894.616472457123
1.44,-0.7012130129138826,5904.4823906198735
1.444,-0.951953521398792,5894.562228784564
1.448,-1.0801789841933622,5894.637826588058
1.452,-1.0582173917141602,5893.467907749367
1.456,-0.8861308161515004,5897.89598451706
1.46,-0.5881161558329859,5898.935390136266
1.464,-0.20548421561338062,5899.61995918207
1.468,0.21154819339287098,5907.898578306232
1.472,0.6128253809623585,5898.287524237151
1.476,0.9578893262057268,5902.094598284198
1.48,1.224675834715459,5905.359980548561
1.484,1.4141223248307315,5901.307799556289
1.488,1.5478665869138428,5902.247139908557
1.492,1.65876731675544,5902.912913185664
1.496,1.7773041164516428,5900.642658172274
1.5,1.918733615334767,5896.945246000541
1.504,2.0751987726269228,5894.423664882767
1.508,2.215045221790453,5891.778757739472
1.512,2.2898645559992,5903.33282059499
1.516,2.248102157730568,5900.497581908701
1.52,2.051848729715721,5898.351621435177
1.524,1.6914792591160774,5901.465509657792
1.528,1.1927627156677374,5896.928080085334
1.532,0.6136353610038556,5899.418651095841
1.536,0.03180629287469782,5911.110357947688
1.54,-0.47257000926727366,5892.485835811547
1.544,-0.8342033264403967,5900.717240552162
1.548,-1.0161973741265489,5893.874248108282
1.552,-1.0177048654779868,5898.971666680504
1.556,-0.874522009325593,5908.57743426063
1.56,-0.6514493979588698,5904.687035962278
1.564,-0.4259324240048494,5897.041618288897
1.568,-0.26563387366207214,5891.928217106106
1.572,-0.20730200627335785,5907.1216010214175
1.576,-0.2466020918164075,5904.658707726328
1.58,-0.34484198378142095,5902.180318420579
1.584,-0.4497897510115174,5905.584487479212
1.588,-0.5199592281681643,5909.91482532409
1.592,-0.5403418261700376,5896.881780520284
1.596,-0.5229231315416565,5904.031281360623
1.6,-0.4934344777396183,5896.978881881195
1.604,-0.4722695436619896,5901.58680830418
1.608,-0.4598215104030804,5898.410003055137
1.612,-0.43388820730164046,5903.264367496306
1.616,-0.36024062998756906,5898.777727286076
1.62,-0.21029799201539634,5897.739756855035
1.624,0.02370304761983594,5898.113136587452
1.628,0.3236549860946892,5898.24917913052
1.632,0.6520704655832325,5902.801298396372
1.636,0.9649842961825625,5890.491732191819
1.64,1.223424331200066,5901.273935483433
1.644,1.3982431939674493,5908.6420176015945
1.648,1.4685856719396262,5905.827008289728
1.652,1.4186276031143126,5901.563495381279
1.656,1.2377914603179065,5898.760982232108
1.66,0.9262874477595866,5897.565041690566
1.664,0.5031409880536951,5897.321818469568
1.668,0.011259834245613954,5899.599672339123
1.672,-0.48491269054138664,5905.2331625156285
1.676,-0.9099473214449703,5895.303034195897
1.68,-1.1931056668245983,5894.497333557624
1.684,-1.2843963967628547,5896.137002860655
1.688,-1.1668720414959726,5898.1277957276525
1.692,-0.8621471133220757,5903.072340409597
1.696,-0.42713367645147443,5894.943457906537
1.7,0.05824218910095293,5906.619169590948
1.704,0.5099437444722305,5898.2066274285735
1.708,0.8604560116295259,5903.499813273086
1.712,1.0750376959004744,5898.625430509626
1.716,1.1583205465272552,5900.815775873912
1.72,1.1489886921781929,5904.7554171297015
1.724,1.1045379398716701,5904.093580149626
1.728,1.081742752769401,5904.797004318293
1.732,1.119492431906098,5903.25167757947
1.736,1.2288718304609145,5902.65770763384
1.74,1.3923029312124533,5897.628380879825
1.744,1.570585457087361,5895.8484746883805
1.748,1.7145211076771565,5900.3693128969735
1.752,1.7772636247981213,5885.351894544266
1.756,1.7245407640846775,5899.526531174959
1.76,1.5413156969482935,5901.323860744024
1.764,1.23451017251867,5894.524198695591
1.768,0.8318895127148975,5900.5656963884585
1.772,0.3771229464735503,5897.241770369781
1.776,-0.07885919326423393,5900.061125089142
1.78,-0.4888617724057904,5901.391698067351
1.784,-0.8196636662734381,5896.377702669844
1.788,-1.0579189697361693,5895.358797564091
1.792,-1.2097398367114045,5893.821719507712
1.796,-1.2944993389550261,5900.478954027588
1.8,-1.3354741977818612,5903.220053099377
1.804,-1.3511987290715575,5889.219501934508
1.808,-1.3513621302707302,5893.456092562874
1.812,-1.3390149998526732,5900.436237519581
1.816,-1.3173395237309364,5889.180424585781
1.82,-1.2962319353504965,5900.736928402683
1.824,-1.2932140223908655,5900.214505428483
