时间(s),电压(V),幅值(高频80K)
0.0,-1.315583623967458,5905.281599541544
0.004,-0.3225690892650395,5892.857845962795
0.008,0.5786014264128141,5892.870389981698
0.012,1.3033553979246533,5892.582050186061
0.016,1.7796159841551766,5903.409552671686
0.02,1.9560411297795575,5894.073606228991
0.024,1.8143792676887944,5903.645521606658
0.028,1.3816216187289054,5896.281103871489
0.032,0.7334366460101674,5892.084627244403
0.036,-0.016692951461024952,5895.493104156407
0.04,-0.7404078994679183,5905.333826610139
0.044,-1.321191606935472,5891.255925058182
0.048,-1.676141482347496,5903.6635418387
0.052,-1.7679602421771048,5902.686594512906
0.056,-1.6065372781754308,5898.491235391214
0.06,-1.2415979498201257,5899.694401471006
0.064,-0.7490332225382512,5897.653472224994
0.068,-0.21511765239871183,5894.439892817896
0.072,0.27673051247705144,5906.824850379005
0.076,0.6545622891734747,5898.141987785473
0.08,0.8632592243121725,5892.8161628912485
0.084,0.8687238618699775,5896.858908919056
0.088,0.661016845704,5900.71502120472
0.092,0.25514761776633793,5893.5489237290685
0.096,-0.3109777148735271,5892.600174650729
0.1,-0.9804115061106298,5909.576912652869
0.104,-1.6815642560525694,5907.729679506196
0.108,-2.333238055754827,5904.424384451466
0.112,-2.8517423304401257,5905.755354972203
0.116,-3.161237387691206,5901.745652069261
0.12,-3.2064086872389765,5902.860396818845
0.124,-2.9644345379312003,5892.479706494052
0.128,-2.452629910109108,5900.7710399114685
0.132,-1.729194514331869,5896.594825595786
0.136,-0.8861266326745362,5898.497794690564
0.14,-0.03504737395118222,5901.169860294779
0.144,0.71156963552661,5909.119170804659
0.148,1.2598565190240099,5903.991371364758
0.152,1.550396397642157,5896.815970964573
0.156,1.5671397439238666,5903.30088408689
0.16,1.3381875565414418,5894.45530727741
0.164,0.9292301105765794,5897.184462544012
0.168,0.4311386351095584,5906.88459756636
0.172,-0.056642555341352104,5903.924691537781
0.176,-0.4442134595899795,5904.338467926131
0.18,-0.6667158827525251,5893.443816602364
0.184,-0.6932341881577381,5894.14628783296
0.188,-0.5276238177304505,5903.288089390566
0.192,-0.20301332947760853,5901.966802002562
0.196,0.2267836786319515,5894.945100409259
0.2,0.6966496948638979,5913.9815591608485
0.204,1.1396848890176408,5899.084256422638
0.208,1.4966128828037384,5895.467217635191
0.212,1.7239994946224033,5899.659495936618
0.216,1.7996182606122746,5895.696295933049
0.22,1.7237746915699557,5897.090131869193
0.224,1.516717739903857,5900.897094873966
0.228,1.2136228101793929,5903.818808097889
0.232,0.8590767299182789,5897.604211977434
0.236,0.5022188247357015,5906.808338077579
0.24,0.1923689974165842,5899.60591068922
0.244,-0.026032425757638856,5901.382160218156
0.248,-0.12030590385107184,5895.4407066702615
0.252,-0.07766020234079424,5894.946254810481
0.256,0.08863788435295761,5901.292255174782
0.26,0.33931308921028,5905.128859574899
0.264,0.6174365184335721,5896.397008375944
0.268,0.8630750866721953,5894.92381707505
0.272,1.029047386287326,5896.136080684583
0.276,1.0921245292040043,5901.425361093698
0.28,1.0561218196827227,5896.33490570867
0.284,0.9465641582501606,5893.183182851347
0.288,0.7994061529779766,5904.383732849562
0.292,0.6479782825417686,5907.036180788098
0.296,0.5127790206018185,5904.567842923615
0.3,0.39757904994204735,5893.956874667924
0.304,0.29264404907360253,5892.041213650836
0.308,0.18301801400655374,5896.788868033092
0.312,0.058183386244929323,5906.351226520642
0.316,-0.08066803951070563,5897.363930893618
0.32,-0.21848691540863985,5890.311731797322
0.324,-0.33018545891269085,5903.056046067293
0.328,-0.38898974036586453,5897.492241537543
0.332,-0.3762828738263429,5901.039961400274
0.336,-0.28952229142199504,5896.38554281079
0.34,-0.14539138241357988,5893.411977378413
0.344,0.023131990597314658,5891.646265329812
0.348,0.17471704226426482,5899.551165930596
0.352,0.26947812769211543,5896.5408919401925
0.356,0.27704650689053034,5900.292314481932
0.36,0.18085518983691493,5901.959682850349
0.364,-0.020870224290940334,5904.801513565486
0.368,-0.31527550674984917,5889.644650507926
0.372,-0.6747078220256087,5906.765827818314
0.376,-1.0568242526513514,5898.576918233247
0.38,-1.407134828855252,5892.930619558926
0.384,-1.665933007510347,5899.68031083343
0.388,-1.7795699265673757,5901.253086037189
0.392,-1.7133002093483607,5893.38491552607
0.396,-1.4613370531555954,5899.411415762217
0.4,-1.0503237308767595,5896.08680069375
0.404,-0.5345705042280647,5906.680543256431
0.408,0.01580422750033176,5893.791570902323
0.412,0.5300660264862738,5901.674152848523
0.416,0.9504778917509095,5899.534951655383
0.42,1.2406009932164344,5909.508538996109
0.424,1.3870829365911799,5902.559159672938
0.428,1.3958445003446753,5895.34240043019
0.432,1.2847383087331665,5900.990589252105
0.436,1.0756496009463985,5896.964170565402
0.44,0.7895092908310258,5904.49691863051
0.444,0.44635887191959944,5897.08773846723
0.448,0.06927692727666647,5904.455574603442
0.452,-0.311787060586426,5899.374756423091
0.456,-0.6600168214185215,5896.139212405546
0.46,-0.9367196618389498,5891.722515477616
0.464,-1.1096287422897524,5895.6286661276845
0.468,-1.1611998696149586,5906.297681184383
0.472,-1.0936101951970856,5890.188782284206
0.476,-0.928681493492408,5897.767781702803
0.48,-0.7030545229981906,5892.994778230998
0.484,-0.46055131444381675,5909.621734001601
0.488,-0.24414534863881585,5888.834636218472
0.492,-0.08931535369190174,5895.166531096063
0.496,-0.01932370521715221,5894.707942835818
0.5,-0.04190862268922125,5897.012514706354
0.504,-0.14674025500249555,5889.298250586358
0.508,-0.30403478666643935,5884.951396382197
0.512,-0.4661284992081669,5906.413053042744
0.516,-0.5740371875741325,5901.377080117853
0.52,-0.5693727790300845,5901.233202375421
0.524,-0.40930703506468963,5893.709889472126
0.528,-0.08011030059928888,5899.611458765408
0.532,0.39549570051419,5894.418094502052
0.536,0.9599488733229175,5895.566543705455
0.54,1.5310089601957784,5901.224563060417
0.544,2.017479109975125,5895.872189783415
0.548,2.3367007027449818,5903.715576144136
0.552,2.4306611695773963,5895.82363845919
0.556,2.2781472000528575,5892.862422523247
0.56,1.9004092113564512,5893.174668050837
0.5640000000000001,1.3584708201946012,5901.220391204112
0.5680000000000001,0.7421085664828864,5899.2363106349485
0.5720000000000001,0.1524651618654067,5894.200065859453
0.5760000000000001,-0.3183790162345193,5888.610995492591
0.58,-0.6061706201424607,5898.189757782779
0.584,-0.6861407477625378,5900.598579742105
0.588,-0.573926370156724,5906.268673058375
0.592,-0.31640280792084613,5894.591387037668
0.596,0.022993076919314667,5904.799281157626
0.6,0.3786608117104892,5897.842989717527
0.604,0.692650263609292,5897.726669525133
0.608,0.9186353911958467,5901.424636905713
0.612,1.0222198826650082,5896.1875602473765
0.616,0.9816284863557707,5891.729859653628
0.62,0.7914441801091292,5893.254652327014
0.624,0.4682499537797403,5910.473649902473
0.628,0.05385854268851639,5892.487753235696
0.632,-0.38843729969449303,5899.191791499671
0.636,-0.7862299102733316,5903.314402385421
0.64,-1.0759302337711076,5896.1180516687855
0.644,-1.2196296323789793,5900.981590077066
0.648,-1.2144132939373442,5905.090658907758
0.652,-1.091364399302859,5893.084228903549
0.656,-0.9058181480598296,5902.138252971198
0.66,-0.7227765421439472,5902.503773419036
0.664,-0.601443966192241,5897.996694698333
0.668,-0.5818424215680239,5897.953009137414
0.672,-0.6757817107293718,5894.628877655665
0.676,-0.8642334380324895,5897.833316183558
0.68,-1.1022108528927808,5895.637621219075
0.684,-1.3299161814305531,5899.48020126669
0.6880000000000001,-1.4865298087580427,5900.993262390292
0.6920000000000001,-1.5226351901076842,5898.338994231621
0.6960000000000001,-1.4089920239686022,5894.472647364806
0.7000000000000001,-1.1411558580115753,5893.22166471275
0.704,-0.7398624198412891,5899.789177075666
0.708,-0.2469668101322224,5905.40171009277
0.712,0.2825197438295863,5901.342608266216
0.716,0.790302365316465,5895.770260397208
0.72,1.2239240633527708,5908.943632365442
0.724,1.5433072903136162,5901.958203958113
0.728,1.7243870206192011,5898.471972046461
0.732,1.7605543417230034,5906.291166533174
0.736,1.6627392768250195,5895.887700667368
0.74,1.4581325365612599,5884.611631651665
0.744,1.186572001010316,5901.205803944462
0.748,0.8939345444942343,5893.040903675035
0.752,0.6236646834796076,5901.665461175908
0.756,0.40912321921530487,5899.327167657405
0.76,0.26923988488637207,5901.1072866645645
0.764,0.20819856134426606,5895.667315572221
0.768,0.21789495792954902,5893.391162833229
0.772,0.2811462674091338,5904.781397948056
0.776,0.37453909290118254,5898.471409803205
0.78,0.47112471054663274,5896.873647658436
0.784,0.5434916993574118,5891.00745124936
0.788,0.5673383369591841,5909.680168558927
0.792,0.5256207064909337,5899.520669294964
0.796,0.41344665446899975,5895.101728833538
0.8,0.24285640707355635,5892.347662336285
0.804,0.044727984883427156,5888.526159834041
0.808,-0.13528672422498675,5895.212286836659
0.812,-0.24712591500376185,5906.6624665322015
0.8160000000000001,-0.24943293868572244,5897.613414320817
0.8200000000000001,-0.12031009655293327,5898.827583676992
0.8240000000000001,0.13765070216458664,5891.759438326951
0.8280000000000001,0.4983926700525818,5896.838286578969
0.8320000000000001,0.917855268276904,5898.739957372971
0.836,1.3419466570001712,5902.756583998012
0.84,1.7155812256416658,5896.13607509012
0.844,1.991628947911346,5895.174164876345
0.848,2.1384510095015856,5911.300838968297
0.852,2.144610783806297,5888.297015633009
0.856,2.0199315342230912,5898.796992600327
0.86,1.792856358502322,5893.763864249188
0.864,1.5042241654005752,5898.343734778876
0.868,1.1976696153012227,5891.623183714775
0.872,0.9082461347255134,5894.309921814854
0.876,0.6531090217133229,5901.33676985196
0.88,0.42872701082269377,5897.391584792461
0.884,0.2167002507121217,5905.821054367564
0.888,-0.0038235546475483976,5888.45366834279
0.892,-0.24256328746235986,5902.626066583594
0.896,-0.4898382813905079,5898.8071556751465
0.9,-0.7177593071023941,5895.499615296366
0.904,-0.8897659044446793,5893.950679064336
0.908,-0.972827630866083,5898.611899680045
0.912,-0.9466410417163524,5893.762502355926
0.916,-0.8079820343579286,5899.366427636891
0.92,-0.5715295672359878,5904.291307872263
0.924,-0.2687006490476025,5889.738629935364
0.928,0.055185873298978214,5887.95707010417
0.932,0.34612903744258794,5893.986792930282
0.936,0.5501818426170131,5907.036002584328
0.94,0.6257832518132613,5901.578017129393
0.944,0.5567237047819409,5904.392006773392
0.948,0.3600563594429789,5884.384275319982
0.952,0.08406746324230777,5902.682751444198
0.956,-0.20435279199866208,5890.507678095555
0.96,-0.438876273910855,5898.688264772794
0.964,-0.5725243974559128,5907.959778289605
0.968,-0.5892055536713906,5904.231667070631
0.972,-0.5043286614227523,5898.539538861842
0.976,-0.35573878554470084,5895.934961811796
0.98,-0.18984257461189527,5893.651794301556
0.984,-0.04835105203378099,5899.146072598083
0.988,0.040506122658671005,5897.32749326838
0.992,0.0647587447331588,5900.094227522744
0.996,0.026549620322441233,5911.44299569437
1.0,-0.06185539485593911,5899.993280917598
1.004,-0.18098124675893582,5899.236090065079
1.008,-0.30546439321504837,5901.71212224731
1.012,-0.4059259909245448,5894.186581021512
1.016,-0.45407739125235097,5902.342066569217
1.02,-0.4312432492797992,5908.475162599245
1.024,-0.3366035920814688,5905.036778630477
1.028,-0.18960420481612567,5899.521574257186
1.032,-0.023417949218211644,5900.173275901925
1.036,0.12831784760648446,5901.6720899978245
1.04,0.2449548075910895,5899.507555284173
1.044,0.3257072698249257,5902.772575468323
1.048,0.3869337876756751,5895.718922101208
1.052,0.45197189419478107,5898.817916350166
1.056,0.5390502867969391,5902.255653718108
1.06,0.6526060102862148,5902.958535360203
1.064,0.7804878245546207,5900.936773659239
1.068,0.8967316532438664,5900.997598195648
1.072,0.968420801384475,5897.413324106772
1.076,0.9648654051637469,5899.350984670603
1.08,0.8668319599724056,5901.317267376745
1.084,0.6731033114278084,5904.122531675768
1.088,0.40220666512415915,5896.956185426356
1.092,0.08869277240653137,5900.746778933791
1.096,-0.22502942286592229,5895.918926642049
1.1,-0.4990090393649334,5890.451750783245
1.104,-0.7048915466564702,5898.585653189015
1.108,-0.8305414215797595,5903.566564197877
1.112,-0.878815478079893,5900.462623601459
1.116,-0.862175894252727,5895.01813756686
1.12,-0.7963879842992406,5902.762666350339
1.124,-0.6955729576814499,5897.65753880201
1.128,-0.568873427728546,5894.700795738591
1.132,-0.41829610629422254,5900.688915295636
1.136,-0.23852186601961872,5893.3533444490895
1.14,-0.02051532251674619,5896.136311278492
1.144,0.24070915583081423,5904.937122558044
1.148,0.5372386212044722,5896.678848880463
1.152,0.8437429405928228,5892.184219743845
1.156,1.121387532709167,5903.312535784864
1.16,1.329545801765597,5898.6492926030105
1.164,1.4398440780108643,5898.405604246926
1.168,1.445887548191003,5900.080366492246
1.172,1.3649336468923443,5895.9822208887845
1.176,1.231961151919244,5892.577193545496
1.18,1.0893392988655872,5902.930937361929
1.184,0.9758582194309542,5894.949104996735
1.188,0.9177145984397793,5890.097596901075
1.192,0.9224453899974434,5894.649404811583
1.196,0.9763296747293349,5898.575595435374
1.2,1.0465171765704964,5892.772613588151
1.204,1.0892059362799922,5898.941038205881
1.208,1.0631791050590058,5899.598654142247
1.212,0.945059937604538,5894.294617148058
1.216,0.7410408825123936,5902.115958262417
1.22,0.490401138935144,5898.762073566551
1.224,0.25809694326442056,5885.811632046978
1.228,0.1166694796318163,5887.626673948697
1.232,0.12174820109706234,5903.023818383856
1.236,0.2893435480297149,5900.68698926598
1.24,0.5842335594510324,5893.4747020923405
1.244,0.9251934497965402,5907.0108434780495
1.248,1.205894917565392,5891.329461609714
1.252,1.3239904227094383,5905.40169902805
1.256,1.2085819048697777,5905.863865888735
1.26,0.8382220999836985,5900.496825476334
1.264,0.24568136015037204,5892.09445971252
1.268,-0.49026436611403607,5891.321086452209
1.272,-1.262763492100672,5894.104013454172
1.276,-1.9594503103762937,5890.226728474761
1.28,-2.4842093282665667,5886.938367867318
1.284,-2.7739602581194243,5895.233390352589
1.288,-2.808084681300131,5891.4167358764025
1.292,-2.6092068190177873,5899.382234666931
1.296,-2.2349466220035175,5893.191587861277
1.3,-1.7625493031856114,5897.233318717932
1.304,-1.2713038974622874,5899.258707121445
1.308,-0.8284510858450822,5896.787284395111
1.312,-0.48166688944857355,5891.613498499259
1.316,-0.2574540736051151,5893.219499857397
1.32,-0.16261202943596637,5902.824884303725
1.324,-0.18613023671234372,5903.273426667666
1.328,-0.30060422136787873,5896.889449630809
1.332,-0.4642403689013902,5897.892196104956
1.336,-0.6252356384562676,5894.54217923013
1.34,-0.7293268112985976,5898.804035211591
1.344,-0.7295172553976107,5892.574064483574
1.348,-0.5956177851804899,5900.538812282777
1.352,-0.3209160806809417,5898.039357244951
1.356,0.07595051114184823,5900.962585776867
1.36,0.5544100035934953,5897.214963074784
1.364,1.0596006270484613,5901.028468023847
1.368,1.5319453040247692,5903.367377512798
1.372,1.9158581575736724,5897.931236100579
1.376,2.165613854412304,5892.447574821447
1.38,2.2485399132830257,5896.836564818564
1.384,2.1477012716972252,5896.204300013642
1.388,1.866214867787157,5899.392117215654
1.392,1.4327862062826093,5893.607246743975
1.396,0.9046594943103471,5904.948992172303
1.4,0.3626540591478324,5894.202371178809
1.404,-0.10457730843073541,5902.497415019022
1.408,-0.42394819668181,5899.529982844068
1.412,-0.5602583475337165,5899.304211138626
1.416,-0.527934449650854,5893.172718190393
1.42,-0.38720111655878164,5899.54140720275
1.424,-0.225767436715507,5897.231803649956
1.428,-0.13174135522613822,5898.54492367576
1.432,-0.16630481420574772,5888.849294084479
1.436,-0.3453298476228545,5895.194788394257
1.44,-0.6362955808064094,5896.181868458626
1.444,-0.9710007229304054,5908.616782968897
1.448,-1.268687817232261,5907.094810726546
1.452,-1.461117555996881,5894.268041488742
1.456,-1.51133291739448,5892.627266363741
1.46,-1.4206210659841723,5890.550142429387
1.464,-1.222805786307543,5898.4873933134495
1.468,-0.9700178253090188,5906.11122043405
1.472,-0.7169695886178239,5897.734171051648
1.476,-0.5095705152874074,5889.330673801952
1.48,-0.37932213113122937,5890.454346999839
1.484,-0.34110552262475297,5897.150410381582
1.488,-0.3919636926326645,5894.120397309665
1.492,-0.5113772276008786,5904.469500542718
1.496,-0.6653616877512054,5898.003434691264
1.5,-0.8150338355968856,5901.901693441294
1.504,-0.9267896891895757,5898.105204679238
1.508,-0.979618256971136,5907.51042670803
1.512,-0.9668541862301515,5900.885564215825
1.516,-0.8930252056282547,5902.861505933159
1.52,-0.7688988156064426,5897.18746276771
1.524,-0.6082037495125592,5900.16255004404
1.528,-0.42762577415614467,5896.11636630237
1.532,-0.2484850883383576,5904.039629299949
1.536,-0.09638552420400867,5893.594894877015
1.54,0.003698978731574807,5901.862275386655
1.544,0.03559920196462922,5900.095474863766
1.548,-0.0009311740869586159,5891.852417006997
1.552,-0.08805744930750653,5902.081671705293
1.556,-0.19373619204723283,5898.605465558067
1.56,-0.28003873917467836,5901.174903070895
1.564,-0.313086840769051,5895.455769227476
1.568,-0.27185534035255304,5891.94899853781
1.572,-0.1540492727450074,5899.9474989007285
1.576,0.02194460878123492,5893.531602390357
1.58,0.2198128663177976,5911.161762483119
1.584,0.3929577873274447,5898.959124729859
1.588,0.495631453586032,5895.528243442036
1.592,0.49461413275169613,5896.164086510279
1.596,0.37812936166531014,5896.355133055215
1.6,0.15942203685711653,5894.876283856128
1.604,-0.12640121941211818,5894.686978759266
1.608,-0.43199942824943155,5896.805720443872
1.612,-0.7111820092980674,5900.059238509895
1.616,-0.9313534994374498,5895.851329616802
1.62,-1.0808736491130155,5895.8946831996
1.624,-1.1699341600157396,5901.083863217436
1.628,-1.2255297438474921,5899.560303750622
1.632,-1.2812134032342835,5890.511488848388
1.636,-1.362969120362083,5887.592325840172
1.64,-1.475243100104144,5902.964137468061
1.644,-1.5935463882090364,5898.397497713625
1.648,-1.6687337634208461,5899.403821126408
1.652,-1.6430468300318535,5896.7875303017645
1.656,-1.4723625391853847,5899.160875597471
1.66,-1.145814947198503,5895.205286336329
1.664,-0.6944523081764927,5900.040698002025
1.668,-0.1849638708397619,5896.463994475711
1.672,0.2988462577810641,5890.604475968987
1.676,0.6789498270765316,5887.244408090827
1.68,0.9019932331031046,5902.235096263513
1.684,0.9495623523939498,5896.711480706094
1.688,0.8392765302500558,5897.154078070976
1.692,0.6180853247640119,5894.610961333183
1.696,0.34965748392015683,5889.951799197955
1.7,0.09858713233278049,5906.659023078292
1.704,-0.08475152119071677,5891.641557072121
1.708,-0.17468185286759055,5895.823509751633
1.712,-0.17323372405861906,5902.648488163632
1.716,-0.10500676013624485,5900.624805894253
1.72,-0.005597128352632514,5903.530413350874
1.724,0.0924980932688882,5899.857127417228
1.728,0.17125482762379393,5901.285303080313
1.732,0.23116729149148532,5895.468512651432
1.736,0.28648192036904985,5893.105668062164
1.74,0.3545350675297104,5899.74401215148
1.744,0.4451423693973127,5895.941158121723
1.748,0.5555060187610396,5900.217148846095
1.752,0.6722958405057826,5901.538088274217
1.756,0.7780908980656647,5891.243966019363
1.76,0.8574844433001906,5896.20446891516
1.764,0.8998780419035438,5890.707433146566
1.768,0.899217816820101,5898.628239846351
1.772,0.8528361506088532,5901.38640273156
1.776,0.7613103817117219,5896.097319610777
1.78,0.6298191061298121,5897.241637765366
1.784,0.47013306480065237,5899.074190527652
1.788,0.3018103779840982,5902.727791816579
1.792,0.1512573377955044,5898.066325311665
1.796,0.047739930988002915,5896.986883291406
1.8,0.016454958896746166,5895.36712543264
1.804,0.07052625786991383,5892.766204882272
1.808,0.20511812302004254,5902.670399950591
1.812,0.39622449617295247,5899.9459176123855
1.816,0.6042946048901199,5887.685736438382
1.82,0.7807766058974511,5893.11744076311
