时间(s),电压(V),幅值(高频80K)
0.0,-3.5069051217722365,5895.669215810102
0.004,-2.7634649584506654,5895.879614453907
0.008,-2.141092411515423,5900.130771860784
0.012,-1.7162265929338025,5886.621206635064
0.016,-1.5034114702590384,5899.215580674074
0.02,-1.4572691598973662,5895.888719403087
0.024,-1.4944201396261272,5905.54828673765
0.028,-1.5238468819319746,5901.371760812979
0.032,-1.4740770765307023,5904.815906307999
0.036,-1.3098562212644527,5898.706453664332
0.04,-1.0360544007132593,5900.024659346463
0.044,-0.6904836713039568,5895.053011312656
0.048,-0.3297926790999398,5898.980254138042
0.052,-0.013553455550353762,5898.004383625157
0.056,0.20915904052906575,5892.732657111905
0.06,0.30846017039610263,5898.336779529376
0.064,0.2771940949061724,5910.608794190886
0.068,0.12946290580768346,5901.033106332519
0.072,-0.10528890333258803,5896.918436739436
0.076,-0.3903788800525756,5893.94367516895
0.08,-0.6882575052751099,5899.954447741722
0.084,-0.9624394331138294,5895.121029359999
0.088,-1.1763169566158722,5907.860160354819
0.092,-1.293218434095121,5908.237160825167
0.096,-1.280928648098506,5904.014082124713
0.1,-1.1196266584729349,5896.317697477038
0.104,-0.8090872063371215,5900.5488801773545
0.108,-0.37196097361382824,5896.426430222251
0.112,0.1467290749035034,5892.040530496329
0.116,0.6824705461582704,5903.372689544758
0.12,1.1573450512247025,5898.828963074565
0.124,1.4919825579783075,5897.660037745599
0.128,1.62331893798518,5897.945912600877
0.132,1.5223204001284416,5899.438053612326
0.136,1.2029693970906619,5894.675781495529
0.14,0.7174135216049358,5897.138957867675
0.144,0.13981838482568817,5901.282586874321
0.148,-0.45295204582255244,5897.308656487402
0.152,-0.9960151249481263,5898.5764451071855
0.156,-1.4429932493540991,5899.870862218399
0.16,-1.7649838534399056,5898.071748549496
0.164,-1.9451318610137476,5895.576075232685
0.168,-1.973338480252253,5896.406086992269
0.172,-1.8450510503650388,5899.97691661342
0.176,-1.5650886443040388,5910.843554210183
0.18,-1.1539760888031758,5905.314812566865
0.184,-0.6525536440690471,5916.189890037768
0.188,-0.12119820787873943,5911.143563708891
0.192,0.3679440711688738,5899.889905310464
0.196,0.7446905329559619,5902.985935332943
0.2,0.956936793737108,5899.914064526129
0.204,0.9837829667660207,5908.4649955995565
0.208,0.8405988950255707,5898.121692998124
0.212,0.5740847522867908,5903.487187251164
0.216,0.2497762167219942,5907.873483412891
0.22,-0.06301473560451501,5897.250500229485
0.224,-0.304755741374862,5899.653667764453
0.228,-0.4363695888659183,5899.087432965403
0.232,-0.44692081733382527,5902.9272577609145
0.236,-0.35693225938894313,5902.099105972975
0.24,-0.21431390260967642,5901.764671252607
0.244,-0.08097967929689774,5903.5639468748295
0.248,-0.012563029845604262,5899.856980893919
0.252,-0.03818302890002352,5897.067055038158
0.256,-0.1484218448917897,5901.671058669023
0.26,-0.29688731614516173,5904.736328914834
0.264,-0.4155903674068099,5892.396959623367
0.268,-0.43875394457910455,5902.314888267909
0.272,-0.3258521320932286,5898.314954131001
0.276,-0.07512424354300538,5909.382730948055
0.28,0.2763531684179174,5899.465817764929
0.284,0.6640651626487517,5897.887827465239
0.288,1.0136803170516733,5903.370714026923
0.292,1.259404329820203,5898.313798360701
0.296,1.358521728206306,5892.018684670345
0.3,1.2988995485603667,5893.52303193582
0.304,1.0982562170407335,5900.063495673486
0.308,0.7963466599191237,5902.14269780334
0.312,0.44299697795144954,5885.108006445949
0.316,0.08591701921355635,5903.489829005314
0.32,-0.23778506047460224,5903.53925781199
0.324,-0.5043178623429884,5898.312679031278
0.328,-0.7015690019933518,5907.310382471044
0.332,-0.8269294284901236,5891.442314072242
0.336,-0.8872513014574605,5904.912919044931
0.34,-0.9002631355711042,5897.928741650234
0.344,-0.8945670854767609,5907.247988664434
0.348,-0.9056772169935045,5902.390106133596
0.352,-0.9676579496074702,5898.610177036201
0.356,-1.1025157747573064,5904.39425027161
0.36,-1.3111172509448181,5892.388099070061
0.364,-1.569163849362987,5902.599137507424
0.368,-1.8303088924375908,5884.7754437395815
0.372,-2.036665874579516,5899.824888228958
0.376,-2.1344798515280896,5896.722381342586
0.38,-2.090132744234471,5905.038025910285
0.384,-1.9010323430891742,5895.410678814485
0.388,-1.5981175067127802,5903.3369309672735
0.392,-1.2397527068477936,5904.50910107764
0.396,-0.8987260047687338,5907.588214656849
0.4,-0.6451136622237751,5910.356105672337
0.404,-0.528723630362846,5904.742495056104
0.408,-0.5654252275833104,5902.325916838256
0.412,-0.7314012361321183,5905.344590239171
0.416,-0.9679504559239428,5896.771130327796
0.42,-1.1965917284805094,5905.587485583436
0.424,-1.3404979247889102,5906.742570230852
0.428,-1.3457042019703258,5901.94486506375
0.432,-1.1954079768617327,5899.791210762274
0.436,-0.9127588730093167,5897.007563062407
0.44,-0.5513031505017832,5893.253617551999
0.444,-0.17670889763130704,5903.147931312186
0.448,0.1536540845922695,5901.631406486999
0.452,0.40675531602213144,5894.075196539475
0.456,0.5812443087169417,5904.869507986863
0.46,0.7045726999675349,5904.256686533413
0.464,0.8210716493284171,5902.023490514358
0.468,0.9744119166834087,5899.494037806385
0.472,1.1893342293449458,5905.744362208811
0.476,1.4581098108007509,5895.124195332124
0.48,1.7367832824173017,5901.217768123674
0.484,1.954150637221546,5900.576199213315
0.488,2.032110108885855,5898.904053694407
0.492,1.9110267623601351,5894.240028037205
0.496,1.5712586424686894,5905.094963232876
0.5,1.04365693252132,5898.952853904112
0.504,0.4060735534042801,5901.460551353466
0.508,-0.2329868934294035,5904.1433765519305
0.512,-0.7594508815712432,5902.464650759177
0.516,-1.0811861183612543,5902.9930613016895
0.52,-1.1503835252178807,5903.899901939519
0.524,-0.9739489156155107,5896.366039069143
0.528,-0.6084999540777921,5897.169499132705
0.532,-0.1419646321780678,5899.587667826483
0.536,0.33159829764111465,5903.37943371512
0.54,0.7357386196483434,5900.066608348669
0.544,1.027055608858355,5901.000704880554
0.548,1.1986761908552592,5898.351098315922
0.552,1.2721830647205234,5899.753920297238
0.556,1.282150796876969,5898.549458439202
0.56,1.2596398119730188,5904.1363251652365
0.5640000000000001,1.2211064350280671,5906.356196928922
0.5680000000000001,1.1669590925826527,5893.147948359288
0.5720000000000001,1.0895246369806542,5888.773911101954
0.5760000000000001,0.9852853632733428,5911.128344900224
0.58,0.8642167327317405,5898.161394600737
0.584,0.7515798966363877,5896.205198494705
0.588,0.6823318780143518,5905.205500244002
0.592,0.6915278643092143,5911.185414720979
0.596,0.8043128910589363,5895.866193190834
0.6,1.0277827510904622,5901.511562633035
0.604,1.3459283500135455,5900.731160919973
0.608,1.7188284470242448,5905.962648412758
0.612,2.087591645821786,5905.768009916511
0.616,2.385592181979248,5892.800906495173
0.62,2.5537534031505396,5898.482583703044
0.624,2.554939041527869,5896.683690352684
0.628,2.382253935019834,5900.970409941946
0.632,2.058586252306091,5901.649092415141
0.636,1.6285274891050212,5900.626227254736
0.64,1.1466646645831828,5907.213183158734
0.644,0.6664160725178421,5906.497560548846
0.648,0.2313876226736268,5901.02413263444
0.652,-0.13083684992950526,5897.873698479982
0.656,-0.4124035807006495,5903.081561218321
0.66,-0.6247012740495037,5896.914116369285
0.664,-0.7916180446576587,5894.414076554537
0.668,-0.9370251256832869,5900.477249522234
0.672,-1.0708729860925117,5895.7327344251935
0.676,-1.180186944391631,5907.391981629796
0.68,-1.2296419218009194,5899.133628937061
0.684,-1.172698417554313,5899.899024701516
0.6880000000000001,-0.9703022450952156,5903.997649506903
0.6920000000000001,-0.6107494659506953,5904.671516405611
0.6960000000000001,-0.12270747107180917,5902.625172381312
0.7000000000000001,0.42490367229983433,5898.592082682286
0.704,0.9376468324185019,5890.416549406979
0.708,1.3208157384311798,5901.730590533329
0.712,1.5071485279270216,5901.708377149275
0.716,1.4776841069664244,5900.381962956026
0.72,1.2680156722860165,5897.225438647759
0.724,0.9566739103324379,5900.024318324346
0.728,0.638938622518852,5901.863357926529
0.732,0.39545480566701563,5903.677076899021
0.736,0.2673150160186489,5901.586320774784
0.74,0.24631599885625644,5900.217295312544
0.744,0.2826913737334751,5888.879785851615
0.748,0.306318703609249,5896.344096883663
0.752,0.253717568712113,5900.771160621275
0.756,0.09220771857792087,5898.106263420255
0.76,-0.16662179564893992,5898.632020132959
0.764,-0.46935890310977907,5901.000958577281
0.768,-0.7390084345502276,5903.732262162621
0.772,-0.9021290458626586,5900.930008295843
0.776,-0.9138669575407617,5904.39954012809
0.78,-0.7715435767403157,5905.512079793095
0.784,-0.5135833106064743,5905.326707643706
0.788,-0.20684466700460896,5908.421620845118
0.792,0.07154451457444026,5908.217229152417
0.796,0.2522027165780854,5906.160046367036
0.8,0.2877742979233172,5902.783296883079
0.804,0.16172038622757187,5900.579097942897
0.808,-0.109084444712365,5901.060343040259
0.812,-0.47789346445398173,5905.52118332635
0.8160000000000001,-0.8766521487493124,5897.98398696196
0.8200000000000001,-1.2274597239032479,5893.750380966128
0.8240000000000001,-1.4549474547916708,5900.265933397794
0.8280000000000001,-1.4989471913737968,5901.019702184384
0.8320000000000001,-1.327300618520826,5897.662544665837
0.836,-0.946707640513169,5900.775738889686
0.84,-0.4072156665534425,5906.876206123286
0.844,0.20341379296983816,5896.563554977552
0.848,0.775736874164497,5903.073816896109
0.852,1.2016423524618611,5904.227583303644
0.856,1.3987471182176305,5902.327548016302
0.86,1.3302723554286802,5896.2142512254495
0.864,1.0158700582558338,5912.032300720424
0.868,0.530690566903811,5906.969460869537
0.872,-0.008647809416641037,5903.267167128136
0.876,-0.4704783885433349,5911.47660873557
0.88,-0.7421206106919185,5904.421379419672
0.884,-0.7620226429045979,5904.655398467032
0.888,-0.5385890986870357,5896.005557745485
0.892,-0.1476072257672732,5900.49383599896
0.896,0.2920566197652573,5909.242064590804
0.9,0.6562990947435973,5903.231124844047
0.904,0.8538174720222051,5896.383104323237
0.908,0.8513628412605211,5897.0031437052985
0.912,0.6784442771392795,5904.493483725336
0.916,0.41137122607185866,5896.818349413578
0.92,0.14375579380603534,5901.012370895949
0.924,-0.0451800929088467,5900.786963808746
0.928,-0.11340558372825557,5909.2498118138
0.932,-0.06343166641670529,5895.464505343336
0.936,0.06540768281347052,5907.599797301219
0.94,0.21359268014839286,5901.233070670735
0.944,0.31963275386241957,5901.047996778372
0.948,0.33536682211033586,5898.129817633359
0.952,0.23665376761051332,5892.789232141483
0.956,0.028285927383458,5902.625059929272
0.96,-0.25796615019250363,5910.587141205864
0.964,-0.5716426643296733,5899.120509587356
0.968,-0.8554352835312536,5896.794318405145
0.972,-1.057051086209181,5903.028010261007
0.976,-1.138611751563664,5907.286968094799
0.98,-1.0825443450170154,5904.713517794409
0.984,-0.8939181623456522,5904.146234802129
0.988,-0.5998019960229514,5902.609812818935
0.992,-0.2464102228347851,5903.991155651824
0.996,0.10562184911486648,5907.733214835231
1.0,0.38841651001541416,5901.171950086265
1.004,0.5376899076158301,5908.273363526781
1.008,0.5073252608957066,5903.3039285657
1.012,0.2845380285702822,5904.431318293697
1.016,-0.10048628003473559,5904.212175084563
1.02,-0.5762981898359497,5904.867860903133
1.024,-1.0451255212152875,5899.511881542242
1.028,-1.407610167162675,5907.24065783485
1.032,-1.5896163720779777,5896.19517488234
1.036,-1.5619204229249184,5900.706201942034
1.04,-1.3458349520720219,5897.344940547851
1.044,-1.0030932297642727,5891.597104252493
1.048,-0.6143554802484184,5895.615933428252
1.052,-0.2547045038932306,5898.536741504784
1.056,0.025347538723849386,5899.623293095187
1.06,0.2081458669035135,5897.259931629503
1.064,0.30588731043816453,5902.640373710597
1.068,0.34943664565631516,5911.777034785879
1.072,0.37396907510317073,5899.65150788605
1.076,0.40656229221798207,5905.907308558244
1.08,0.4593493572561794,5904.475419289576
1.084,0.5290060298029899,5899.118970892962
1.088,0.6005334940538953,5891.010302428399
1.092,0.6526261338524108,5910.672223139618
1.096,0.6636281926875494,5889.94718664347
1.1,0.6182617881748196,5899.857207194618
1.104,0.51375376526834,5903.391396754556
1.108,0.3619784663139749,5904.233097265338
1.112,0.18536214188586,5888.283629947448
1.116,0.00818566947893268,5902.432741346683
1.12,-0.15210574161455004,5900.456328051099
1.124,-0.2892745738431954,5906.6246390348415
1.128,-0.4068458682293724,5896.52137691371
1.132,-0.5126185716533777,5903.76899444687
1.136,-0.6127870666530191,5894.532981688431
1.14,-0.7086740844202485,5893.962506663528
1.144,-0.7964921018895635,5910.995691520908
1.148,-0.8683599652337511,5899.776887457392
1.152,-0.9127857259906371,5903.902356979308
1.156,-0.9145666832774623,5900.632528144537
1.16,-0.8557874101480383,5898.123862564048
1.164,-0.7198583804311025,5904.407081389905
1.168,-0.4989921386333367,5899.749036078429
1.172,-0.2029185770263523,5890.9028707487005
1.176,0.13551381672810767,5906.036453474626
1.18,0.46230313314022065,5892.72296168791
1.184,0.7135568506398121,5904.186228558092
1.188,0.8331420436559648,5904.714629444116
1.192,0.7897151405261901,5893.116912008065
1.196,0.5855567840861671,5908.031515388843
1.2,0.25390046788649057,5906.480821993967
1.204,-0.1522648489905763,5899.326073172978
1.208,-0.5737937802033604,5897.278404887394
1.212,-0.9569607363934057,5899.372916040697
1.216,-1.2618131330210474,5896.930562695682
1.22,-1.4675314401330268,5900.466321953751
1.224,-1.574429248182341,5902.679717794461
1.228,-1.6010361180068813,5895.382514275409
1.232,-1.5749189424066026,5900.51323036379
1.236,-1.518942461061726,5903.72009762913
1.24,-1.4388342532907223,5905.025125300205
1.244,-1.318941132347556,5902.739592657422
1.248,-1.1290893775097712,5905.200493390688
1.252,-0.8394469858384743,5898.363770652862
1.256,-0.43653824319733914,5899.000653786027
1.26,0.06618536956305561,5911.632922604538
1.264,0.6267664292647165,5900.551044484573
1.268,1.18225106627535,5899.515123780005
1.272,1.6629293988866962,5911.353778824348
1.276,2.0092474935090943,5896.62678698014
1.28,2.1863301487432514,5901.868830666303
1.284,2.1917800596259363,5898.724255810966
1.288,2.055029012788098,5908.486950190702
1.292,1.8294181492122448,5888.465450903324
1.296,1.5797183854409136,5904.76049784633
1.3,1.3676669638080512,5900.945404633367
1.304,1.237508725756783,5916.643430201416
1.308,1.2041387136441644,5904.935700978349
1.312,1.247977663278761,5907.37962908899
1.316,1.3204582904240725,5916.4824517512825
1.32,1.3601373807686183,5907.224036391927
1.324,1.313972047412799,5897.567964416683
1.328,1.1551936905346234,5903.632034381067
1.332,0.890617255294804,5901.975775120348
1.336,0.5552207476498291,5911.243784337221
1.34,0.19768454593138593,5894.070184746004
1.344,-0.1358470131355199,5899.649552165199
1.348,-0.4131714627971138,5897.695736395769
1.352,-0.6198498677153528,5908.5221891101
1.356,-0.7564352656486003,5900.4916388868905
1.36,-0.8316706194831637,5896.744163958479
1.364,-0.8544505882868985,5904.040163973834
1.368,-0.8274412441024498,5901.710493201054
1.372,-0.7448461890878892,5908.413477334935
1.376,-0.5951544618208692,5898.77263311783
1.38,-0.3673696141248873,5908.824588288017
1.384,-0.057820047082057624,5902.928646062751
1.388,0.32496806516381416,5905.957515161413
1.392,0.7585615486444688,5904.728299753444
1.396,1.2082394225332524,5894.7250585466745
1.4,1.6313042894951406,5902.147812684811
1.404,1.982733690454113,5899.697289072238
1.408,2.220883235157232,5910.992377145171
1.412,2.31311657522471,5906.256525765877
1.416,2.241985202462538,5893.512612377544
1.42,2.0112951784687687,5898.512833456819
1.424,1.6491721545240068,5900.756240654245
1.428,1.2048802156384806,5908.021082978165
1.432,0.7385901585530381,5898.082966902958
1.436,0.3068001230434598,5907.044284593166
1.44,-0.05144028287867894,5909.9636951187695
1.444,-0.3220785319965906,5902.230575028875
1.448,-0.5141114723505977,5905.350961570564
1.452,-0.6488995412152826,5906.685803318896
1.456,-0.74572339015275,5907.918347962942
1.46,-0.8105292935440427,5903.795765943193
1.464,-0.8330087155808023,5901.499901303205
1.468,-0.792665571054359,5903.2523684306425
1.472,-0.670273782716994,5897.696868984932
1.476,-0.4593255670639975,5901.956108825229
1.48,-0.1727523945817947,5903.966905775006
1.484,0.15779242679523525,5896.00662728997
1.488,0.49019871652247077,5900.164649719336
1.492,0.784725072765999,5896.864441335059
1.496,1.0155777055675803,5900.632883576627
1.5,1.1751294469727458,5901.808421456367
1.504,1.2685953025081376,5902.361314582819
1.508,1.3032810393367422,5900.926340873811
1.512,1.2803847259455454,5896.36431828535
1.516,1.195449916956291,5895.567275169059
1.52,1.047282980348568,5900.143657199762
1.524,0.849170902802091,5905.24423138252
1.528,0.63459347267084,5892.426037102513
1.532,0.4527440055890433,5895.672678350033
1.536,0.3545470431286963,5894.499477771871
1.54,0.37462076921757953,5898.205370517973
1.544,0.5168650781477871,5896.1986128361605
1.548,0.7499927173256368,5895.063051002574
1.552,1.0147877752474537,5901.940295416316
1.556,1.239855660251017,5902.161721164395
1.56,1.3601334321907477,5903.746234058039
1.564,1.33294574239198,5904.867781529656
1.568,1.1482053161132895,5909.992158450144
1.572,0.8310562263083825,5908.490250403217
1.576,0.4367327684000351,5901.097690057767
1.58,0.03887787789449864,5903.303237009326
1.584,-0.2862852969123192,5898.737099756388
1.588,-0.47699356761277,5897.315518531257
1.592,-0.5008490616184118,5910.006020097526
1.596,-0.3637282621141214,5901.190954569735
1.6,-0.10930342760017091,5902.035358505729
1.604,0.19175207542745612,5898.624977037512
1.608,0.46020484864790157,5891.055007872245
1.612,0.6289168120246984,5903.999034350873
1.616,0.6596513715894848,5898.681524487729
1.62,0.5514817892193338,5903.300148234159
1.624,0.33905997781407254,5907.264213563297
1.628,0.08208086066438125,5900.894264327294
1.632,-0.15031031000417497,5909.513943262725
1.636,-0.29560183034332344,5884.390967416481
1.64,-0.31097202503409027,5895.206648297884
1.644,-0.18170191184947357,5907.813850672953
1.648,0.07538596909127784,5902.61189598795
1.652,0.41368208045635846,5901.871111972707
1.656,0.7643305253326362,5900.400751437485
1.66,1.0498449611563914,5901.971141796227
1.664,1.2024504928264157,5905.8043272740015
1.668,1.1832584552647747,5909.715722251406
1.672,0.9964207189832591,5903.846002845737
1.676,0.692544594656194,5910.221439046511
1.68,0.35831924336563326,5902.016772334692
1.684,0.09393314346165205,5902.943098519372
1.688,-0.015078533641369274,5895.833634615167
1.692,0.07793763054140969,5903.8740942077375
1.696,0.36848983819828307,5901.611740773984
1.7,0.8036834535351784,5902.891059994052
1.704,1.2975628015702874,5893.777794799053
1.708,1.753311108683808,5900.535551583446
1.712,2.08586515082446,5903.943620771208
1.716,2.2396758328611512,5904.9807715397765
1.72,2.19835891597784,5904.289507802194
1.724,1.9849498779912906,5904.989022530671
1.728,1.6531495175338773,5899.776470538851
1.732,1.271693374922685,5904.525402614199
1.736,0.9058983782441389,5904.558360887924
1.74,0.6017372200515254,5910.531290709539
1.744,0.37732588775797926,5901.767754814001
1.748,0.22417408463834976,5905.371453395609
1.752,0.11694341398754719,5895.604188283126
1.756,0.0274630973709677,5904.827059909409
1.76,-0.062290911973658505,5897.1924711458205
1.764,-0.152591818881169,5902.331807097424
1.768,-0.2262169155678458,5894.785802914074
1.772,-0.25685783461627204,5908.96042604162
1.776,-0.22314661131731858,5898.132225994092
1.78,-0.12296663763377812,5899.192618085253
1.784,0.018169782970956255,5897.941408118306
1.788,0.14917409423347774,5904.543519562753
1.792,0.20708609332590502,5905.933004589461
1.796,0.1397308810783656,5900.561671815599
1.8,-0.06969322658315986,5903.015179779952
1.804,-0.38634220164090505,5899.865959014034
1.808,-0.7251255775671817,5898.856007889062
1.812,-0.9727983370299681,5896.269009556838
1.816,-1.0245298793089659,5894.580018732375
1.82,-0.8212164459181944,5898.388583528264
1.824,-0.37210224392491503,5910.106201810962
