时间(s),电压(V),幅值(高频80K)
0.0,1.5672946948296462,5905.844734773982
0.004,1.0608260198861952,5905.397133084031
0.008,0.5924108200931464,5904.296800081294
0.012,0.19324379873672648,5897.917282860184
0.016,-0.1226806661812204,5895.945648569624
0.02,-0.3585775836901079,5895.434189397829
0.024,-0.5282658839331381,5889.981884248987
0.028,-0.6453773132449743,5897.442692578488
0.032,-0.7139313365176112,5909.641355198448
0.036,-0.7251441850414561,5898.151332979188
0.04,-0.661231707389095,5894.806787113182
0.044,-0.5035285255188878,5902.525706650434
0.048,-0.2420241009932088,5898.382953148342
0.052,0.11549962465817969,5909.883163711218
0.056,0.5370702732414735,5901.842769420163
0.06,0.9666646948603285,5891.789422632711
0.064,1.3336776721361918,5903.094041050224
0.068,1.5700338718706546,5896.928933839277
0.072,1.6286218641025894,5893.958108553806
0.076,1.4958373298756784,5901.86622259666
0.08,1.1942612606798286,5895.833637695992
0.084,0.775951181731373,5896.428848074128
0.088,0.30965016529358796,5896.565337230901
0.092,-0.1340318043702171,5889.56813686189
0.096,-0.49572286654419956,5903.103746480817
0.1,-0.7358651733571643,5897.007387462815
0.104,-0.8376455752546899,5912.23355162902
0.108,-0.8051637499666682,5901.730579898277
0.112,-0.6589353435842895,5894.523711268566
0.116,-0.4305658239965854,5899.6371095350805
0.12,-0.15709634394775437,5906.19729634102
0.124,0.12525317565481242,5893.486408492093
0.128,0.38713024024994513,5897.938400668701
0.132,0.6093661998722586,5896.900289440804
0.136,0.7815572910440224,5904.7950531198985
0.14,0.8971711861617409,5911.680914272914
0.144,0.9493240087626819,5890.463971630249
0.148,0.9306165085137083,5896.99289699582
0.152,0.8366045390095911,5905.1583579630005
0.156,0.6693519981730511,5902.173499821893
0.16,0.4377738700080003,5889.560068376899
0.164,0.15443110688888845,5905.747683337303
0.168,-0.16846724511795527,5903.554229013089
0.172,-0.5202011839995201,5909.355445344209
0.176,-0.8884473615276521,5904.684931557781
0.18,-1.2543114360712477,5899.140686667603
0.184,-1.5894579695941942,5893.742594529616
0.188,-1.8576539264331366,5900.353068192801
0.192,-2.0203959722028486,5896.040768939268
0.196,-2.044642239339931,5897.066398734582
0.2,-1.9100185853695757,5895.602012346249
0.204,-1.6132559949590202,5896.529635539949
0.208,-1.1692910979484732,5894.940563954993
0.212,-0.6101650469930506,5897.10862870934
0.216,0.017205050852339074,5904.943407603299
0.22,0.6547831591368599,5906.552406412424
0.224,1.2397234094467378,5894.612500627271
0.228,1.7129666756591089,5906.9100069769775
0.232,2.0282811042601545,5905.747033246196
0.236,2.1598728238020457,5901.584558087329
0.24,2.1076596775959215,5901.471259625407
0.244,1.8995154416695792,5902.868963292947
0.248,1.5891292817524432,5899.6484490858
0.252,1.248215857432597,5894.058481805778
0.256,0.9536117723060026,5896.348613137888
0.26,0.772205778110358,5900.362532572425
0.264,0.7477826764867579,5893.789445715348
0.268,0.892917404836259,5901.766534163115
0.272,1.1869277394477742,5895.818251849393
0.276,1.5793134755057894,5909.566651617636
0.28,1.9978011625575343,5904.017450205174
0.284,2.359975093226563,5905.191017569653
0.288,2.5866470092154126,5892.964501273328
0.292,2.6147262623815015,5900.454438350108
0.296,2.4082634362970903,5898.956321649228
0.3,1.967016769325027,5907.261717336754
0.304,1.3310124793601745,5897.598022639075
0.308,0.5785468471345423,5905.811714358353
0.312,-0.18426159790407942,5895.373505350308
0.316,-0.8420182650056163,5904.702460521524
0.32,-1.2934643002608919,5901.211523294821
0.324,-1.4740089839228017,5900.001941299989
0.328,-1.3710396030558545,5894.773707489332
0.332,-1.0277666011608133,5902.755460426089
0.336,-0.5347224868648263,5905.472143274718
0.34,-0.010805462705163858,5904.678749912612
0.344,0.42221791754030397,5892.1205094195375
0.348,0.6662429622226437,5902.116694239951
0.352,0.6681038483150712,5899.367539992173
0.356,0.4298125454501749,5895.844761742585
0.36,0.004524338476360202,5904.138600241811
0.364,-0.520090191695712,5905.046276370663
0.368,-1.044659077711964,5908.756152721607
0.372,-1.4796722493518295,5895.777957650227
0.376,-1.760811309176228,5899.486307230695
0.38,-1.8560939611637146,5905.991518851749
0.384,-1.7652961154243445,5897.0483435502765
0.388,-1.5141886611974844,5901.163260171982
0.392,-1.1469303137172748,5900.492260645202
0.396,-0.7184193991421427,5890.458760824001
0.4,-0.2860122054147185,5899.383409257616
0.404,0.10032512365760157,5894.044606842583
0.408,0.40800299799829237,5898.338886710475
0.412,0.6279673830259299,5903.431478350316
0.416,0.7733146297457126,5900.6240895880055
0.42,0.8699988111508242,5895.777738306521
0.424,0.9431429043908839,5896.653589707435
0.428,1.0043752874032954,5894.311110011681
0.432,1.0453149625273985,5897.73837402595
0.436,1.0402994153641578,5906.098650217603
0.44,0.9577637093218517,5904.84101307446
0.444,0.7756172557166733,5899.358255900416
0.448,0.4940076884566813,5894.369355259939
0.452,0.14012782186556794,5899.582074387318
0.456,-0.23680895436074284,5904.175977548458
0.46,-0.5782253052171282,5898.007177514806
0.464,-0.8311321996230823,5904.0125685415405
0.468,-0.9596505252493766,5909.644541101927
0.472,-0.9502520790849635,5903.196493068819
0.476,-0.8114239975142283,5895.46257074909
0.48,-0.5696819680166639,5893.18174185821
0.484,-0.2632704249092379,5904.164761380227
0.488,0.0653453097430509,5893.894361419797
0.492,0.37707921637603126,5889.160947050596
0.496,0.6433332072631878,5909.801293625264
0.5,0.8518214803995703,5897.710415173897
0.504,1.0086949672599552,5902.561865791189
0.508,1.1340343920668008,5900.800627356392
0.512,1.250543023042527,5903.283705810904
0.516,1.3695746956466823,5893.504286769849
0.52,1.481050815039052,5908.748941354514
0.524,1.552788892923935,5894.3278618768045
0.528,1.5410652228660287,5895.758870381001
0.532,1.4096454717279268,5899.089665316127
0.536,1.1506166303207013,5903.40926630287
0.54,0.7983635436975743,5894.866548250045
0.544,0.4292205919337635,5907.056337803075
0.548,0.1442215636279288,5890.556855985452
0.552,0.03933356548719804,5898.060157955643
0.556,0.17325009571626931,5896.119634547609
0.56,0.5444696626983897,5890.444281370799
0.5640000000000001,1.0864174771402224,5901.251063564692
0.5680000000000001,1.6831180238598684,5899.68995368017
0.5720000000000001,2.2007059385682144,5889.781531383134
0.5760000000000001,2.524501167656521,5904.3390589817445
0.58,2.5895931953048104,5894.422236143573
0.584,2.3954323661451995,5906.162909750482
0.588,2.0005826361076093,5900.054507838777
0.592,1.500517302376132,5894.171718867763
0.596,0.9971342024686892,5892.418662182679
0.6,0.5713129835901087,5895.950460325239
0.604,0.26749316323790706,5894.241758167146
0.608,0.09285960629876458,5897.535357577964
0.612,0.0273978794808059,5902.484384857297
0.616,0.03836963322218415,5900.836006872933
0.62,0.09361799075781692,5901.978086872193
0.624,0.1703707275867,5899.450875042135
0.628,0.25835053145748904,5896.17084524542
0.632,0.35779406790087986,5899.288792222086
0.636,0.47442001442741083,5896.696746135174
0.64,0.6140106174825397,5885.719237370007
0.644,0.7787099020522198,5893.505814119784
0.648,0.9657488288733423,5906.8671908348815
0.652,1.1678824314986267,5896.142267396574
0.656,1.3741137034130937,5896.950889602972
0.66,1.5696779592482464,5899.991114177151
0.664,1.7354284471597914,5894.044884725049
0.668,1.8477742267752844,5893.512259109428
0.672,1.8804483263142604,5901.743358888276
0.676,1.808498467738939,5905.858459174288
0.68,1.6135909791395011,5900.633858557454
0.684,1.2891761502995118,5886.481034744333
0.6880000000000001,0.8446061360761568,5901.05379586561
0.6920000000000001,0.30764921963904535,5902.1202898117
0.6960000000000001,-0.2757008394934109,5901.860717378514
0.7000000000000001,-0.8454059391795277,5899.67412892738
0.704,-1.3357510517244535,5900.945483079162
0.708,-1.6867493887346845,5891.980888844269
0.712,-1.856787588117954,5897.188729043142
0.716,-1.8340885954718726,5899.956515521548
0.72,-1.6433349159992232,5891.195214605774
0.724,-1.343300908464573,5898.421884884652
0.728,-1.0136786788143397,5908.627931886503
0.732,-0.7340830389262157,5898.232379720309
0.736,-0.562247624142002,5898.690980405563
0.74,-0.5189637688446196,5901.57701274478
0.744,-0.5846699394711118,5894.639367848405
0.748,-0.7086286281718163,5890.52424687118
0.752,-0.8275732243257757,5896.435082505588
0.756,-0.8874540142910734,5891.859028629651
0.76,-0.8606106113240846,5898.354206305468
0.764,-0.7521598116132338,5898.433551270536
0.768,-0.593629161428611,5895.933706360606
0.772,-0.42755619293030034,5899.29804163278
0.776,-0.29076714099892553,5898.547622262447
0.78,-0.20356346264031472,5904.142815067689
0.784,-0.16782535678693522,5901.761852381229
0.788,-0.172462895849652,5902.464510732765
0.792,-0.20192484900321223,5897.514416193305
0.796,-0.24294828283855416,5901.860476412056
0.8,-0.28657680059507357,5900.243830461952
0.804,-0.32604321067502917,5910.339991876079
0.808,-0.35394815386260137,5893.3214546718455
0.812,-0.36219805349796835,5894.312388877819
0.8160000000000001,-0.3456648036003958,5899.677812734272
0.8200000000000001,-0.3073259365912934,5893.454493302384
0.8240000000000001,-0.26069802829971617,5895.365759422826
0.8280000000000001,-0.22600728133981854,5893.2570317308655
0.8320000000000001,-0.22000566214133638,5890.405332571017
0.836,-0.24413356598007188,5885.253358614372
0.84,-0.27839306695997273,5903.00228415627
0.844,-0.28596454902271273,5900.777805954461
0.848,-0.2275138861453702,5890.327922736574
0.852,-0.0788668051720227,5900.124834765367
0.856,0.1555257351916351,5901.30843931022
0.86,0.43864125098522133,5895.709889504142
0.864,0.7081216824572817,5898.332982159769
0.868,0.8928518208234051,5893.418372581171
0.872,0.9343689733782368,5898.05139133387
0.876,0.806913765083016,5903.593814911067
0.88,0.5294071521104723,5897.455388374678
0.884,0.16408151681601932,5896.295567040517
0.888,-0.19942787201178444,5906.104329103463
0.892,-0.47011535686976924,5897.382398365797
0.896,-0.5830033171505306,5904.356412196372
0.9,-0.518555261891891,5894.705072176536
0.904,-0.308065243576266,5897.051793918937
0.908,-0.023999291111898982,5893.100964803342
0.912,0.2414506798593958,5902.911452684586
0.916,0.4036401744729699,5896.083615020601
0.92,0.411167574821539,5899.706373377354
0.924,0.2623217206506309,5899.457271323318
0.928,0.006432791858983617,5901.305238875599
0.932,-0.271077051688515,5905.233298652584
0.936,-0.47523969726583626,5903.639464491528
0.94,-0.5310470876716509,5893.973500068316
0.944,-0.4068292365135475,5897.055903304428
0.948,-0.1244727133891266,5894.079986675703
0.952,0.24689805437200385,5897.803533891818
0.956,0.6120948819780159,5889.32573593451
0.96,0.8789984132228246,5894.813280777892
0.964,0.9858119000085591,5898.956373281726
0.968,0.917495533586418,5888.450612067008
0.972,0.706673617590705,5899.576535421492
0.976,0.4200530180238511,5896.240678864665
0.98,0.13638002747774006,5901.008078091236
0.984,-0.07603432510482298,5894.896838889575
0.988,-0.17581863161236969,5901.249116595149
0.992,-0.1560460503105281,5894.167996929582
0.996,-0.04261030538756322,5895.260062930145
1.0,0.11471061084574659,5899.052286481745
1.004,0.2555688340494689,5907.487368086934
1.008,0.32367330065242417,5898.225901207838
1.012,0.280017778949556,5905.518623222277
1.016,0.11212468166621418,5901.8328603013815
1.02,-0.1629682767669529,5902.328752459948
1.024,-0.503024834652031,5898.198303538081
1.028,-0.8514141620277942,5897.620756041444
1.032,-1.1516259076769044,5904.280011882063
1.036,-1.3609832795353558,5907.2222203282045
1.04,-1.4586561773826887,5886.113150735957
1.044,-1.445386682413044,5900.707469593384
1.048,-1.3365519962317964,5901.508151003989
1.052,-1.153306928407802,5896.096579225245
1.056,-0.9163923448553003,5902.676516975576
1.06,-0.6444768223075026,5896.313124324607
1.064,-0.3559073374312995,5903.868431553877
1.068,-0.0713104529240159,5892.973202254595
1.072,0.18485800055141485,5899.572501845625
1.076,0.38423580026346754,5903.759183039014
1.08,0.49604870383866856,5896.83126173012
1.084,0.491038561515114,5899.406272279289
1.088,0.3485284079969157,5894.396771405719
1.092,0.0654912575830261,5897.035466242372
1.096,-0.3356684219075931,5900.189306121162
1.1,-0.8047034472585103,5902.478190589475
1.104,-1.269094350712894,5897.42536513665
1.108,-1.646977790194147,5898.032242704633
1.112,-1.8639085664981558,5893.840607191287
1.116,-1.869274004041288,5904.6320428676
1.12,-1.6492397004519543,5908.334877537512
1.124,-1.2336967455069903,5895.095719342169
1.128,-0.6942656606073161,5897.974390311541
1.132,-0.13119691558418006,5906.58683394183
1.136,0.3493113698999208,5902.4565006901885
1.14,0.6611027561737846,5896.738288606962
1.144,0.758832932696699,5895.885923892635
1.148,0.6467379584847687,5899.87799800189
1.152,0.3729700861018,5892.067214132246
1.156,0.011974257675500316,5890.630224740035
1.16,-0.3586018600377451,5905.887327944703
1.164,-0.6782603028488807,5896.417964229021
1.168,-0.9148481999411667,5895.677712733095
1.172,-1.064648149850889,5897.415767709384
1.176,-1.1438641917770163,5902.329493086841
1.18,-1.1764660102344937,5894.640299148607
1.184,-1.1836439831299976,5906.05093251893
1.188,-1.178346019100727,5896.921934877329
1.192,-1.1649318825353834,5896.540578478438
1.196,-1.1410624456887803,5893.428325398476
1.2,-1.0990457866058776,5896.919903581518
1.204,-1.0266303791627256,5900.563994039095
1.208,-0.909499129796268,5896.680191896624
1.212,-0.7370173989364383,5903.234553817943
1.216,-0.509767931415858,5893.454890831317
1.22,-0.24471381587138222,5896.9775636605045
1.224,0.026215660322235254,5901.628460879135
1.228,0.2651100201516847,5906.233528141465
1.232,0.4408398745581788,5897.2962976272265
1.236,0.5388675204488677,5894.178267879203
1.24,0.5630069375148485,5900.176291360929
1.244,0.5293912455452485,5890.94865313944
1.248,0.4576936606066017,5900.917869907311
1.252,0.3650951982275809,5901.522095161662
1.256,0.26503270846478605,5901.275933757912
1.26,0.16897539634261227,5899.347438711081
1.264,0.08813267906042034,5895.424777411224
1.268,0.03311854590071532,5889.160607281743
1.272,0.011691372147078773,5896.408685717847
1.276,0.02635600669684731,5887.514706455089
1.28,0.07389850437848897,5902.993350299864
1.284,0.14754981678503692,5896.95269282681
1.288,0.24052115905121962,5893.25507652027
1.292,0.3488308838056956,5889.449962515483
1.296,0.4719170285014625,5891.038226701611
1.3,0.6101675971776209,5883.997529026784
1.304,0.7589350488394961,5899.757575761145
1.308,0.9005580465798034,5899.425515286479
1.312,0.9994629638607603,5899.822667097207
1.316,1.0065298675549705,5896.829111184666
1.32,0.8741326654880094,5882.08401011795
1.324,0.5756190351281435,5897.150422028452
1.328,0.11940010601120693,5903.845364072696
1.332,-0.4488576199900424,5897.041716062898
1.336,-1.0558111337852647,5903.475257726772
1.34,-1.6169496786076876,5897.658186620781
1.344,-2.0544411706804664,5896.738733446483
1.348,-2.312406486594152,5902.73510699849
1.352,-2.3672903974455273,5892.681178014432
1.356,-2.2315097681894542,5903.765038622032
1.36,-1.948947073519735,5887.818990733852
1.364,-1.5821728516093254,5894.810478999435
1.368,-1.1936995931048295,5896.357606594374
1.372,-0.8266588011475218,5897.876807555517
1.376,-0.49246778400227476,5905.676714742873
1.38,-0.1718065064510334,5893.351458149868
1.384,0.17025267500080238,5903.40105542848
1.388,0.5612568625507246,5897.070880781605
1.392,1.0011466556742767,5898.2199337773945
1.396,1.453862639512922,5894.153372968767
1.4,1.8536898023193729,5898.199772503171
1.404,2.123028391930177,5894.680186999525
1.408,2.1950923990192552,5894.064840332232
1.412,2.0345261656957434,5897.906594297439
1.416,1.6498430005086036,5898.6472607745645
1.42,1.093489464198358,5895.3171638595695
1.424,0.4483242272167717,5907.632501100863
1.428,-0.19636573156770853,5901.357190378862
1.432,-0.7712877783036888,5892.616608272826
1.436,-1.245317789394502,5900.618849056
1.44,-1.6271528865895877,5901.716865064644
1.444,-1.9494123320621934,5898.525950594335
1.448,-2.2425923842010294,5899.487044175176
1.452,-2.5114664817323886,5887.045868306896
1.456,-2.7256993898265915,5890.427849283105
1.46,-2.8296164557737082,5897.0633478959935
1.464,-2.766356516557967,5898.427126752948
1.468,-2.504384708309879,5903.129125717215
1.472,-2.0538917112656443,5900.237335166736
1.476,-1.4667030009540194,5904.060757106185
1.48,-0.8213719658870122,5895.231213771621
1.484,-0.20087687291649067,5898.240456306863
1.488,0.32734487282747393,5893.848608236035
1.492,0.7209469741738982,5892.4914074791
1.496,0.9600932867207495,5898.486352656791
1.5,1.0390493966963066,5900.99582288431
1.504,0.9612716597093698,5900.587280707484
1.508,0.7422050715826344,5890.712224515321
1.512,0.4154043678607379,5890.880649664052
1.516,0.033494824815099446,5899.956432289935
1.52,-0.3406710456217137,5889.625381660882
1.524,-0.649533132459251,5894.837017573708
1.528,-0.855062138067704,5900.158407647584
1.532,-0.9450084907882952,5884.133819998487
1.536,-0.9294520028388242,5899.501682632704
1.54,-0.8306467011552694,5904.382060443883
1.544,-0.6714362009541958,5888.594822781493
1.548,-0.46708808720052336,5893.839982454208
1.552,-0.22293123850402838,5898.748914753527
1.556,0.06256071591543416,5895.901268935247
1.56,0.39102079547645463,5901.322652492807
1.564,0.7559888721074572,5900.284835722657
1.568,1.13608008821827,5901.634437095336
1.572,1.4928870664897846,5904.589524779468
1.576,1.776050787696459,5895.024764855638
1.58,1.9350418417855137,5887.638807244231
1.584,1.9338001081379432,5895.721556303728
1.588,1.762587908834745,5895.880144272238
1.592,1.4422004445963283,5897.360408460876
1.596,1.0187614809118128,5904.027763297112
1.6,0.5516046731672892,5892.182842816405
1.604,0.10002283304723104,5903.011519485908
1.608,-0.28547158583651816,5898.376132021034
1.612,-0.5654792703893757,5896.563672111126
1.616,-0.7102209167965232,5905.964945358455
1.62,-0.6986808397291551,5890.561044779546
1.624,-0.5213448874467623,5891.222515071262
1.628,-0.18622382592071396,5895.14079246126
1.632,0.2752562030260843,5899.796978262068
1.636,0.8074018521987071,5886.847760300732
1.64,1.3378591875595194,5901.345022898375
1.644,1.7926535801703116,5892.023362074403
1.648,2.1129869501673504,5890.310995460806
1.652,2.2668747396665316,5892.475923155158
1.656,2.251761042272908,5899.289124528959
1.66,2.0889613390356274,5894.14752654444
1.664,1.8138137870688238,5896.179926945901
1.668,1.465685070599523,5896.010241609849
1.672,1.0806343345304747,5900.919850828526
1.676,0.6879911864351625,5911.658513958334
1.68,0.31083170198234983,5895.319748002938
1.684,-0.03066505984579034,5900.576577782275
1.688,-0.31480369988528906,5893.920493439975
1.692,-0.5155586698180796,5898.604209273984
1.696,-0.60450976176613,5896.220403800867
1.7,-0.5593086006139016,5888.316487343691
1.704,-0.37640127306006593,5900.507867495382
1.708,-0.08124994549048292,5899.640057703707
1.712,0.27146005094938436,5889.113896523551
1.716,0.6104680065495428,5890.732302505659
1.72,0.8691006283625134,5896.017503198975
1.724,1.0057669383609025,5905.853521506758
1.728,1.0148583589834073,5900.614444196845
1.732,0.92385068214018,5892.933428382423
1.736,0.7786890206141519,5895.804964986018
1.74,0.6242610983544318,5903.902095297942
1.744,0.4883234491312019,5899.512335893978
1.748,0.3753730923204343,5899.382726179943
1.752,0.2720629371767957,5894.749220708644
1.756,0.1600119494260527,5905.95769781731
1.76,0.028900462403826148,5899.669042409637
1.764,-0.11603657995795223,5901.098385262996
1.768,-0.25477616795206054,5899.111807456258
1.772,-0.3609898786762247,5895.044429894498
1.776,-0.41455806216134666,5896.649420632786
1.78,-0.4121618521095683,5894.894677159192
1.784,-0.3707950975342847,5895.453596317557
1.788,-0.3228749889148396,5900.742942578603
1.792,-0.30543634955253945,5891.980874754788
1.796,-0.3473839701186316,5891.697220426666
1.8,-0.45856074422233095,5893.618458075883
1.804,-0.6238271551627699,5899.152273587549
1.808,-0.8044280111877943,5889.325834114176
1.812,-0.9470343633342654,5894.313952037027
1.816,-0.9984410968029123,5885.132404616661
1.82,-0.9221355417709676,5891.6840571298735
1.824,-0.7121441985868094,5897.12675773851
