时间(s),电压(V),幅值(高频80K)
0.0,-2.3847860356437414,5911.795404154774
0.004,-2.0420934421959758,5907.575328677104
0.008,-1.7004652743955313,5899.681347600919
0.012,-1.3701984112369647,5888.874939683498
0.016,-1.0664265392307306,5906.482345882258
0.02,-0.8101586857764947,5898.879911621046
0.024,-0.6258096849892268,5904.4281415700825
0.028,-0.535077448649962,5900.132344947438
0.032,-0.5503120444572247,5903.000750810422
0.036,-0.6707017066660196,5905.414198882056
0.04,-0.8816571911877719,5898.733268185602
0.044,-1.155247608249467,5899.587358880728
0.048,-1.4503531287122067,5907.6352889938935
0.052,-1.7143446116011984,5909.675881352242
0.056,-1.889518230239378,5904.875365811731
0.06,-1.9248678882009822,5893.844383127594
0.064,-1.789477053451615,5913.175082484872
0.068,-1.4819985377457123,5900.803027414889
0.072,-1.0326211647317223,5900.307012151206
0.076,-0.49744326285038165,5897.330877643046
0.08,0.05252538028434892,5897.190751522577
0.084,0.5451238763866488,5900.453389160234
0.088,0.9208196715545748,5898.196443309283
0.092,1.1430496713866232,5900.887463246222
0.096,1.2022680709140263,5900.664888422132
0.1,1.1137641636291151,5905.735689166702
0.104,0.9117734593072443,5903.405077900996
0.108,0.6420004465690272,5902.331044760269
0.112,0.3532941913566911,5890.430831449802
0.116,0.08957406739930032,5900.110146342574
0.12,-0.11567850995681313,5903.619961182754
0.124,-0.24052520346310058,5892.278542732439
0.128,-0.2718629483138926,5902.712152515212
0.132,-0.20185442337085055,5897.131425621517
0.136,-0.02692660776521419,5899.815337484005
0.14,0.249138408029149,5890.216824095296
0.144,0.6096498114944274,5902.071737870986
0.148,1.020650281140477,5893.601245046357
0.152,1.431130143149601,5907.735330518029
0.156,1.7796269540194838,5893.357047470811
0.16,2.0069215525275452,5903.684969446464
0.164,2.0715548659628777,5900.565521187245
0.168,1.9622311370844994,5900.480171680459
0.172,1.701559123355204,5901.471802125654
0.176,1.3395088952893617,5894.313655943723
0.18,0.9396370455978529,5896.80105235068
0.184,0.5633785139983759,5902.076491926135
0.188,0.25659899241593104,5898.555966618456
0.192,0.0401991854593653,5890.985808939383
0.196,-0.09404629074187278,5896.536907033697
0.2,-0.180089610855565,5903.385667854107
0.204,-0.26508219957799917,5909.116425158149
0.208,-0.39049094354150005,5904.604233097261
0.212,-0.5741048259415032,5904.090669522314
0.216,-0.8005933426363193,5907.812254587749
0.22,-1.0244986369282376,5903.700566788032
0.224,-1.1844480198273022,5900.871306512821
0.228,-1.2233150846531515,5900.368539680687
0.232,-1.1069702320192911,5893.43020656246
0.236,-0.8348860998285612,5906.746178583387
0.24,-0.43956936549832387,5902.688962516791
0.244,0.023113984585632213,5892.071914767432
0.248,0.4874179470734482,5899.827529706226
0.252,0.8900545874520112,5902.766328015689
0.256,1.179240736588084,5898.582761866148
0.26,1.3210432916818846,5890.854564662725
0.264,1.3042288612674127,5898.768260660764
0.268,1.1429950830218412,5898.855948922673
0.272,0.8748954217003009,5905.029608275937
0.276,0.5519872632991776,5894.27100953292
0.28,0.22705743037784723,5895.002769163242
0.284,-0.05956740745390201,5903.260900123968
0.288,-0.28712721067293534,5904.373964032071
0.292,-0.45363227349348945,5892.864222816392
0.296,-0.5694312389866906,5899.776051045415
0.3,-0.6489244365446128,5898.846952450396
0.304,-0.7032545045963714,5909.77955140453
0.308,-0.7355558029969717,5901.064884583018
0.312,-0.7397654399479783,5904.236647310424
0.316,-0.7032519592591969,5898.901088323304
0.32,-0.6122979993976819,5901.727675725311
0.324,-0.4587192387452013,5909.614495511352
0.328,-0.2459800672076976,5899.866290308174
0.332,0.006731132399208136,5906.859722859955
0.336,0.26425186468247863,5903.863723057783
0.34,0.48052018145364994,5893.733884785888
0.344,0.6088910585161664,5902.430349283686
0.348,0.6152145101691157,5896.206740083283
0.352,0.4892014760461323,5899.417245573271
0.356,0.24939543306871573,5900.954669719689
0.36,-0.060588095990348166,5897.545992207736
0.364,-0.38316419926710477,5904.822782585565
0.368,-0.6610174192855087,5892.9839452379065
0.372,-0.8495050422468595,5905.392396104121
0.376,-0.9234481649307248,5894.936753497389
0.38,-0.8773162813489793,5896.034755699388
0.384,-0.7210818356971752,5893.418632767864
0.388,-0.4758144021271323,5898.812570607326
0.392,-0.1719232433967232,5905.972901366873
0.396,0.1505741907592966,5893.894843370669
0.4,0.4434982528937643,5899.763233621683
0.404,0.6572907113271341,5900.130249608336
0.408,0.7532162073038317,5902.6054156045775
0.412,0.716715102361482,5899.899432639579
0.416,0.5656068717903053,5898.46556509566
0.42,0.3484509343111797,5901.726399020557
0.424,0.13261026449103472,5908.820659647743
0.428,-0.014025558874334662,5908.041216731455
0.432,-0.04147481588222705,5892.18130277976
0.436,0.06931827528051214,5896.295196612437
0.44,0.3021932471594501,5898.667611386778
0.444,0.6108468092704069,5898.900746168292
0.448,0.9312873667215668,5911.467028667913
0.452,1.1977419554218731,5908.612461933239
0.456,1.3574949698700058,5910.802087386877
0.46,1.3809542444340062,5905.726036374575
0.464,1.265354901485805,5900.804929045153
0.468,1.0332529149106044,5894.258901974756
0.472,0.7280544548540108,5902.258339021258
0.476,0.4068812968986427,5905.564877538525
0.48,0.12902326770967326,5904.926645825109
0.484,-0.059830536857571545,5903.837001174396
0.488,-0.14265015698625902,5899.5659899075135
0.492,-0.13826995401419756,5900.796216802152
0.496,-0.09635169674018472,5903.921719089337
0.5,-0.08104288617178819,5899.680234057729
0.504,-0.14883774947087053,5904.8411009837255
0.508,-0.3282540144855972,5902.447809880672
0.512,-0.6082352562608191,5904.820754118084
0.516,-0.9392159689985243,5904.716731067235
0.52,-1.2465707116212361,5898.58714354864
0.524,-1.4518548755125076,5887.922587109123
0.528,-1.4944530016038995,5900.892644366185
0.532,-1.3467102715296353,5900.776685271066
0.536,-1.019170876036521,5888.601076292197
0.54,-0.556648180931914,5894.987979459971
0.544,-0.0280335675839499,5896.09647555957
0.548,0.4873663738313817,5898.10142776928
0.552,0.9150928211646885,5904.644656355416
0.556,1.2004830103673911,5902.2917999967285
0.56,1.3202331278976807,5889.478962054858
0.5640000000000001,1.286901150968175,5901.400965980327
0.5680000000000001,1.1441677731373943,5899.662149237112
0.5720000000000001,0.9539342116000433,5905.918015876536
0.5760000000000001,0.7793776604355271,5898.525762520815
0.58,0.6690807930811967,5896.499360951134
0.584,0.6461776206242354,5901.645957860121
0.588,0.7044315769044658,5896.923015663245
0.592,0.8115889876746893,5901.448394381742
0.596,0.9194084380634976,5900.149866865187
0.6,0.9786562862045307,5900.280996415001
0.604,0.9555613007954511,5897.433399820988
0.608,0.8444061105141342,5904.300205101199
0.612,0.6707786511581245,5897.165751378285
0.616,0.48303081573980367,5894.324965411784
0.62,0.33502983606864867,5901.7218126776825
0.624,0.26789223754601665,5899.100096594466
0.628,0.2986330248787048,5892.952237865708
0.632,0.4193684316849226,5915.230845148176
0.636,0.6049329762391856,5895.771670686202
0.64,0.8232871267918872,5903.513885159419
0.644,1.043722383963181,5903.2778980812
0.648,1.2411935436313386,5896.853887486846
0.652,1.3978908377769894,5907.364428186811
0.656,1.5035125242761562,5898.28505967933
0.66,1.5544556537041638,5902.931057333582
0.664,1.5513209741644545,5902.732427979665
0.668,1.494688868946251,5909.296046867403
0.672,1.3804849789109934,5902.048100648554
0.676,1.197436232019724,5908.863520096067
0.68,0.9293303320829347,5903.0505051547625
0.684,0.5630604177587141,5901.90367866585
0.6880000000000001,0.09984386026390285,5901.267746003908
0.6920000000000001,-0.43577797042544586,5908.788752420658
0.6960000000000001,-0.9938525381918654,5899.774747895201
0.7000000000000001,-1.5052968969528353,5902.7823641551
0.704,-1.8951320953036064,5907.308488065687
0.708,-2.0995646528872554,5906.860013892457
0.712,-2.082219370828548,5894.6609664685175
0.716,-1.8438528832309167,5891.548781895261
0.72,-1.4217788407850318,5897.3149344369
0.724,-0.8800231635979178,5900.9485862444
0.728,-0.29540614459624215,5897.210192868812
0.732,0.2548316135713692,5903.710328039104
0.736,0.7013468581171177,5901.832616577715
0.74,0.988160220057887,5906.080112873102
0.744,1.077777201769605,5895.965663311195
0.748,0.9568866945211798,5904.619218019161
0.752,0.641300277518794,5900.407026925026
0.756,0.17788586297606937,5900.925700677703
0.76,-0.3580731184425355,5904.136265035982
0.764,-0.8702792687517267,5905.89414858424
0.768,-1.253039939905778,5902.273032230732
0.772,-1.4070497371841968,5904.918276731891
0.776,-1.259326561626049,5900.226570006088
0.78,-0.7848438105475375,5903.289823606941
0.784,-0.023406144182740438,5899.661050140232
0.788,0.916754305585417,5901.090193277698
0.792,1.8746211323839987,5899.187419496384
0.796,2.6701754447624237,5908.507921870764
0.8,3.14701354131001,5899.237594205051
0.804,3.210096928155852,5905.827724343052
0.808,2.8470017780394703,5904.509466375889
0.812,2.1277363399966736,5898.439615375471
0.8160000000000001,1.1853634851064674,5905.201873346756
0.8200000000000001,0.18428787250713177,5892.620267630114
0.8240000000000001,-0.7154039956567152,5899.973406502273
0.8280000000000001,-1.3895063034353003,5898.181821995381
0.8320000000000001,-1.770280274623486,5898.302398003423
0.836,-1.8517830905605397,5899.969741932787
0.84,-1.6803492332016816,5899.301495275533
0.844,-1.3354955413156278,5903.507004922183
0.848,-0.9084377682461882,5905.957800913058
0.852,-0.4838697809949241,5903.151135150921
0.856,-0.12780322382071369,5894.3912423799575
0.86,0.11826252890991726,5907.01377028315
0.864,0.2383515325612504,5897.294552389751
0.868,0.24016354303502216,5897.846290731904
0.872,0.15126437749033977,5906.356852737729
0.876,0.013000921665589877,5900.007846185924
0.88,-0.12803775483438598,5902.432902765471
0.884,-0.22982901889167429,5905.62604502298
0.888,-0.2633612420946048,5906.129100599957
0.892,-0.2166456514463406,5904.077491431225
0.896,-0.09271915498973674,5900.871361649694
0.9,0.09665963010013134,5908.607671810401
0.904,0.3370499135004848,5910.6887916450405
0.908,0.6127940506350799,5903.887070919773
0.912,0.9033235247771819,5904.983443574148
0.916,1.1781170850681535,5893.722495421938
0.92,1.3956647810634817,5904.556651985491
0.924,1.5094577384987573,5907.208990604491
0.928,1.479899869265438,5901.917505195892
0.932,1.2878642115795185,5902.75423335711
0.936,0.9446829212322776,5905.936579197269
0.94,0.49444419840051157,5896.806308615443
0.944,0.006698841865252192,5907.946637571969
0.948,-0.43950606582286794,5905.810692366826
0.952,-0.7761350300651835,5903.99711669951
0.956,-0.9644766068862936,5891.563175786897
0.96,-1.0044808080196115,5897.109983427896
0.964,-0.93175187861323,5906.953732812395
0.968,-0.804064566994645,5893.41868634866
0.972,-0.6832232262485972,5904.130838586871
0.976,-0.6185669417235633,5894.063448308849
0.98,-0.6359973933660823,5894.650999350729
0.984,-0.7336256378118354,5899.886805832388
0.988,-0.8836871929896722,5896.427100853068
0.992,-1.0397712971527715,5899.300838687479
0.996,-1.1476930521562914,5895.872751142606
1.0,-1.1576335725678812,5905.990816191021
1.004,-1.0351460353564519,5901.349989848427
1.008,-0.7694141234778454,5900.161895863172
1.012,-0.3781002580907962,5899.356345128267
1.016,0.0916864412646019,5898.93452864273
1.02,0.5674970682055295,5903.950296422939
1.024,0.9623774335257833,5892.987634125293
1.028,1.192634211600025,5900.731033423116
1.032,1.1991852944270478,5894.809149815281
1.036,0.9656710425044898,5902.683989044032
1.04,0.5261272050739282,5907.374199020037
1.044,-0.041209149135130685,5900.569768603564
1.048,-0.6316070264060495,5908.824328772779
1.052,-1.1365203168824736,5898.61403530373
1.056,-1.4642524442140459,5901.580918758446
1.06,-1.5542018973526839,5907.52881169886
1.064,-1.3835529760322067,5895.925202648846
1.068,-0.9675707268776166,5895.852662557278
1.072,-0.35566046542882057,5903.257236537115
1.076,0.37487850943650325,5891.165951926069
1.08,1.126763415046195,5902.292468519599
1.084,1.793019360395617,5899.736879650159
1.088,2.2704694953997824,5895.250723613318
1.092,2.4758663602981,5910.742818879311
1.096,2.362222221578378,5898.976527913168
1.1,1.9314319433946383,5904.216291746381
1.104,1.2386324257663408,5898.923509643228
1.108,0.38454764502146277,5900.283010011777
1.112,-0.5046621770717601,5903.7209276385165
1.116,-1.305346314372042,5891.752698901073
1.12,-1.923357006478837,5899.016202331044
1.124,-2.311299627129396,5900.25743175913
1.128,-2.4712345640589035,5890.343874562441
1.132,-2.4437179171212495,5894.812342000826
1.136,-2.288646042953914,5896.887011924949
1.14,-2.0651383373617156,5893.69705570672
1.144,-1.8167282519631036,5897.064444342694
1.148,-1.56548733458828,5893.172177616087
1.152,-1.3154224494446978,5890.542300916921
1.156,-1.062321698305476,5902.916371443896
1.16,-0.805015515571499,5908.981756990332
1.164,-0.5529310870967765,5904.936405955812
1.168,-0.32720212636576596,5902.052265909852
1.172,-0.15582129497787878,5901.908579453714
1.176,-0.06528468533847702,5906.750391492455
1.18,-0.07159656086906391,5888.572030451761
1.184,-0.1733400526245826,5895.609038494306
1.188,-0.34903309129918114,5897.673328560899
1.192,-0.5598396250174491,5891.223348350027
1.196,-0.7571108848733794,5902.190334453525
1.2,-0.8928404420358083,5901.599858851904
1.204,-0.9303155217915197,5906.974549132979
1.208,-0.8521576448768183,5906.449528202454
1.212,-0.6636727001940104,5904.674512887363
1.216,-0.3908262292198905,5898.139918722308
1.22,-0.0736381524833448,5898.158534154702
1.224,0.2431816165361012,5899.5324724042575
1.228,0.5200188339493498,5906.528672185278
1.232,0.7301276664502983,5897.243514671195
1.236,0.8634043965657815,5894.019014355515
1.24,0.9252473840622855,5906.424080793143
1.244,0.93097266810177,5899.990092397365
1.248,0.897507829389715,5896.823418604011
1.252,0.8350598590362892,5906.901602615225
1.256,0.7419914189231348,5910.894362137906
1.26,0.605541672571481,5899.522943142219
1.264,0.4087875950834673,5901.725456117
1.268,0.14124325860712877,5900.727462665727
1.272,-0.19165459057502063,5903.822213695465
1.276,-0.5651095747774435,5894.760549670861
1.28,-0.939992346957569,5899.628161318705
1.284,-1.2739613101573775,5904.156237666777
1.288,-1.532397810165454,5907.338804316011
1.292,-1.6934032112308166,5904.903424038344
1.296,-1.7456504010578584,5898.169453820249
1.3,-1.682631333165584,5901.823713706618
1.304,-1.4989881313774214,5908.047966227571
1.308,-1.1934437617807483,5900.6740354605245
1.312,-0.7784689050264669,5904.440850305312
1.316,-0.29116194448405647,5898.211822014423
1.32,0.2030135707848627,5895.93448916485
1.324,0.6191850366986787,5902.328589225316
1.328,0.8735015536150563,5894.372560320227
1.332,0.9077586624062142,5897.237529238485
1.336,0.7088916026701477,5905.621660200713
1.34,0.3159569500085446,5908.869416510374
1.344,-0.18828660047331686,5899.128981419333
1.348,-0.6984259269863364,5901.057410465365
1.352,-1.1126147779564772,5897.277703827659
1.356,-1.3554194118704617,5907.057042875495
1.36,-1.3917305952756949,5905.967676923247
1.364,-1.2305241625583403,5906.43431608751
1.368,-0.9197678512868671,5903.224838206601
1.372,-0.5343085940294374,5902.780235079365
1.376,-0.15907498925318858,5900.752430341529
1.38,0.1290495521605994,5896.861086845532
1.384,0.27687702876759246,5903.982959106656
1.388,0.26491674645113417,5900.806370214056
1.392,0.10983079177275518,5890.08575196882
1.396,-0.1410666241889396,5898.360549273827
1.4,-0.4221921775609838,5906.347184648344
1.404,-0.6665469807516876,5910.17769290432
1.408,-0.8234447795344854,5904.021874545596
1.412,-0.8726349177517692,5904.998927610725
1.416,-0.8303248103912871,5909.249276118746
1.42,-0.744092863791299,5903.009878881263
1.424,-0.6766804715140533,5897.488529262193
1.428,-0.6825169460962419,5894.178859365567
1.432,-0.7846016318342218,5893.794128326314
1.436,-0.9612619038506599,5900.221444230968
1.44,-1.1498455001622128,5909.305520826285
1.444,-1.2671238325268925,5901.6534256613295
1.448,-1.2378679580530936,5905.931531260972
1.452,-1.0193610972607225,5891.386128792186
1.456,-0.6129061150715682,5899.41727284497
1.46,-0.06062710513979499,5897.594066592465
1.464,0.5681489399330344,5905.128864262408
1.468,1.1944502948869338,5905.732229054212
1.472,1.7454236319959644,5901.999945537072
1.476,2.1648546693010164,5891.253172248929
1.48,2.417982260408647,5903.163944971107
1.484,2.492419454098369,5901.896874798743
1.488,2.397204973652266,5902.098303853281
1.492,2.1605520178787008,5893.641257395005
1.496,1.8254526524046368,5905.551083788342
1.5,1.4421391232201626,5902.665597109189
1.504,1.057685396603326,5902.907126747145
1.508,0.7053626053236345,5899.629518978063
1.512,0.39841026369882826,5899.293604812739
1.516,0.1323074626524335,5899.671477443631
1.52,-0.10467595183420715,5900.319708758328
1.524,-0.3183414745177106,5907.262207900339
1.528,-0.5005682073570749,5903.207825709864
1.532,-0.630867538198315,5911.316280586579
1.536,-0.6859758973429029,5895.2054746119
1.54,-0.6518184373660486,5898.471297355068
1.544,-0.53179775239201,5902.68788186853
1.548,-0.3480016512912737,5901.549980446686
1.552,-0.13566792069744416,5904.537321546369
1.556,0.06588354452815573,5895.491497157859
1.56,0.2220561689166419,5898.925655894238
1.564,0.30939957271725704,5900.642259539369
1.568,0.3196603580346473,5909.894897070943
1.572,0.26195227112431124,5902.186871974114
1.576,0.16227434561569415,5898.808281987033
1.58,0.05877298361617347,5899.183858300561
1.584,-0.007545698439316447,5903.049242323524
1.588,-0.004507252875064895,5903.360790423198
1.592,0.08075138281069505,5903.63474723795
1.596,0.2361265557828826,5899.197407753695
1.6,0.42629637825082245,5905.820884951632
1.604,0.6021938106764821,5903.532544629363
1.608,0.7152666767014302,5894.734685350811
1.612,0.7311864743366623,5909.757947274857
1.616,0.6382080735751546,5903.046400300255
1.62,0.4487036166998731,5902.435128884904
1.624,0.1955731079512624,5906.855997610638
1.628,-0.07439921450267722,5899.14091343852
1.632,-0.3096657918103505,5895.420034589928
1.636,-0.4652327131705612,5901.578358259379
1.64,-0.5141125483147012,5900.648179677252
1.644,-0.4550095665489827,5902.724351767817
1.648,-0.3126090307829924,5897.943358801953
1.652,-0.1295894034894001,5896.547203002667
1.656,0.04676643541453134,5904.116984369382
1.66,0.17800828753921824,5907.686274148346
1.664,0.2431200261138249,5889.65391019714
1.668,0.2402766601119633,5893.327872334387
1.672,0.18275342857686191,5897.4398373890745
1.676,0.09170225352956922,5901.904170960579
1.68,-0.010985355904198121,5908.330105021405
1.684,-0.10718575528754215,5908.72763134687
1.688,-0.1835517290520792,5901.064205802495
1.692,-0.22984810678547074,5898.793371455432
1.696,-0.23647190083304928,5900.902968222559
1.7,-0.1932608199346121,5898.140377487802
1.704,-0.09094881532739382,5900.339784694545
1.708,0.07478051963118523,5902.679778202436
1.712,0.2978588628518519,5894.745883917853
1.716,0.5568902542382081,5895.542787344116
1.72,0.8130072993647951,5892.91236583802
1.724,1.0129273665364391,5900.708986644531
1.728,1.0986693597926143,5895.149672462068
1.732,1.0227908519196864,5902.072972729569
1.736,0.7645662411114166,5891.060271258128
1.74,0.34075104434029757,5896.888315635101
1.744,-0.1937546527933533,5897.091754801096
1.748,-0.7558099755424776,5889.517198833735
1.752,-1.2507208371216552,5897.558667956345
1.756,-1.5899945929954784,5899.494412522771
1.76,-1.7059213654403382,5901.779560495556
1.764,-1.5622038970943661,5899.928641235338
1.768,-1.1617697754032263,5891.04095547055
1.772,-0.5514178571131364,5902.961260412711
1.776,0.17977280231867146,5904.534102710471
1.78,0.9120077049953318,5900.999969064051
1.784,1.5174031991919044,5903.033292450398
1.788,1.8897490750508275,5902.995515856992
1.792,1.9725389117005017,5891.7847519385
1.796,1.774558102647792,5902.965997641482
1.8,1.365697197154294,5899.337303855178
1.804,0.8537055610351928,5898.342138554862
1.808,0.3511663757735534,5902.580706658972
1.812,-0.05421616576072819,5897.459280069801
1.816,-0.31574658866264765,5893.995156611059
1.82,-0.4271634935767436,5893.966519620637
1.824,-0.40991671547224223,5896.788641582125
