时间(s),电压(V),幅值(高频80K)
0.0,1.5795759851268563,5895.667054769702
0.004,0.8365766623945191,5892.86074230573
0.008,0.2388015557453167,5902.138038345106
0.012,-0.11056672496160876,5898.295920320215
0.016,-0.18185038332389153,5900.534919296991
0.02,-0.02435902322048747,5905.480495685366
0.024,0.2547467538179233,5897.907149800141
0.028,0.529769982956981,5898.005344371175
0.032,0.6978210160137224,5892.404921233163
0.036,0.7064045860441993,5900.879963433933
0.04,0.5595838742463883,5905.8825246118295
0.044,0.30529254845959586,5899.987643682439
0.048,0.012752654228231483,5897.35185521956
0.052,-0.25032590008951394,5897.354621284676
0.056,-0.4339880257607451,5895.862297667315
0.06,-0.5129267687823413,5908.264599280221
0.064,-0.4850794314748034,5894.557135827955
0.068,-0.3658329466714917,5900.881740867126
0.072,-0.1824014348506846,5886.328670319824
0.076,0.029236135944375664,5895.981670519741
0.08,0.22624015801350553,5901.579744680438
0.084,0.363370856339775,5901.409184336567
0.088,0.40189283723706554,5901.565692755259
0.092,0.3200474996623564,5901.514849264905
0.096,0.11937829971773575,5895.384728592188
0.1,-0.17659025424600855,5898.63255739347
0.104,-0.5299781325658929,5904.039207379228
0.108,-0.8983382227077068,5895.152148707526
0.112,-1.243148155696982,5887.957182118552
0.116,-1.5357090362297459,5902.427178392624
0.12,-1.7607258088070423,5898.981857018616
0.124,-1.9180756982351548,5898.469207530373
0.128,-2.0223823985175384,5889.698101496435
0.132,-2.0992296038437415,5897.487249168259
0.136,-2.17748133496308,5902.2314936840885
0.14,-2.2790164716853663,5905.716924141416
0.144,-2.408937724734598,5905.561827322842
0.148,-2.549930541236379,5899.802459489289
0.152,-2.6633186256151546,5897.378339927733
0.156,-2.696930447015197,5899.408814988731
0.16,-2.59777555658575,5902.891831736299
0.164,-2.326508099536323,5897.847998803331
0.168,-1.8700379532124116,5902.827678115904
0.172,-1.2483635131911162,5895.923361220624
0.176,-0.512859551378432,5901.270327068357
0.18,0.263687693596366,5896.715627066241
0.184,1.0014909152737472,5904.887151502274
0.188,1.6272943239665323,5900.285836129277
0.192,2.083473999364882,5901.18638872803
0.196,2.3329185861671777,5898.469645040505
0.2,2.362612472160744,5896.163280740313
0.204,2.188084319600746,5900.207576195217
0.208,1.857112730829132,5902.804636251377
0.212,1.4476838558540746,5900.343940693322
0.216,1.055802446624151,5904.837613031968
0.22,0.7738506716048442,5908.495148812673
0.224,0.6662878390393866,5901.161043527988
0.228,0.7520732728509373,5903.404763810951
0.232,1.000521873717845,5888.383744414475
0.236,1.341349508575614,5904.181201091355
0.24,1.6840862140901578,5901.131324835202
0.244,1.9395969079340665,5897.037146439328
0.248,2.037773284499358,5898.55003762745
0.252,1.9389689006922046,5899.557033238141
0.256,1.6396899074920026,5901.66532408761
0.26,1.1735962148237662,5897.01327147819
0.264,0.6075247025216695,5900.0635644743
0.268,0.031065881817951523,5893.041946868489
0.272,-0.4608882386257934,5897.7615769016975
0.276,-0.7896720955182157,5908.53579550215
0.28,-0.9112908678539761,5897.409408269322
0.284,-0.8239650870839086,5905.758778910503
0.288,-0.5620041810679849,5901.820283072743
0.292,-0.1804357868454093,5903.488475128382
0.296,0.2615856728297112,5901.912035892122
0.3,0.7122622950079002,5905.425077362149
0.304,1.1313426457397617,5904.5350888478615
0.308,1.4883808419045237,5900.188140514618
0.312,1.7584722158540491,5899.568212804089
0.316,1.919392902333606,5896.331867279856
0.32,1.95272880873288,5896.037276890676
0.324,1.8486910432259014,5899.759576157463
0.328,1.6117803111292834,5908.597834340443
0.332,1.2642000761366983,5904.100559844773
0.336,0.8455997138143676,5901.269859419109
0.34,0.4092552023180012,5900.943504491364
0.344,0.014982517235560955,5890.2475216352805
0.348,-0.28095776241920806,5897.694424149444
0.352,-0.43734566947341047,5900.898176380211
0.356,-0.43724182693032365,5901.889453112397
0.36,-0.291329440345755,5896.161021371834
0.364,-0.03447798494184766,5900.157506806767
0.368,0.28220320453423137,5901.059356249286
0.372,0.6006120012092807,5901.763878484603
0.376,0.8643820559925998,5896.690401828228
0.38,1.0271186191838808,5903.006379957136
0.384,1.060330747987822,5900.607528277335
0.388,0.9594028461936318,5905.0717748073785
0.392,0.7445560732201122,5906.388824958129
0.396,0.455236069964967,5892.468444652135
0.4,0.1396715215136122,5894.5856631404895
0.404,-0.15648023705829786,5885.421942919482
0.408,-0.3987242321232218,5901.947774331401
0.412,-0.5677737944346333,5899.04745246724
0.416,-0.6593947227000329,5892.912158557322
0.42,-0.6815473009490546,5900.227325681207
0.424,-0.6502551545581783,5898.605388268137
0.428,-0.5851171442953762,5891.85321878054
0.432,-0.5053030247380204,5897.594633945567
0.436,-0.4269386246582112,5899.256313047595
0.44,-0.36187154938817623,5888.0240785850265
0.444,-0.31633636602677756,5901.255087808011
0.448,-0.2882456345400897,5905.288201106241
0.452,-0.26429825403469637,5899.27689943287
0.456,-0.22014676356024776,5901.191160959119
0.46,-0.1259116174296474,5904.438516870973
0.464,0.04384922695439582,5905.022310714214
0.468,0.2991227124542873,5893.305056512844
0.472,0.6261871230452598,5898.139551490251
0.476,0.9850762123503382,5900.034109605375
0.48,1.3145039746721523,5902.339695034204
0.484,1.5442226369421823,5897.543511730732
0.488,1.612225459504173,5901.03183948891
0.492,1.4816778976555562,5897.954173144582
0.496,1.1517167028635371,5903.76873028021
0.5,0.6584834533095131,5896.395342411757
0.504,0.06690216651961155,5904.093968748481
0.508,-0.5429165524733002,5897.786056585597
0.512,-1.0900071632821358,5911.105703836528
0.516,-1.504538023642327,5902.577860522353
0.52,-1.736638444976342,5898.802753040778
0.524,-1.762651685105286,5901.6766520731535
0.528,-1.5890724210212734,5900.769523084913
0.532,-1.2527150901464024,5896.366177503238
0.536,-0.8146679198531145,5900.875414664151
0.54,-0.3474408218594789,5904.249843180028
0.544,0.0814092595285088,5897.38406364142
0.548,0.4233689468826825,5893.476399239562
0.552,0.6560556006561546,5901.668190426736
0.556,0.7823457875857847,5899.896852051901
0.56,0.8241593196725417,5900.609972438911
0.5640000000000001,0.8145794537437949,5896.768956717568
0.5680000000000001,0.7905914450112098,5898.708447419349
0.5720000000000001,0.7868574841481598,5901.862128925635
0.5760000000000001,0.8301773854320418,5890.490742009984
0.58,0.9345345657760104,5901.449352512987
0.584,1.097408620246977,5898.029350653241
0.588,1.2988739101090516,5897.146478516134
0.592,1.5048215768664277,5901.237159980239
0.596,1.6740348475235385,5901.227999333811
0.6,1.7671044105119116,5894.9368220843
0.604,1.7544927056592894,5909.406897185718
0.608,1.621405605217302,5903.860591826719
0.612,1.3682951860687849,5905.763960580338
0.616,1.007713066552494,5903.429875347453
0.62,0.5600905524973958,5904.635484728336
0.624,0.05142464776760094,5904.501687108879
0.628,-0.48602842567846505,5893.875522568232
0.632,-1.0119837340755498,5894.398389432279
0.636,-1.478766861426972,5895.788040998687
0.64,-1.836470853548191,5902.240696710564
0.644,-2.041897697248572,5901.2742724532645
0.648,-2.068736675420012,5893.770763743783
0.652,-1.9162285895619051,5905.836318628962
0.656,-1.6137883151310888,5892.884280100086
0.66,-1.2192477795778929,5903.068630531619
0.664,-0.8093362331291328,5904.25286240012
0.668,-0.4631679967922401,5900.427015219865
0.672,-0.24239780431856414,5894.368266511201
0.676,-0.17423326568177244,5901.881216248964
0.68,-0.24384375492528468,5896.280161128487
0.684,-0.3996524232834312,5896.114899001139
0.6880000000000001,-0.569778839339077,5900.779936740662
0.6920000000000001,-0.6834985889213745,5898.632454419497
0.6960000000000001,-0.6902181925388438,5900.696037341
0.7000000000000001,-0.5702752828669425,5903.630354014838
0.704,-0.33569688545087745,5898.651334197744
0.708,-0.023260804284406317,5907.068756925676
0.712,0.31553957004472466,5904.738210403743
0.716,0.6244879014607955,5899.913534406511
0.72,0.8526819303513361,5899.965082262213
0.724,0.9652779371821686,5903.330166905866
0.728,0.9526072341240418,5904.245104819909
0.732,0.832852567191472,5904.671191416782
0.736,0.6451762276864444,5900.105300144453
0.74,0.4351426875293521,5897.638786806118
0.744,0.2387688424897269,5899.424809621596
0.748,0.07257234537195544,5904.391395285219
0.752,-0.06617816952312075,5904.219866471377
0.756,-0.19033700921288946,5904.901055001531
0.76,-0.3105948391039984,5896.361410704272
0.764,-0.4264670682944508,5895.223034519364
0.768,-0.5242451623642327,5901.445251647739
0.772,-0.5814753331196217,5904.953954107881
0.776,-0.5744402947565926,5903.3834593298025
0.78,-0.48475916043754136,5897.781403738898
0.784,-0.30341923552677785,5899.36979727855
0.788,-0.03307715653470291,5905.87545194678
0.792,0.3099079672946716,5902.026893213625
0.796,0.6936288634492366,5916.081770113226
0.8,1.0706183396755973,5893.5260437426095
0.804,1.3818131453142748,5902.79038084834
0.808,1.5656738721608303,5902.908028658282
0.812,1.5717992363729747,5894.511596938496
0.8160000000000001,1.3758511640063646,5899.784631658569
0.8200000000000001,0.9900868814889533,5901.22163171305
0.8240000000000001,0.4636720732785596,5896.936674438324
0.8280000000000001,-0.1290451934305188,5902.7196542785
0.8320000000000001,-0.7081451788874334,5895.680459721278
0.836,-1.2078539586949835,5901.88090195811
0.84,-1.5892636643695113,5906.375304224756
0.844,-1.8424552781223016,5903.394200415961
0.848,-1.9785598129034396,5892.696265711755
0.852,-2.0159383041803527,5898.341974631701
0.856,-1.9669350863204489,5901.133976255401
0.86,-1.8312171359998757,5904.634921767194
0.864,-1.5981647434479749,5907.421763528618
0.868,-1.2560654598541057,5900.933177025195
0.872,-0.8029195997801442,5904.983747176694
0.876,-0.2537401937321476,5899.4255237577945
0.88,0.3585608510556021,5896.217274965323
0.884,0.988476186604631,5901.36202818815
0.888,1.5861672057806007,5905.49193178712
0.892,2.1043503589885737,5901.001899693833
0.896,2.5015202754611647,5905.813249129986
0.9,2.7429537849367476,5899.485065222109
0.904,2.803049607127397,5893.782781590065
0.908,2.671293378862468,5900.405621877
0.912,2.360520761663786,5897.924889665963
0.916,1.9125739977789908,5906.167680245813
0.92,1.395442092259513,5900.837795492788
0.924,0.8891802942551643,5901.616079470262
0.928,0.46411890651678317,5893.70128709122
0.932,0.15998611627951612,5894.843675332291
0.936,-0.02497658366931393,5891.049555257242
0.94,-0.1301640801230641,5902.350443850795
0.944,-0.21572797329974236,5914.065239849997
0.948,-0.33955440739254433,5894.694327883145
0.952,-0.5366368477963863,5901.228151038614
0.956,-0.8075071555750003,5901.763114085753
0.96,-1.1186580558713346,5905.542195566878
0.964,-1.413888088586259,5898.555555428882
0.968,-1.6322515814619345,5900.78507277096
0.972,-1.726614359971686,5897.432129033799
0.976,-1.6769090819043968,5903.903921371333
0.98,-1.4938759395860506,5896.978297276716
0.984,-1.2125089180978883,5893.121513704677
0.988,-0.8787814792885319,5894.645055729748
0.992,-0.5357931074221901,5900.4343278367605
0.996,-0.21449063816806968,5900.373480108238
1.0,0.06898991844603408,5902.976078585058
1.004,0.3102121526495825,5897.531146850671
1.008,0.5103753336452507,5904.404500401722
1.012,0.6710113613789046,5897.641166215047
1.016,0.7922006214326703,5902.085750153437
1.02,0.8743196979937932,5904.18290557652
1.024,0.9208745336062276,5893.930850226676
1.028,0.9397399629364084,5901.474457119993
1.032,0.9416847048602777,5891.952807954191
1.036,0.9367169713246339,5906.689549630203
1.04,0.9296133599276895,5908.574653222795
1.044,0.916190906682905,5899.506736467546
1.048,0.8820422650993489,5903.065806707739
1.052,0.8053741721644856,5896.014622646679
1.056,0.6643487158906971,5903.378409081933
1.06,0.4471357097498946,5899.609190372442
1.064,0.1612041203089562,5897.818241555
1.068,-0.16201515402303635,5894.177817981887
1.072,-0.47014340627436724,5894.158863785054
1.076,-0.7013032147632888,5894.102855694889
1.08,-0.8012053584080664,5899.398279661945
1.084,-0.7401629601087111,5905.58647371062
1.088,-0.5240281414495153,5898.45031970626
1.092,-0.19522941665811394,5906.246380156759
1.096,0.17661460082885405,5898.489902663847
1.1,0.5116011144350534,5896.324134983294
1.104,0.7385610700481792,5895.853517829322
1.108,0.8105112151525601,5905.063910532936
1.112,0.7129855905500024,5899.449806251048
1.116,0.4647451847863023,5901.819958818713
1.12,0.11257340734468488,5901.603473257934
1.124,-0.2777884847661672,5901.0042596975145
1.128,-0.6337341073256396,5910.049531662013
1.132,-0.8906651026067063,5893.470725499261
1.136,-1.0072223286406863,5895.031260873759
1.14,-0.9753597992916553,5902.43185080978
1.144,-0.8201331502409225,5905.237883600011
1.148,-0.5887711555985004,5906.59587621947
1.152,-0.3338019929864383,5902.703871472755
1.156,-0.09721698563498475,5901.561137168005
1.16,0.0985836765907335,5912.122139113496
1.164,0.25081367651310155,5905.088618139291
1.168,0.3691408499166671,5908.401661769118
1.172,0.4658302284327637,5891.758773983081
1.176,0.5475081675431185,5901.289341919921
1.18,0.6108109705673999,5905.09545841991
1.184,0.6423762139003406,5895.602550132279
1.188,0.6228147426133592,5897.11420127232
1.192,0.5336224741512382,5902.965317737998
1.196,0.36504068210618024,5904.371004704504
1.2,0.12223749314478048,5901.424918237662
1.204,-0.1724551452734124,5903.702119287977
1.208,-0.4819939971950573,5890.536687156137
1.212,-0.760754380674845,5908.0086825379085
1.216,-0.9628242161299643,5898.4591465369895
1.22,-1.0515700679288982,5895.088374070558
1.224,-1.0094391878393913,5898.957634944788
1.228,-0.8454531078337003,5899.29990840024
1.232,-0.5968010164944152,5913.603735391
1.236,-0.32204585682184034,5896.872563643787
1.24,-0.08637807491815011,5899.988015939543
1.244,0.057274892264359396,5906.68714657544
1.248,0.08485651807956844,5899.877657243959
1.252,0.008574133693451058,5905.79255636708
1.256,-0.12884709210076678,5902.895984987649
1.26,-0.2709078323402398,5898.399548255545
1.264,-0.3673683371110687,5896.439955437015
1.268,-0.3889468975627895,5908.752199026159
1.272,-0.3321372939484907,5899.129317192597
1.276,-0.21480886505705774,5900.090895599116
1.28,-0.06617691377320406,5902.932129843065
1.284,0.08451663141829592,5891.271866152402
1.288,0.21652430883754134,5897.681031131691
1.292,0.32081286457144664,5904.921161463511
1.296,0.3983335166505236,5901.832305486502
1.3,0.45575683327108496,5900.800832708015
1.304,0.5009209014493331,5903.761230122504
1.308,0.5390111400883467,5896.26601317444
1.312,0.5697956529456696,5902.236354909485
1.316,0.5862839552336352,5900.166575645748
1.32,0.575499623375346,5895.847597705936
1.324,0.522074911181397,5903.625888205132
1.328,0.4145220592350037,5892.858437178706
1.332,0.2524066130946175,5906.905310847076
1.336,0.05121182794275603,5893.492216600648
1.34,-0.1581558279032357,5900.857535609289
1.344,-0.33589282722232877,5898.032567208482
1.348,-0.443321879145508,5901.586269907284
1.352,-0.45219371378716633,5905.780497817561
1.356,-0.3499026472661874,5899.278330576149
1.36,-0.13979462096788484,5900.609584594401
1.364,0.16169973498497286,5897.469751223752
1.368,0.5283288707051983,5908.156914472585
1.372,0.9259301354764842,5903.175469115767
1.376,1.313452998982794,5901.691682002884
1.38,1.6451595485427069,5907.578398140691
1.384,1.875867129192877,5906.415108991351
1.388,1.9694536999968835,5904.973425014704
1.392,1.9087026375381202,5899.096711534585
1.396,1.7027869797598116,5903.388533247935
1.4,1.3885069624914588,5892.032694575482
1.404,1.0236107681337696,5896.144424915069
1.408,0.6740731238613392,5903.336319336245
1.412,0.399758363525582,5894.096994486548
1.416,0.2430452756294085,5897.14937709355
1.42,0.2232391474330184,5894.471017225933
1.424,0.33729974743814917,5891.908645087447
1.428,0.5653583952285166,5900.764035925836
1.432,0.877987054668395,5907.347086955232
1.436,1.2418315149477765,5910.018628008211
1.44,1.6215945580283175,5899.132825273034
1.444,1.9790203919560994,5906.527212471631
1.448,2.2720304977525636,5908.6270035132375
1.452,2.457735541207806,5898.526426782875
1.456,2.5006076244805886,5899.838492934481
1.46,2.3827270661618867,5904.357639119531
1.464,2.110303312965593,5891.5728662870615
1.468,1.7124878586603534,5905.264388024281
1.472,1.2334595255556553,5899.100064030227
1.476,0.7224010015133,5910.353611596092
1.48,0.22548023237924775,5900.10024229452
1.484,-0.21906844353186367,5899.477556640862
1.488,-0.5835806378053965,5904.367246081469
1.492,-0.8519761253658088,5899.847149270014
1.496,-1.0193879455931083,5904.969849480865
1.5,-1.0907911798070422,5896.654874177842
1.504,-1.078979136752362,5899.6674904933725
1.508,-1.0019450422373943,5899.767125703136
1.512,-0.8798909080198716,5898.304442617292
1.516,-0.7326086944328797,5896.588532450021
1.52,-0.5779684542897483,5907.696345940444
1.524,-0.43142131754488305,5906.938654073557
1.528,-0.3056961788077871,5898.798932466488
1.532,-0.21012726682245184,5895.71803391394
1.536,-0.14991519601679693,5906.28114478353
1.54,-0.1259757668177899,5897.300396652065
1.544,-0.13540810081258425,5900.149597095573
1.548,-0.17181366866148207,5900.363602393592
1.552,-0.22487275827787664,5907.382961731166
1.556,-0.27971596833724455,5899.736104663794
1.56,-0.317462484271588,5893.4124271807
1.564,-0.3179199239626767,5899.275982920565
1.568,-0.26421114074707663,5911.785990760463
1.572,-0.14789271514150684,5902.367276995225
1.576,0.02756091542542591,5897.081031277655
1.58,0.2469396543999219,5901.8826075526085
1.584,0.48791322489129824,5895.611076652838
1.588,0.7285596418613873,5905.6087016889405
1.592,0.9542962560764231,5904.011922345232
1.596,1.1608074907261374,5900.857254905111
1.6,1.3520798244234526,5902.395744147936
1.604,1.53531963058845,5905.557028111007
1.608,1.7149654206921146,5910.128072020832
1.612,1.8871152702458374,5906.2785009185145
1.616,2.0359047956844036,5907.858376563195
1.62,2.1342092875383414,5906.704445691034
1.624,2.1500259439996126,5901.557220440502
1.628,2.057000072173108,5899.8945228993525
1.632,1.845253682778552,5910.603365883694
1.636,1.5282989223405734,5902.502023243551
1.64,1.1427988789651662,5903.307657778639
1.644,0.7399134373875196,5905.242535070534
1.648,0.37021310378906014,5901.874780432887
1.652,0.06773200554524554,5903.708466833595
1.656,-0.1598388732079929,5901.495390542213
1.66,-0.3303637642660535,5902.385134822794
1.664,-0.47689466347110954,5902.527907469848
1.668,-0.6334511628684254,5901.638055297371
1.672,-0.8232844932605721,5902.404801649066
1.676,-1.052706912884982,5903.758933428888
1.68,-1.3098604832425103,5898.832933055979
1.684,-1.5665529236781348,5912.591814554929
1.688,-1.7825719786958403,5904.669158518072
1.692,-1.9135171672600035,5908.715530909634
1.696,-1.9226027227410878,5898.946635026758
1.7,-1.7937142370865686,5910.7039205003
1.704,-1.540183909660521,5903.962256023593
1.708,-1.20451059354,5899.27941867169
1.712,-0.8482307079904765,5891.177733799244
1.716,-0.5352353549286684,5897.692881912533
1.72,-0.31398306564662254,5896.410869211783
1.724,-0.2043032956512166,5910.916770593954
1.728,-0.193092497505742,5900.432025259755
1.732,-0.2403717194090724,5894.327142424416
1.736,-0.29393828002132333,5907.085880586874
1.74,-0.3081304638174036,5900.263695230598
1.744,-0.2601902726966308,5900.620967931225
1.748,-0.15746252091095378,5903.302044415388
1.752,-0.03213300918087688,5898.102863391519
1.756,0.0734527569864719,5910.593586900803
1.76,0.12328261685148233,5901.756628216319
1.764,0.09938360546027378,5901.097313231141
1.768,0.007019376461573753,5900.013104470649
1.772,-0.1250083026200619,5908.977172094392
1.776,-0.24829229274607678,5907.766074142087
1.78,-0.304617579941371,5908.5164742584175
1.784,-0.24234067315921978,5905.037899802406
1.788,-0.035618757898727475,5910.274989955568
1.792,0.3011257889346163,5903.847630422903
1.796,0.7107707925532767,5906.706049403006
1.8,1.1058107602073488,5901.643802738508
1.804,1.3920923963261436,5900.478912582295
1.808,1.4960855525354444,5904.534718625406
1.812,1.3866386716446615,5902.937371779227
1.816,1.0844086500484373,5894.623068813103
1.82,0.6563616128639203,5900.305800758954
1.824,0.19737136414923,5904.772604589082
1.828,-0.19515596468804647,5902.734019398047
