时间(s),电压(V),幅值(高频80K)
0.0,3.1456400487802596,5900.632554700578
0.004,1.924182893224491,5904.198623346512
0.008,0.8181622467818018,5905.202447273244
0.012,-0.07417250729046965,5900.901994359544
0.016,-0.6913063846401694,5898.188695815054
0.02,-1.0217867533028466,5902.644685270298
0.024,-1.1055876929227253,5908.499432133793
0.028,-1.0202199658311635,5900.079982262473
0.032,-0.8561185052013126,5896.592239616497
0.036,-0.6910320839704641,5897.246599241536
0.04,-0.5724332086660626,5905.581225939812
0.044,-0.5122014964893065,5899.582906334699
0.048,-0.49277879162893357,5908.10206067018
0.052,-0.4809182589315713,5899.370049516079
0.056,-0.4439523814186257,5909.042187622255
0.06,-0.36326457883853197,5898.203569865185
0.064,-0.2405536095186287,5896.600520125349
0.068,-0.09524193541109306,5902.82774308458
0.072,0.04504322514139943,5903.228170825336
0.076,0.15676829244372534,5897.294748220057
0.08,0.23104214746943186,5895.306520795069
0.084,0.2784561224706715,5898.89938917046
0.088,0.32579346280384247,5905.5157429667415
0.092,0.405122613949594,5891.922501605954
0.096,0.5392098999211781,5899.176581734984
0.1,0.7291700081524527,5906.469374295446
0.104,0.9495927744488708,5900.683415248654
0.108,1.1534406831460793,5899.455507667146
0.112,1.2852876367732764,5899.126715342583
0.116,1.298471371631715,5895.739087603882
0.12,1.1704004505570158,5887.800295222881
0.124,0.9108216200545438,5904.207139544456
0.128,0.5599855251060719,5896.273113883733
0.132,0.17681576444648875,5892.634746872134
0.136,-0.17933928084334408,5899.032027398882
0.14,-0.4671737697746609,5894.959998854632
0.144,-0.6755325283596372,5897.287407506758
0.148,-0.8250652121348669,5904.694160140553
0.152,-0.9593362818480601,5902.989068132715
0.156,-1.1282087714781488,5898.035752710747
0.16,-1.3672983499097848,5901.119211422543
0.164,-1.6782167993140678,5900.843848569685
0.168,-2.0163445362973977,5897.725464523015
0.172,-2.2937828242610356,5900.039698142576
0.176,-2.401564119017475,5904.283042947984
0.18,-2.246801618760339,5900.3953430381
0.184,-1.7914935692238352,5901.86427832509
0.188,-1.0763138527654166,5900.850777052702
0.192,-0.21785975981706293,5907.012247623159
0.196,0.6213584708071528,5898.994645853527
0.2,1.280001037168493,5902.475204680338
0.204,1.6450250924701832,5904.027724178657
0.208,1.6815276147404772,5895.117060454949
0.212,1.435267782198241,5898.60227371575
0.216,1.0097933368509764,5890.511205851932
0.22,0.5299997357847945,5897.223800899671
0.224,0.10655684414630495,5897.4735833480845
0.228,-0.18865014405477185,5897.472954106404
0.232,-0.3325455925077343,5900.7021604031215
0.236,-0.3475294287476341,5900.334316500066
0.24,-0.2878738411599995,5890.110580870362
0.244,-0.22011250683023884,5905.453663893012
0.248,-0.20322567233216554,5890.513934624647
0.252,-0.27443316003965895,5904.338049283668
0.256,-0.4432823267114786,5900.871134854189
0.26,-0.6926042965567616,5898.551962847304
0.264,-0.9832887072149689,5903.738794694707
0.268,-1.2611268129622575,5891.885036195815
0.272,-1.4657571235597104,5900.93849182641
0.276,-1.5420588238830357,5904.810159363447
0.28,-1.4531044918965574,5896.919897180105
0.284,-1.1919593243711717,5901.495080859191
0.288,-0.7884529954059356,5898.218630524268
0.292,-0.307426545169868,5896.798606147768
0.296,0.1631863326245284,5898.781185217053
0.3,0.5330449281722959,5893.850900203302
0.304,0.7335424659079514,5902.521443437849
0.308,0.7369374329998353,5896.561354781502
0.312,0.5625036700030606,5899.169985067068
0.316,0.2670940226750548,5896.98109356137
0.32,-0.07509265421903227,5902.9112772148455
0.324,-0.39435930271827263,5899.192842043644
0.328,-0.6409720245590287,5899.050131035661
0.332,-0.7911799823973478,5898.500406696889
0.336,-0.8456148259579329,5892.936548750187
0.34,-0.8239020976664407,5893.502553672207
0.344,-0.7581696492134201,5902.029919855552
0.348,-0.6858585699134879,5905.6630378751815
0.352,-0.6413943685629911,5909.1833760078935
0.356,-0.6476347630057201,5894.043971296222
0.36,-0.7098590398939585,5897.625953808932
0.364,-0.8149511621334768,5895.82874028118
0.368,-0.9358819928551023,5898.960020369155
0.372,-1.038901151441838,5894.676713519648
0.376,-1.0904805878453112,5896.830432784885
0.38,-1.0627574828684605,5892.226477491882
0.384,-0.9377623754853491,5899.1610496115645
0.388,-0.7108194793910235,5896.576963355409
0.392,-0.3926864630051225,5888.789441620893
0.396,-0.009277580913602474,5906.393201840263
0.4,0.4019553958504554,5898.245060076655
0.404,0.7984686859292013,5902.754298146028
0.408,1.1399719944952262,5901.301326022285
0.412,1.395026979292595,5902.9794274289525
0.416,1.5465977689124695,5894.011357280599
0.42,1.596220339343569,5886.8561434117055
0.424,1.5646809677431754,5891.770107464146
0.428,1.48646550613041,5896.012717767722
0.432,1.397974293924032,5896.615430229624
0.436,1.3238362818145573,5895.502331655976
0.44,1.2678608163754115,5905.986127610326
0.444,1.213354506176944,5901.326328630389
0.448,1.1326739845163476,5898.607329443241
0.452,1.0007787802655053,5894.306357305768
0.456,0.8056061440169637,5892.021345433298
0.46,0.5509385826630792,5896.580849724978
0.464,0.25262102349534815,5906.094872564864
0.468,-0.06790860464597956,5906.995529011187
0.472,-0.38926433357210277,5897.588736364809
0.476,-0.6932856058257337,5914.418102666535
0.48,-0.9653901657350173,5901.509825200858
0.484,-1.1925767154757076,5886.922046709256
0.488,-1.3603953457179347,5892.889621683665
0.492,-1.450737420746563,5908.415862370536
0.496,-1.442078103009551,5901.586203625645
0.5,-1.3130954411200146,5905.6299353495215
0.504,-1.0496824814514822,5903.3583968940975
0.508,-0.6539060206948336,5893.601379532756
0.512,-0.15153820193111342,5899.849249194566
0.516,0.4061032022393426,5897.793432756395
0.52,0.9486882899899023,5905.410169406189
0.524,1.400929789150488,5902.022935338037
0.528,1.6999168606103088,5902.647006883221
0.532,1.8100199310525094,5891.9161461147605
0.536,1.730534541124966,5900.743736754607
0.54,1.494045526654104,5900.254319468412
0.544,1.157179183970607,5899.481765726513
0.548,0.7877289874518982,5899.391266906614
0.552,0.45146221872447545,5897.509782412833
0.556,0.1999666135514502,5902.3431748938165
0.56,0.0607891552536958,5892.663291892387
0.5640000000000001,0.03258411675909033,5899.611253448165
0.5680000000000001,0.0877431141787615,5906.836626270585
0.5720000000000001,0.1818500027639488,5899.161007117163
0.5760000000000001,0.26611414764341523,5897.985276683095
0.58,0.298737875918662,5902.632151427415
0.584,0.25335918650779093,5892.522989082544
0.588,0.12421315191639631,5891.804134923414
0.592,-0.07262332300986404,5893.027325866959
0.596,-0.3026886202368999,5898.120248325639
0.6,-0.5208544115659445,5901.279461219775
0.604,-0.68145655528667,5889.759644846102
0.608,-0.7484144481663786,5900.336378301278
0.612,-0.7028553781946401,5907.785333944533
0.616,-0.5463604892670583,5899.274291806156
0.62,-0.29954736904395296,5903.006096924204
0.624,0.0027050721781676714,5897.568984288197
0.628,0.31774386244911784,5906.097449666292
0.632,0.6023614953861695,5895.497266686881
0.636,0.8202682163066723,5895.064463447096
0.64,0.9490563771700383,5897.623569924875
0.644,0.9852804306882672,5895.6363028852265
0.648,0.9461190962934306,5896.333608243465
0.652,0.8666412551662931,5903.701074636151
0.656,0.79278054524378,5895.956636007093
0.66,0.7714445183540081,5903.123840731395
0.664,0.8400760789088203,5899.214422016099
0.668,1.017827067234207,5896.604652001909
0.672,1.2998087149952182,5907.640474729982
0.676,1.6556980602119273,5896.207118194664
0.68,2.034102821693702,5893.114622576861
0.684,2.3731867384262104,5892.436043418322
0.6880000000000001,2.615529835043034,5893.800001529179
0.6920000000000001,2.7222442738551544,5897.554209380133
0.6960000000000001,2.6804099639837538,5888.041771598868
0.7000000000000001,2.500666187710352,5906.484955623299
0.704,2.2072700991905645,5897.049348869906
0.708,1.8274433584051093,5890.604655189
0.712,1.3868201444597101,5902.9079122069015
0.716,0.9127468287233812,5911.562224155342
0.72,0.4404436888151085,5904.691291145461
0.724,0.014016208506680063,5898.802085504592
0.728,-0.32196023122800965,5893.725039740228
0.732,-0.5367847114814548,5897.147318895373
0.736,-0.6251467824068876,5907.630824692419
0.74,-0.6085774423846158,5897.829938460927
0.744,-0.5261788284523504,5906.554877837745
0.748,-0.42029046552359894,5900.127817418284
0.752,-0.3247076722179285,5897.827610897456
0.756,-0.26016679796499426,5894.751303475483
0.76,-0.2365269521171628,5897.578101632354
0.764,-0.25701056254153243,5893.389717923021
0.768,-0.3196473615630483,5900.559685550742
0.772,-0.41468619766832887,5892.15500131527
0.776,-0.5211718989165596,5901.267910644446
0.78,-0.6072113364838351,5901.376167408041
0.784,-0.6357039438715185,5906.852173239397
0.788,-0.5735257006623233,5899.537048468516
0.792,-0.40062067582342575,5889.063784075167
0.796,-0.11637816478228798,5904.929811618452
0.8,0.25777314739585055,5899.057361750708
0.804,0.6799495893784324,5903.003250613056
0.808,1.0942067115458547,5905.588152150423
0.812,1.4419112434958197,5898.342443249581
0.8160000000000001,1.6758144260726957,5904.239908132942
0.8200000000000001,1.7717008607131586,5901.638187523785
0.8240000000000001,1.7323979578504998,5901.93214679098
0.8280000000000001,1.5824554145110494,5898.446872125553
0.8320000000000001,1.3565173705334392,5902.468206750348
0.836,1.0872442590311924,5897.55429964261
0.84,0.7980214059207051,5900.683353468269
0.844,0.5020625789500138,5905.212156260733
0.848,0.20548739252461057,5897.36589011928
0.852,-0.08938039608758298,5901.281511930844
0.856,-0.3823784824505567,5901.165477729983
0.86,-0.6746611808048847,5897.444414692704
0.864,-0.9665132861807377,5901.945577343472
0.868,-1.2527272388338915,5901.194611706068
0.872,-1.5169686086577852,5899.342299952374
0.876,-1.7287045834746828,5900.371594482642
0.88,-1.8463712653586821,5899.7239888003305
0.884,-1.8281411664607612,5906.274489332348
0.888,-1.647870874954448,5892.435540695442
0.892,-1.3102647544421415,5907.823729425615
0.896,-0.8579702546112606,5900.280420316157
0.9,-0.36567806499245037,5893.7957391419495
0.904,0.07814862405136136,5903.832900919408
0.908,0.3954251582415526,5900.642693778469
0.912,0.5392519850390287,5897.566856037063
0.916,0.504075047285256,5902.632910596569
0.92,0.3231398273125245,5901.22971609667
0.924,0.056578269923929336,5901.052550458229
0.928,-0.22384487999785088,5893.374866306108
0.932,-0.448269127309289,5894.010872369742
0.936,-0.5587341088733542,5896.675551351285
0.94,-0.5165376939183309,5893.75452116298
0.944,-0.30824794762697844,5904.326068339959
0.948,0.049737781645335453,5892.920835568591
0.952,0.5098040253300248,5892.620661937008
0.956,0.99753252266976,5892.978830764047
0.96,1.424012192612739,5905.327167881139
0.964,1.7053025694709998,5900.456633219931
0.968,1.784188614285336,5911.194358890946
0.972,1.6469163900102146,5903.802474027901
0.976,1.3285871062711194,5901.068858898315
0.98,0.9044420847522044,5890.167059227628
0.984,0.4689157751764659,5889.016142143124
0.988,0.10891675109215318,5880.671695228327
0.992,-0.11952845070683753,5889.923614914759
0.996,-0.2032614586147759,5895.150196270507
1.0,-0.16936056491647897,5896.9172537763325
1.004,-0.0705165194608578,5906.317046265362
1.008,0.034941476074238434,5888.405287625181
1.012,0.1011174664654426,5894.924529305987
1.016,0.10576631328128774,5891.017270424039
1.02,0.05296435623837314,5899.752679186131
1.024,-0.03199587075296139,5904.758755142846
1.028,-0.11325510823269239,5899.678008105114
1.032,-0.15712232652018632,5906.333732823862
1.036,-0.1425437211219935,5906.272464848724
1.04,-0.06583475681866476,5900.537487434715
1.044,0.06057158209075033,5899.759910211043
1.048,0.21235952048364554,5895.765818538612
1.052,0.35754026415571444,5893.862476791556
1.056,0.460789810724624,5893.757877791186
1.06,0.4902310663269356,5899.419149628149
1.064,0.4267974869160303,5904.606325547658
1.068,0.272119268995119,5898.351217835538
1.072,0.05006136619652187,5907.766121549625
1.076,-0.1992356549739808,5899.794324305065
1.08,-0.4299383134153627,5898.488214071065
1.084,-0.6016937247963433,5894.094772936557
1.088,-0.6880895951124124,5902.470534565528
1.092,-0.6803577335199923,5905.981968425543
1.096,-0.5861872177625514,5901.227160662644
1.1,-0.42528451292498676,5893.603419979292
1.104,-0.22351963600852812,5891.818995471176
1.108,-0.006712967700664036,5899.944442440503
1.112,0.20492843554978699,5891.002399707342
1.116,0.40002319478547854,5896.8951195021045
1.12,0.5752825606097789,5898.501739590713
1.124,0.7309234555183511,5900.946067285046
1.128,0.8646059215654949,5902.120340704391
1.132,0.9672986142627271,5897.996322813284
1.136,1.0232286433624964,5898.07328744091
1.14,1.0136106787374843,5897.818243952413
1.144,0.922320828245333,5899.629151424077
1.148,0.7418636957134233,5900.363034833704
1.152,0.47866083585340485,5902.778883724957
1.156,0.15668377206452028,5903.365136476287
1.16,-0.18193746612574946,5898.156002174518
1.164,-0.4806575881238097,5895.275853847905
1.168,-0.6772020726258833,5896.766279245032
1.172,-0.7164714881205003,5889.176554961872
1.176,-0.5652784177936145,5907.873873833403
1.18,-0.22487120266689806,5895.383146588637
1.184,0.2637770713888178,5897.133937318327
1.188,0.8258846033035068,5896.251233661216
1.192,1.3700162044838293,5895.727307097089
1.196,1.8112487618813968,5904.730633476585
1.2,2.092007894977007,5902.56139783191
1.204,2.1935772152702957,5901.672504342928
1.208,2.1358328577732184,5893.820605182198
1.212,1.967146518854695,5892.0682765217325
1.216,1.7487155008436124,5904.130319221894
1.22,1.5381939879802828,5914.671566381225
1.224,1.3769839890510893,5900.922992036315
1.228,1.283935753937497,5902.384753814185
1.232,1.2559413703672813,5900.989255667884
1.236,1.2738300369873752,5902.984903854837
1.24,1.3106898114854075,5903.707399549968
1.244,1.339551141484412,5894.212719689005
1.248,1.3384650143097394,5896.046343629612
1.252,1.293009728353225,5893.285541229424
1.256,1.1977367600179676,5901.772052115014
1.26,1.0576656911801492,5899.4378881288085
1.264,0.8891039698359297,5889.445312330842
1.268,0.7176653360064403,5895.992932232991
1.272,0.5718392276516882,5900.495450099954
1.276,0.47289672698806784,5892.148437166405
1.28,0.42490394280708066,5895.186790672322
1.284,0.40986619250051487,5897.915967734439
1.288,0.3912601193855037,5888.017078730996
1.292,0.32554732595151764,5894.009109636909
1.296,0.17799820357036933,5897.316755199303
1.3,-0.06245838947938225,5893.360190098767
1.304,-0.3746167464289354,5899.17031104455
1.308,-0.7063419068698027,5902.934299769111
1.312,-0.9867280853262275,5896.343121763525
1.316,-1.1462373608785499,5896.503965615874
1.32,-1.1385569648409652,5900.674514921427
1.324,-0.9562179442884753,5902.870038185545
1.328,-0.6336096236685107,5897.156117475202
1.332,-0.2359854596718281,5893.463947249898
1.336,0.16094159957519788,5898.419836350399
1.34,0.4926297068856551,5901.83582168109
1.344,0.7211464802929394,5900.670338922759
1.348,0.8408834268784333,5895.759593547526
1.352,0.8750215744187623,5895.978766185647
1.356,0.865501168254102,5904.651157460453
1.36,0.8598340152853879,5892.112769865734
1.364,0.8977566969131435,5899.696084078449
1.368,1.0002619091274605,5897.4483850529095
1.372,1.1632774484877497,5897.69000015914
1.376,1.3576356163081096,5897.87715321579
1.38,1.5354725807149503,5905.403500896808
1.384,1.6413980123574614,5900.379160363474
1.388,1.625830165474481,5900.239339751454
1.392,1.4580022764082312,5901.587015677549
1.396,1.1363170836104028,5894.948015412708
1.4,0.6933871488327764,5893.689051313601
1.404,0.19306828586574207,5911.339173435126
1.408,-0.28172331335183887,5893.160132165678
1.412,-0.6482967484587228,5898.932614174388
1.416,-0.844707260534042,5899.777102523255
1.42,-0.8443784371000636,5898.561003074772
1.424,-0.6605052020414018,5905.437700751611
1.428,-0.3406751089085419,5894.690517192411
1.432,0.044806183543109494,5897.770463061517
1.436,0.4174203511838231,5899.637278983798
1.44,0.7057466707618986,5898.732781300453
1.444,0.8598384097995713,5894.112681301997
1.448,0.8615168460796593,5902.443836237424
1.452,0.7267549795206775,5888.875902735239
1.456,0.49852504245274265,5898.870300906334
1.46,0.23234384051482326,5897.303705719831
1.464,-0.02044755500406141,5906.12371628544
1.468,-0.2260687506485286,5886.615762463582
1.472,-0.374317638348491,5898.910051801359
1.476,-0.47639325999605875,5899.553819889587
1.48,-0.5570056423077729,5895.50947905877
1.484,-0.6445847277963308,5887.193598642005
1.488,-0.7625494564116932,5910.3495024569
1.492,-0.9234267461250482,5902.468057342036
1.496,-1.126825310633509,5901.674203486511
1.5,-1.3608480773398128,5893.843827579468
1.504,-1.60500476464896,5895.241898616307
1.508,-1.8330455318588543,5890.560095162545
1.512,-2.016035523485779,5894.792751997279
1.516,-2.126820286909674,5908.546406429412
1.52,-2.145745665586605,5899.878507545355
1.524,-2.065777546191716,5899.828216862706
1.528,-1.8948314420327026,5908.324551025976
1.532,-1.654122187334994,5901.789036977934
1.536,-1.372813449405417,5899.904848893985
1.54,-1.080889584790439,5897.935053288591
1.544,-0.8033622422095642,5898.907153790348
1.548,-0.5581212018369491,5895.432194511756
1.552,-0.3568653245197102,5901.173749116209
1.556,-0.20634857943184337,5902.985745136775
1.56,-0.10780401522508884,5894.247455916975
1.564,-0.0544685530705229,5892.8424768168425
1.568,-0.02850181893913852,5898.621552299841
1.572,0.0004562611595024349,5908.530775646755
1.576,0.07204316493249605,5902.155783020575
1.58,0.2253930711156178,5901.803877848129
1.584,0.4847879762399941,5903.168350062363
1.588,0.8463181787456976,5896.585327751299
1.592,1.2715287815747547,5903.385433276462
1.596,1.6913136670155045,5893.508683682655
1.6,2.0197747025072377,5893.7540723651655
1.604,2.1753024066040263,5903.544552416411
1.608,2.1044912619078757,5897.754038187669
1.612,1.802250986213552,5904.422850124149
1.616,1.3195778668504992,5899.95233908961
1.62,0.7526121734363403,5902.465975425885
1.624,0.21428428689900103,5886.874014036819
1.628,-0.201123044156028,5907.040078581052
1.632,-0.44613463349057536,5898.749362233965
1.636,-0.5300177345830003,5893.8780321606255
1.64,-0.5076561715213974,5894.697823362541
1.644,-0.45309141974937195,5901.851757788857
1.648,-0.4292756391576026,5896.100422161349
1.652,-0.4662956962953456,5900.686432432928
1.656,-0.5554363331383301,5897.02491074275
1.66,-0.6588251318048358,5903.483042091697
1.664,-0.728448195780734,5909.409988815677
1.668,-0.7263611136683917,5894.920738193529
1.672,-0.6392380915896545,5902.32419940377
1.676,-0.48328293697950514,5898.212321107409
1.68,-0.29882360723886875,5900.1760723267535
1.684,-0.13694475849351312,5900.849695817698
1.688,-0.04281049651477569,5891.980788364649
1.692,-0.041518847067142275,5903.53432248583
1.696,-0.13162594416320345,5901.151785356877
1.7,-0.28823821550394135,5905.514605397965
1.704,-0.47307881249756484,5909.360815383926
1.708,-0.6461808929859028,5893.326415365643
1.712,-0.7744872451840427,5899.353863329041
1.716,-0.8353692508033789,5896.800369484086
1.72,-0.8158735176985458,5894.476142284684
1.724,-0.7104257796699299,5902.449490812216
1.728,-0.5200204632694752,5890.875166669547
1.732,-0.25391658671573597,5901.164424100493
1.736,0.06803175355704492,5891.55834316246
1.74,0.4150883151060167,5896.061601654242
1.744,0.7482535029422249,5905.173798490816
1.748,1.0250381202218344,5902.106785551208
1.752,1.206047205134612,5904.243959723606
1.756,1.2635505102600662,5898.943356444514
1.76,1.190650240890823,5901.454748240935
1.764,1.0073047592180695,5899.607498474832
1.768,0.7592955636999759,5902.34912076396
1.772,0.5088741423089354,5905.419153144336
1.776,0.3194344651669181,5902.693807626921
1.78,0.2391281123070481,5904.976139732438
1.784,0.2886544359220057,5902.526849608645
1.788,0.4564041968413753,5903.789758165406
1.792,0.7013853797664631,5902.758547281372
1.796,0.9627980318762163,5910.33955961982
1.8,1.1743958354202126,5893.754366456547
1.804,1.2805710970506456,5902.724981622911
1.808,1.2499016770961164,5898.62909828725
1.812,1.082143899322014,5893.143269609331
1.816,0.8065619473372413,5897.791633011103
1.82,0.4722773093853171,5892.379423697077
1.824,0.13425478225566237,5895.555419525296
