时间(s),电压(V),幅值(高频80K)
0.0,2.0802953299653546,5903.659303327335
0.004,1.2344128833599648,5897.558485486641
0.008,0.47629152945662007,5895.197686688077
0.012,-0.12283763819782238,5902.81139680578
0.016,-0.5199023301192474,5895.401434981271
0.02,-0.7081399990260596,5898.186169504092
0.024,-0.7155828669025701,5903.737235270043
0.028,-0.5931573758953663,5902.632592599413
0.032,-0.39740778022842105,5896.34875065298
0.036,-0.1755725616871766,5895.783658388024
0.04,0.04185877236699474,5898.602841572497
0.044,0.24119615406837364,5901.086887621859
0.048,0.42156496257304615,5895.806198054395
0.052,0.58999572502313,5901.911301386729
0.056,0.7570566505334085,5899.492804843236
0.06,0.9334572417562946,5886.449512188431
0.064,1.1274005626769896,5903.764863497663
0.068,1.341891683182688,5900.056868697211
0.072,1.571458103207768,5899.76926374893
0.076,1.7991155363447207,5888.751183134339
0.08,1.995919563600344,5892.750394694074
0.084,2.125339905581357,5904.408974692414
0.088,2.1520912118508138,5899.109443329929
0.092,2.0518130762914066,5902.517928052378
0.096,1.817498437949812,5894.091482002385
0.1,1.4612424532876023,5903.148370825517
0.104,1.0122510205089947,5901.162885102484
0.108,0.5118249651522571,5898.2320015042405
0.112,0.005244369246928527,5896.348607947988
0.116,-0.46822432079887766,5900.126451802741
0.12,-0.8835068751753739,5899.083602903194
0.124,-1.2320208279352938,5892.924955879709
0.128,-1.5170269123048457,5889.720172403387
0.132,-1.744936004756319,5893.386082556141
0.136,-1.9173184091410107,5901.44275626753
0.14,-2.0274208247680297,5909.5744128850565
0.144,-2.0625495976189905,5907.919410301746
0.148,-2.011032697827658,5902.11430316086
0.152,-1.8703928817031623,5901.729228493073
0.156,-1.6524672389673305,5897.8560820446855
0.16,-1.3822793246107685,5906.739634337597
0.164,-1.0907027162337877,5898.797305791979
0.168,-0.804832906408514,5899.902048654922
0.172,-0.5418119597418432,5893.376115983654
0.176,-0.30971681370034476,5899.125093802397
0.18,-0.11398319467094581,5906.535832959871
0.184,0.03609713281623717,5900.672172668997
0.188,0.1253241603453286,5900.970425240188
0.192,0.1352849610454499,5894.230514280787
0.196,0.04952146135780426,5896.58245896069
0.2,-0.14050897365466988,5910.972674425439
0.204,-0.4293980309548396,5900.739838516167
0.208,-0.793018530424413,5902.069816323765
0.212,-1.1875317956610798,5896.748762307168
0.216,-1.5547369355791105,5899.4739196963255
0.22,-1.8344068128847353,5896.140569657599
0.224,-1.9805741591401906,5907.404436226419
0.228,-1.9754811298403094,5892.06444550809
0.232,-1.8347777325510464,5904.843536253993
0.236,-1.6009484670018341,5895.749548838215
0.24,-1.3272224360685534,5900.059716207915
0.244,-1.0590338456006105,5905.729426557853
0.248,-0.8215227699989689,5900.341469707665
0.252,-0.618005217245093,5909.689415390453
0.256,-0.438088598074352,5894.132638907633
0.26,-0.26960305661760436,5903.886587417695
0.264,-0.10815163124241949,5903.466271622327
0.268,0.039062093758446305,5898.248731550528
0.272,0.15501088582177208,5903.819546611408
0.276,0.21830621078798707,5907.83378100045
0.28,0.2104753639727214,5896.799381602572
0.284,0.12353879936032199,5910.675741433946
0.288,-0.03391688926327798,5896.081074839224
0.292,-0.23435682372633662,5904.455134686243
0.296,-0.43438642756556095,5903.969870084857
0.3,-0.5836994640447183,5900.935176626844
0.304,-0.6383661877567712,5901.966325341035
0.308,-0.5750769200713328,5905.484939086175
0.312,-0.4016123362251386,5899.39568373548
0.316,-0.1588879468555885,5894.810457895186
0.32,0.08768678417443725,5901.602022449695
0.324,0.26573661870858684,5902.205162912275
0.328,0.31694902294033084,5892.389151864583
0.332,0.21478374764116967,5895.505729647897
0.336,-0.02684384729740838,5897.449365125231
0.34,-0.35654523945059996,5899.227344521351
0.344,-0.6990817932382881,5903.262508611892
0.348,-0.9756148549528955,5892.492864073007
0.352,-1.1247114484266332,5904.574490578524
0.356,-1.1178723350698565,5902.019846017838
0.36,-0.9650146712116447,5899.680208755386
0.364,-0.7087116264784152,5901.700929587752
0.368,-0.409762525935573,5905.89900039131
0.372,-0.12946026336315056,5903.392177683723
0.376,0.08532100744594052,5893.284595408936
0.38,0.20996124554051546,5898.86474417334
0.384,0.24237241282607244,5903.831856877918
0.388,0.19846969813958037,5907.974313767714
0.392,0.10602791382756806,5904.473479083829
0.396,-0.0015494462646184768,5899.691817945846
0.4,-0.09117886770017132,5903.094910092561
0.404,-0.13518879276312118,5902.490423083065
0.408,-0.11483012921721886,5905.69630469387
0.412,-0.022183927894364915,5898.667237016404
0.416,0.13904109084204416,5900.111782799267
0.42,0.3538281209993336,5913.286718443745
0.424,0.5977986685817414,5896.254195034583
0.428,0.840727464908817,5899.297656307567
0.432,1.0507720322175185,5891.169787552028
0.436,1.1987579874011423,5895.010639077034
0.44,1.2625574040287264,5902.381743436175
0.444,1.2314566435642076,5916.935988325266
0.448,1.1091451589929537,5901.311801939779
0.452,0.9129828846555791,5895.348301669641
0.456,0.6684988678897966,5897.435490998371
0.46,0.4015273772056475,5904.603984901363
0.464,0.1328240517852887,5910.151282783942
0.468,-0.1215121446723873,5906.450292622687
0.472,-0.344958523240007,5892.345888460407
0.476,-0.5155527502730035,5901.668576496189
0.48,-0.6056104448511029,5906.756911105377
0.484,-0.5875053204058253,5901.996985656539
0.488,-0.4428295918691701,5907.419796609012
0.492,-0.17041424399500774,5902.091998563562
0.496,0.2100754657767404,5898.211533313665
0.5,0.6595394578920672,5898.0049161690695
0.504,1.124599593827751,5899.273255442635
0.508,1.5452415925728804,5898.8370182897
0.512,1.8641215483547668,5903.02941120404
0.516,2.036287934664328,5906.161391827538
0.52,2.037354562269089,5911.144060671022
0.524,1.8683455240020697,5903.752817677837
0.528,1.5561823386154128,5909.063511311489
0.532,1.1493037070687946,5904.074334710687
0.536,0.70857092870699,5895.85648379834
0.54,0.29488403189748563,5898.814826543653
0.544,-0.04367015478431008,5901.191270052472
0.548,-0.281433494404692,5896.595692646758
0.552,-0.418085702636656,5908.769008269166
0.556,-0.47356204260347434,5906.635720147605
0.56,-0.47740897957093364,5896.807104139303
0.5640000000000001,-0.4576025827572073,5899.819337380497
0.5680000000000001,-0.433035801035598,5904.336718562692
0.5720000000000001,-0.4107810050596775,5890.136311216023
0.5760000000000001,-0.3870243428612544,5905.12846817721
0.58,-0.3505728806257924,5905.754947914111
0.584,-0.28865828559784573,5902.143575823486
0.588,-0.19449888832760184,5899.327209770273
0.592,-0.07443508264147793,5896.749973572768
0.596,0.04888811616683822,5898.984243343831
0.6,0.13997218976558348,5899.296077622731
0.604,0.1603198681878793,5907.662583529993
0.608,0.08139473820149057,5895.494825268773
0.612,-0.10416968476101472,5900.058898677135
0.616,-0.37758736848228325,5901.386569461634
0.62,-0.6975189743473846,5906.338241894986
0.624,-1.0112681078305874,5911.3082513773525
0.628,-1.2694178714338056,5897.410791277124
0.632,-1.4384658558407668,5898.77912257396
0.636,-1.5071660521267054,5900.416850900376
0.64,-1.4849676321823204,5903.582340902442
0.644,-1.3938973741024052,5902.178386168433
0.648,-1.2576411306556134,5910.563601460347
0.652,-1.0927397729687054,5911.672787921764
0.656,-0.905863954185273,5897.621252625313
0.66,-0.697948744194819,5900.182811886099
0.664,-0.4721886840853198,5899.806958261146
0.668,-0.2410031756509617,5892.403360646323
0.672,-0.028020384173707388,5908.9564531166825
0.676,0.13640018863373174,5894.1328575808375
0.68,0.22494328734084493,5898.432301519378
0.684,0.224658138788194,5899.529495151424
0.6880000000000001,0.1443239765186132,5910.537095358809
0.6920000000000001,0.013309971662541362,5914.901987785543
0.6960000000000001,-0.12857790609968123,5901.078693021809
0.7000000000000001,-0.2459369521136493,5902.911465171636
0.704,-0.3203617173164746,5898.096666916709
0.708,-0.35489019079426887,5900.147253242152
0.712,-0.368397573587708,5904.6906451276855
0.716,-0.3829990973978946,5898.523129321929
0.72,-0.41100697681811105,5916.142375081788
0.724,-0.4480322268370815,5899.219062563219
0.728,-0.47533807676026607,5890.329639921683
0.732,-0.4697453723486359,5898.523632656828
0.736,-0.41598438009452415,5899.441895418355
0.74,-0.31567504115387873,5909.775303829364
0.744,-0.18894574361773364,5905.845344465252
0.748,-0.06811189166781761,5907.846930031007
0.752,0.013643387565445711,5900.920963936348
0.756,0.0334790905732029,5906.280679788112
0.76,-0.01486861235971531,5908.019832666043
0.764,-0.12172950034222291,5894.398844001451
0.768,-0.2666539624395737,5896.8642338671325
0.772,-0.4232866335072924,5899.9495953192445
0.776,-0.5608744497876615,5901.136413160687
0.78,-0.6439168022068205,5912.698695108727
0.784,-0.6347685770553677,5898.85814498957
0.788,-0.5025526325617002,5899.551259212802
0.792,-0.2362562449936566,5901.473186052902
0.796,0.14494335490018725,5904.193306712493
0.8,0.5909964233814577,5906.017890168883
0.804,1.031800966565087,5891.990756167306
0.808,1.3951448853760986,5904.655219503838
0.812,1.6241690441282708,5899.246827272793
0.8160000000000001,1.6883780882672246,5903.1405690385645
0.8200000000000001,1.586725136881577,5888.6000455532185
0.8240000000000001,1.3447050887418817,5901.694826823504
0.8280000000000001,1.007753830627305,5898.816611476531
0.8320000000000001,0.6320697574387169,5905.178487661553
0.836,0.2736521942127117,5900.069168800142
0.84,-0.02255357451903189,5909.812912745592
0.844,-0.23049625135740107,5908.422425567491
0.848,-0.34567334581220127,5901.403753564883
0.852,-0.3826013620047438,5902.845971726534
0.856,-0.36862714615308695,5895.590809587393
0.86,-0.3355670976902313,5901.263903664949
0.864,-0.31036986627555524,5905.544184115652
0.868,-0.3065887423601041,5901.935540131572
0.872,-0.3192409994663781,5902.420205071718
0.876,-0.32528475895828135,5901.007666956571
0.88,-0.29011511754463315,5891.338040373164
0.884,-0.17824054661974933,5898.404920783474
0.888,0.03494245799348521,5894.5482222285
0.892,0.35325452382507516,5902.982057895394
0.896,0.7539047546587734,5900.450543368932
0.9,1.1871364054604376,5904.316153087373
0.904,1.5821409330591751,5905.292596589862
0.908,1.8590992764055991,5902.165426265395
0.912,1.94564309966538,5901.327380356725
0.916,1.7944918759881785,5903.891826933586
0.92,1.398248937020924,5889.486485589837
0.924,0.7972491283376496,5900.808308435986
0.928,0.0769430053528458,5891.173990511381
0.932,-0.6467723973510942,5890.984169961555
0.936,-1.252370344523732,5902.976233041757
0.94,-1.641719200687793,5906.770131346685
0.944,-1.7647273388408427,5898.699356854755
0.948,-1.6314604099430308,5897.67263746536
0.952,-1.307461701909394,5898.510600502096
0.956,-0.8939377866081454,5898.48893307742
0.96,-0.499821846563439,5902.856936599576
0.964,-0.21490215631231574,5898.962136528247
0.968,-0.09146990618704973,5906.923997805217
0.972,-0.13794557275456315,5900.570743311469
0.976,-0.3239791452501145,5909.38029279967
0.98,-0.5936346293280076,5901.352506000131
0.984,-0.8814553108492978,5898.015833356135
0.988,-1.1259381627959966,5898.879322771677
0.992,-1.2771824415468178,5905.520537986565
0.996,-1.2995085392127417,5896.945105301013
1.0,-1.172542999133483,5894.761608504002
1.004,-0.893210873849339,5903.026927550106
1.008,-0.47787435648642135,5899.697495995139
1.012,0.03763280529584683,5893.8485945656175
1.016,0.6010038303519204,5891.315157655028
1.02,1.1488430275375958,5914.400445339247
1.024,1.61382910084292,5894.75082151453
1.028,1.9335278367222875,5908.837182414068
1.032,2.0602601344458114,5901.32878199774
1.036,1.9706223366913547,5908.205623615627
1.04,1.6727398757231995,5893.082293114048
1.044,1.2088017595456566,5896.858360179432
1.048,0.6504904251135687,5894.159457623795
1.052,0.0868534368169455,5908.91672773696
1.056,-0.39267330546085016,5902.243731006093
1.06,-0.7152091991553591,5894.591431359639
1.064,-0.8366864229382697,5902.010204884847
1.068,-0.7472958252381127,5902.7285480493965
1.072,-0.47125591909555103,5905.141831857879
1.076,-0.06327287896141899,5901.897599139936
1.08,0.39793962464585564,5898.585505381166
1.084,0.8211396839679926,5889.65995381249
1.088,1.120087695004037,5898.4844972427545
1.092,1.2338589299568785,5901.644284827938
1.096,1.1430421156322026,5903.436576014218
1.1,0.8753277226862767,5904.514950259863
1.104,0.49806106305143133,5908.733762364976
1.108,0.10017388016928044,5905.970431211224
1.112,-0.230931025666278,5902.437819968427
1.116,-0.43116138010701704,5899.196384718413
1.12,-0.4749708390148358,5906.490732023851
1.124,-0.38097963927118594,5894.75983195402
1.128,-0.20681907487025586,5905.764199139601
1.132,-0.033592690550284306,5903.585509229351
1.136,0.057332606582182255,5900.787647823669
1.14,0.00906287556643935,5888.347975811194
1.144,-0.1932025200802893,5902.527483746314
1.148,-0.5187284043055341,5907.078540917837
1.152,-0.9027278027829081,5898.757579718586
1.156,-1.266414398595795,5904.5428344951415
1.16,-1.5367436105552201,5903.940153643501
1.164,-1.6601688905367948,5910.136015959914
1.168,-1.609636829555201,5900.483754901924
1.172,-1.3864219354284142,5897.457931061564
1.176,-1.0179361832499376,5899.153334238551
1.18,-0.5517352120730238,5904.05044672946
1.184,-0.04647119944324383,5900.79165750734
1.188,0.43773692893849714,5901.411421550378
1.192,0.8462688820736499,5910.1051818817805
1.196,1.1331064257032328,5898.710864460475
1.2,1.2624071674081216,5900.262698100391
1.204,1.2119506350907794,5893.384180359318
1.208,0.9790113046099799,5908.549965490403
1.212,0.5857248785433248,5898.990991392183
1.216,0.08040935217452178,5903.229576855201
1.22,-0.466768914331025,5900.903855785658
1.224,-0.9732482463565783,5904.995844155815
1.228,-1.3568216686831776,5904.332850652647
1.232,-1.5494089404186289,5908.834030421796
1.236,-1.5096845016146112,5908.66971310578
1.24,-1.2323699854860117,5906.82880539261
1.244,-0.7515943974936805,5896.437627062775
1.248,-0.13612813952000383,5906.681065474286
1.252,0.5234150252599139,5906.664852729502
1.256,1.1321814497608707,5904.312009935227
1.26,1.6085358588775533,5905.073721341136
1.264,1.897128236205715,5903.238549686681
1.268,1.9755287197415814,5904.837361151778
1.272,1.8544593558352214,5903.47829951362
1.276,1.5726681907668754,5898.5968654317785
1.28,1.1878143205101213,5894.291778941221
1.284,0.7652023052800292,5898.82583400475
1.288,0.3668035022428343,5892.912986107692
1.292,0.0429272574259632,5901.947781564978
1.296,-0.17225190273977153,5900.086910749611
1.3,-0.2619438448071822,5903.756595414112
1.304,-0.22690797297387302,5907.116831516287
1.308,-0.08644664018186096,5895.418731301559
1.312,0.12032155870182128,5899.259316687882
1.316,0.33613203229466315,5908.679309203671
1.32,0.49317532935803543,5897.721512642962
1.324,0.526254286378813,5884.068967370376
1.328,0.38790349004958463,5906.264522659
1.332,0.06127996717111957,5909.893881694554
1.336,-0.4322015235764988,5901.516954411499
1.34,-1.032414002380784,5903.215513451147
1.344,-1.6483486422448796,5897.977360193309
1.348,-2.1740450369753113,5900.216969485799
1.352,-2.5104651352049965,5908.27927834838
1.356,-2.5888661710595757,5898.307361198485
1.36,-2.389316801333076,5909.710059411191
1.364,-1.9478160394143587,5894.575593346478
1.368,-1.3483321965509694,5896.709309684194
1.372,-0.7013831809045551,5906.536761348108
1.376,-0.11595529519559193,5904.838983719182
1.38,0.32586089522296535,5902.492655487764
1.384,0.5835261019615057,5909.942416503583
1.388,0.6592281611823659,5905.199175484224
1.392,0.5888722406397592,5904.472868001537
1.396,0.4288094530034538,5904.937238937652
1.4,0.24245427407525635,5902.185428217488
1.404,0.08794438429113381,5904.12644259411
1.408,0.00705686772742695,5893.396511498197
1.412,0.016982047688931908,5902.057248471028
1.416,0.10796988422144896,5899.556416028964
1.42,0.24882679209144487,5904.824194353227
1.424,0.39869822027729773,5895.929046218719
1.428,0.5204013518045219,5903.127806107039
1.432,0.5903861014048365,5895.715355423632
1.436,0.6024999309891632,5906.458244253951
1.44,0.5651056850666396,5904.282002806161
1.444,0.49352384556696166,5903.78137257854
1.448,0.40208941817485305,5900.202013812366
1.452,0.3002655435143173,5908.00093860698
1.456,0.19415430586126617,5893.889670410591
1.46,0.09076562993054715,5911.41750946542
1.464,0.0007507394720882338,5905.43376831215
1.468,-0.06324694201458306,5902.136370463912
1.472,-0.0922974530036573,5902.090849935108
1.476,-0.08769914458848263,5901.793117307379
1.48,-0.06418179543956819,5912.507144507834
1.484,-0.04739463130658176,5903.325426970548
1.488,-0.06617161825554242,5903.335687473899
1.492,-0.14225063097567442,5898.519681565779
1.496,-0.281112873296475,5901.000137064101
1.5,-0.46760139169114523,5899.739050059236
1.504,-0.6683781328826749,5908.525672310572
1.508,-0.8401136336095649,5901.501110643754
1.512,-0.9398022605651475,5900.880063052857
1.516,-0.9336946182909246,5909.037240726256
1.52,-0.8030115314749248,5907.491668190443
1.524,-0.5459055462022804,5899.351721436078
1.528,-0.17601371556744716,5905.317527720458
1.532,0.2808726455766105,5902.404915041971
1.536,0.789719027192733,5895.976098277274
1.54,1.307452690648384,5908.642568290725
1.544,1.7836406510692246,5905.429691525545
1.548,2.163491618104046,5908.530041603474
1.552,2.3951671457432933,5899.689574613757
1.556,2.4404767201299697,5890.834731043774
1.56,2.285194014499369,5906.92884958155
1.564,1.944482820852403,5909.008434575729
1.568,1.4608095511056451,5900.768961051914
1.572,0.8950645155453361,5900.389482360556
1.576,0.3143413004387406,5901.595928963498
1.58,-0.2195926639478794,5905.238922393383
1.584,-0.6584877404681599,5901.042208737623
1.588,-0.9717818055063617,5905.893652149466
1.592,-1.147487385855213,5909.710925467396
1.596,-1.191011178533307,5901.00355055779
1.6,-1.1227333656562621,5900.666633640957
1.604,-0.9746310545777603,5908.29902539618
1.608,-0.786142409210197,5904.51714957753
1.612,-0.5994543310678329,5899.452312228568
1.616,-0.45397659775078547,5897.985216921173
1.62,-0.3795337771632842,5900.709581283605
1.624,-0.38873324157746564,5900.36780962126
1.628,-0.4708398749242874,5904.259217121398
1.632,-0.5906516336266878,5903.205205854734
1.636,-0.6948205333512538,5898.596527005929
1.64,-0.725057376416632,5899.768701033839
1.644,-0.6344673859688562,5893.219263655779
1.648,-0.40174427022500625,5892.535154631786
1.652,-0.03884293216286095,5909.681634767563
1.656,0.40982312830559037,5901.981235962712
1.66,0.876299765648047,5914.032817399046
1.664,1.2842340568011361,5903.488105279236
1.668,1.5670416353935388,5908.36443071783
1.672,1.684574216053123,5903.561144395298
1.676,1.6333299216055013,5903.640168334883
1.68,1.4467245443416177,5904.568986321487
1.684,1.185012104857543,5904.009059617734
1.688,0.9177613424900235,5899.688674510381
1.692,0.7043304634875077,5892.182789451109
1.696,0.5788070578333455,5902.692079069067
1.7,0.5444707771254453,5897.83074648804
1.704,0.5789661183757042,5902.318119328474
1.708,0.6468223566478978,5904.451684175199
1.712,0.7133302831750389,5908.256848107092
1.716,0.754610363619086,5899.891142238683
1.72,0.7618727010669601,5900.726961264134
1.724,0.7404510704218085,5907.697006043569
1.728,0.704814821116309,5900.609443345985
1.732,0.6707915192218464,5898.643369452672
1.736,0.6469979532918764,5894.375893283069
1.74,0.628439384425807,5891.531253855216
1.744,0.5953917391235063,5896.406909939883
1.748,0.5194045361542634,5903.230158625436
1.752,0.3751213421377665,5904.560535471138
1.756,0.15296510319477707,5908.384366689135
1.76,-0.1331354358696319,5908.957415998556
1.764,-0.4458263032935017,5894.902218159791
1.768,-0.7313165784447798,5892.245275231745
1.772,-0.9309325689624366,5900.961237427042
1.776,-0.9952432936160157,5904.240587874409
1.78,-0.8985560682741457,5898.1935622419705
1.784,-0.6501365772905202,5903.01771128778
1.788,-0.29758330081815576,5898.542147092692
1.792,0.08052465149197889,5895.667237989671
1.796,0.39150074912981153,5904.4597242436175
1.8,0.5499534570220579,5901.48619139932
1.804,0.4974727208960087,5905.1904564900005
1.808,0.21536689831681471,5911.78389722802
1.812,-0.27259758830926806,5900.721224437404
1.816,-0.9073888926262649,5899.640891708207
1.82,-1.6085121732771663,5899.141702080498
