时间(s),电压(V),幅值(高频80K)
0.0,2.2959916995425833,5898.121315857458
0.004,1.7351811542214104,5908.0457284142585
0.008,1.1962498345918382,5904.060146266573
0.012,0.6931129603547291,5902.287284069895
0.016,0.2347791964429596,5902.645406689447
0.02,-0.17199902536821135,5902.391275341668
0.024,-0.5187391341547091,5907.490850166036
0.028,-0.7935688207657017,5902.352091252627
0.032,-0.9845258014759084,5896.896921362343
0.036,-1.0868263913721836,5898.776247697166
0.04,-1.1091357649719198,5905.23202553527
0.044,-1.0732835326927606,5898.348278097606
0.048,-1.0062002632757674,5906.345711907465
0.052,-0.9286711467609551,5905.905507355335
0.056,-0.8477004529057967,5905.643244287802
0.06,-0.7565900684684208,5892.64652533574
0.064,-0.6422279516722126,5899.787347256832
0.068,-0.4957664568945658,5896.640891816765
0.072,-0.32178612261164397,5901.004985009216
0.076,-0.14169342660803236,5896.583738986314
0.08,0.010814858193403332,5901.728051097468
0.084,0.10098594135155056,5895.6331741811855
0.088,0.10618580023330294,5898.4342831035565
0.092,0.02487486366111692,5892.365487741831
0.096,-0.12281187016913508,5897.633508703843
0.1,-0.30298993244771005,5901.078812191384
0.104,-0.48065138874459584,5905.348546927629
0.108,-0.6313331635277344,5901.343497626991
0.112,-0.7470245005107989,5899.654962227721
0.116,-0.8342685592861906,5894.2974511105485
0.12,-0.9057560036278078,5905.405650621022
0.124,-0.9696054037906583,5909.821142696135
0.128,-1.0217838097083076,5898.953128139443
0.132,-1.045728648642182,5907.906593284321
0.136,-1.0196507228792668,5907.511863890084
0.14,-0.9280656407470409,5896.893125852234
0.144,-0.7719340027058835,5894.833549637123
0.148,-0.5727357337506634,5902.245992590966
0.152,-0.3690349924368301,5904.876564139841
0.156,-0.20696671628144392,5896.274671884527
0.16,-0.12733928165304748,5899.101175942428
0.164,-0.15286585722654633,5902.688501035824
0.168,-0.2797618395689834,5897.395772914938
0.172,-0.47689734951763985,5901.899488272775
0.176,-0.692576290331194,5897.953246632847
0.18,-0.8663502271005084,5890.426700059187
0.184,-0.9428704606731467,5898.332716114208
0.188,-0.8854808749356866,5901.421939504554
0.192,-0.6872312284863996,5892.002566119274
0.196,-0.3760374013346778,5910.995979965484
0.2,-0.010243705314283051,5906.682374516156
0.204,0.33696375969107417,5900.564985568743
0.208,0.6003618894861827,5904.112742893037
0.212,0.7434658612799545,5896.326650371977
0.216,0.7680127650003558,5908.620185147146
0.22,0.7089349554418601,5891.929287570514
0.224,0.6188896335299724,5901.787180235463
0.228,0.5500667626122012,5890.655106601044
0.232,0.540151757663859,5899.132089806364
0.236,0.6057073999203982,5908.655342309247
0.24,0.7421677934691715,5903.164280255984
0.244,0.9273895555771586,5902.322873465794
0.248,1.1261962254686955,5900.204368533961
0.252,1.295367339300212,5902.676256551848
0.256,1.3901264285339126,5892.971251437561
0.26,1.373081529080908,5895.237082868676
0.264,1.224568217731635,5897.161700754345
0.268,0.9507522932318611,5904.616330050225
0.272,0.5850840069946829,5905.309409944853
0.276,0.18131730094183565,5893.460836509106
0.28,-0.19904768803479692,5900.04987122956
0.284,-0.4992408929961303,5893.939570754408
0.288,-0.6755660387474874,5897.543517505541
0.292,-0.7016371546181353,5905.241122140522
0.296,-0.5708636004376223,5897.336896569482
0.3,-0.29857771011424217,5902.468211592259
0.304,0.07697371327115751,5901.0443328985175
0.308,0.496660877354293,5897.966580357375
0.312,0.8871873449313741,5892.115849442844
0.316,1.1731368300006682,5904.827336850667
0.32,1.2933102696658831,5897.986713142592
0.324,1.2180423671519405,5898.034506502267
0.328,0.961927525655905,5900.470134046403
0.332,0.5856546727943377,5904.771687806952
0.336,0.18333691640852898,5903.104010782685
0.34,-0.14241002977541709,5897.793323407296
0.344,-0.3096779087258814,5896.17834678356
0.348,-0.2806547098494846,5906.150646438778
0.352,-0.07123185307374091,5900.3294012578845
0.356,0.25598554178709093,5896.919511257648
0.36,0.6121345493418762,5904.972314258584
0.364,0.9086632506934765,5896.720254321248
0.368,1.081559307793887,5892.9874120039085
0.372,1.1063842322129873,5898.192556225974
0.376,1.0006549745211226,5897.660496468523
0.38,0.8144543841144496,5897.745447209668
0.384,0.6136791766928116,5902.474926449632
0.388,0.46132168284329594,5902.024888698104
0.392,0.40116375371182006,5902.719458338976
0.396,0.44717372332937194,5894.923117667805
0.4,0.5811662149467938,5908.003485214177
0.404,0.7597313216658715,5901.602197271447
0.408,0.9286627996246325,5898.823625426076
0.412,1.0403522099814826,5896.384113386799
0.416,1.068353153151087,5896.993416622408
0.42,1.0140934906277574,5897.258528805243
0.424,0.903380344952079,5901.53852933774
0.428,0.7742697515086067,5896.90178540173
0.432,0.6613764972914501,5895.628074329263
0.436,0.5828297134109381,5898.325055771445
0.44,0.5345141709377668,5897.481595087635
0.444,0.4932126474062967,5908.127613273168
0.448,0.42696336986752303,5894.995073636093
0.452,0.30819785028734,5901.538320027772
0.456,0.12412946355003741,5900.062541831885
0.46,-0.11968354481027166,5897.502159430056
0.464,-0.4031536741241766,5908.023788454432
0.468,-0.6998074665789117,5898.007177534418
0.472,-0.9847659344224711,5907.721290249117
0.476,-1.239557542529857,5905.533607618299
0.48,-1.4536353883145248,5910.986306001036
0.484,-1.6241945565788565,5891.465159047945
0.488,-1.7553771055657679,5902.657299471286
0.492,-1.8565027256567705,5889.623520686802
0.496,-1.9385753113726574,5898.023964225884
0.5,-2.009557523809351,5904.378341439829
0.504,-2.0704850856153745,5904.485691075458
0.508,-2.114568084750485,5892.167583462678
0.512,-2.129561963364516,5901.943404675208
0.516,-2.1016093413942194,5902.612548868347
0.52,-2.018425158503327,5907.626583813986
0.524,-1.871151630678004,5899.6566382246965
0.528,-1.6559852381457003,5901.658677633566
0.532,-1.377172923750861,5901.023952053388
0.536,-1.0512740637396065,5892.992675401824
0.54,-0.7097818538146367,5898.000101604633
0.544,-0.3961459745006432,5902.56210035229
0.548,-0.15545236007377156,5895.753653215409
0.552,-0.01919680050751334,5902.339380530988
0.556,0.008609587621314923,5896.212944903591
0.56,-0.043290966512379965,5899.467069534784
0.5640000000000001,-0.12059101225528958,5907.729400042862
0.5680000000000001,-0.1603489129366415,5891.264374689364
0.5720000000000001,-0.11025598765272755,5904.809874544929
0.5760000000000001,0.05667844849632052,5901.91041837146
0.58,0.3352539888071794,5887.576722127177
0.584,0.6893321065867649,5899.356426654758
0.588,1.0604162545533453,5901.813491344044
0.592,1.3818708861548494,5897.711538936522
0.596,1.5955907305261883,5902.479237184482
0.6,1.6667057973471062,5896.009693617832
0.604,1.592057628263482,5897.441381364609
0.608,1.399886292857204,5895.446885409268
0.612,1.1408604262223032,5905.784102225967
0.616,0.8733537488067556,5901.667486883339
0.62,0.647651983128826,5887.666909783924
0.624,0.4938993028843064,5895.845376683512
0.628,0.41709464910811667,5894.532611178809
0.632,0.39976316295654624,5890.705635639603
0.636,0.4101746502905881,5898.316335973643
0.64,0.4127989620295768,5896.530194066795
0.644,0.37834629341008963,5894.355892849059
0.648,0.29157511413981446,5903.678696650004
0.652,0.15515869618561132,5893.312940930918
0.656,-0.011557137776957403,5901.580232005734
0.66,-0.17852559006025528,5910.823774968529
0.664,-0.3140304734043996,5896.115292877066
0.668,-0.39463461972972974,5898.135243153629
0.672,-0.4133943016587406,5901.796074618204
0.676,-0.38340391803185525,5896.4329744299175
0.68,-0.33501655593380186,5905.553936535584
0.684,-0.3075621425026047,5898.618048472992
0.6880000000000001,-0.3381395340234332,5903.754831674235
0.6920000000000001,-0.45040202301322707,5903.952708088214
0.6960000000000001,-0.6459889155783803,5892.125952694524
0.7000000000000001,-0.9008478442025925,5903.428459907275
0.704,-1.1678888789216266,5904.286734468124
0.708,-1.3860437498504063,5893.309666796777
0.712,-1.4941388775327102,5896.285330255686
0.716,-1.4465310069426234,5890.855160613876
0.72,-1.2266006722576335,5892.745284785453
0.724,-0.8542639263632396,5893.521909986053
0.728,-0.3849166984260392,5900.572707666215
0.732,0.10067178492757752,5903.716855528317
0.736,0.513897292370937,5897.993553807637
0.74,0.7796742685441257,5893.958110536677
0.744,0.8558166520098622,5899.897051895068
0.748,0.7435785466252949,5887.955348365756
0.752,0.4847124200819603,5895.361832235707
0.756,0.1459701579654494,5895.163952644202
0.76,-0.20225066954341928,5906.800593721599
0.764,-0.5042565325168512,5894.530499148271
0.768,-0.728354600833928,5902.073188594492
0.772,-0.8664607455726256,5898.397916513604
0.776,-0.9273816628198946,5897.7913316659815
0.78,-0.927916099493963,5900.018929871237
0.784,-0.8849846177049967,5895.662572536721
0.788,-0.81106757607595,5905.94985914086
0.792,-0.7140936978107382,5902.516562864456
0.796,-0.6011119251158724,5896.013184768449
0.8,-0.48349264678191506,5894.605376153836
0.804,-0.3809998395094459,5895.980911076483
0.808,-0.3225134268306193,5898.254958355896
0.812,-0.34181325783519123,5903.669668490276
0.8160000000000001,-0.46797308237719243,5898.727553547041
0.8200000000000001,-0.7121016985702254,5892.164188570143
0.8240000000000001,-1.054830811979651,5898.991555649271
0.8280000000000001,-1.4405331134151549,5899.249724228202
0.8320000000000001,-1.7833893958945244,5896.267083712997
0.836,-1.9866252263495308,5898.603173230283
0.84,-1.9704074507567721,5900.805216882101
0.844,-1.698765542334491,5902.596139804845
0.848,-1.19489435552774,5901.859119792131
0.852,-0.5385651465143979,5897.593180805346
0.856,0.1533215460787787,5892.6837039461725
0.86,0.7560151689927734,5900.370190496123
0.864,1.1667836059909138,5907.457078317644
0.868,1.3272697677826133,5895.110722645602
0.872,1.2335201942401162,5896.937313820889
0.876,0.9331229051385359,5898.272563504381
0.88,0.5120465066755981,5903.178821719719
0.884,0.07453206168801042,5898.704877075582
0.888,-0.2805824696869932,5892.916275490279
0.892,-0.48247565048778157,5894.623994712345
0.896,-0.5040593943362371,5891.020081434498
0.9,-0.3662615766178791,5900.550919071134
0.904,-0.129957832696513,5891.038286497797
0.908,0.12164291571496001,5900.478184374791
0.912,0.3048981632475135,5902.354664749237
0.916,0.3557134410286057,5899.674089860138
0.92,0.24245270233523478,5901.111609628775
0.924,-0.030313571005744416,5901.230196364977
0.928,-0.4259483538129361,5912.964040516183
0.932,-0.8849143043426844,5909.156425246149
0.936,-1.3364741334280477,5901.4433165036335
0.94,-1.7111606184856931,5903.665043264001
0.944,-1.9521826282701984,5904.050512002968
0.948,-2.0237158897057457,5908.237458639939
0.952,-1.9147288812008827,5900.870486277874
0.956,-1.6382964745383153,5900.548419497661
0.96,-1.2273218918904887,5901.983946891684
0.964,-0.728175176616005,5901.989787305168
0.968,-0.19417398761238644,5893.957184655494
0.972,0.31960513207816926,5893.915373462053
0.976,0.7604068084301917,5906.833668578966
0.98,1.082477598594239,5891.901197646692
0.984,1.2535997418922262,5895.909946743137
0.988,1.2628888599777814,5891.975531992977
0.992,1.1274767803088637,5905.4478093605885
0.996,0.8943118950888733,5891.278460589178
1.0,0.6332235746155482,5889.509379756371
1.004,0.42051988685787034,5898.86273828495
1.008,0.31796066581636134,5899.417521454927
1.012,0.3555636728851217,5898.057819611946
1.016,0.5252036009506774,5901.130633577153
1.02,0.7867122947344497,5893.018114597207
1.024,1.0825681049894558,5901.321737001684
1.028,1.3539725030097478,5893.639838854469
1.032,1.5519441598054686,5897.812990691774
1.036,1.6417267425106659,5903.60908457494
1.04,1.603584954155367,5901.865116147883
1.044,1.4337851789600526,5898.923806905561
1.048,1.1464598225982534,5896.511364927696
1.052,0.7740845225258646,5897.734023077927
1.056,0.36405483346491957,5898.45451775927
1.06,-0.029131357521498088,5899.853687593379
1.064,-0.35399413559475984,5892.606482379793
1.068,-0.5710359622472128,5898.466124762069
1.072,-0.6579231030232454,5897.278211065076
1.076,-0.6105167398186016,5898.174755358383
1.08,-0.44131939288427663,5901.812273253957
1.084,-0.17726834046914888,5892.182915389294
1.088,0.14237809838710233,5907.07008940614
1.092,0.46888096570127435,5901.826398535042
1.096,0.7491446554343142,5895.10923063861
1.1,0.9341987098679929,5896.854203772604
1.104,0.9903713782910673,5896.6519227317385
1.108,0.9099121759313432,5897.079599612923
1.112,0.7161242106012883,5901.117404335681
1.116,0.45917843356495774,5899.647425946875
1.12,0.202603738467472,5897.554096986722
1.124,0.004818594969826366,5896.746310524002
1.128,-0.09745879242956464,5907.621903400969
1.132,-0.09793878613769803,5895.502172185495
1.136,-0.019314731582061612,5898.434162682883
1.14,0.09664189999895216,5894.504572240372
1.144,0.20353934774620597,5898.48588503635
1.148,0.2650386378230815,5894.559917028971
1.152,0.26566626644379715,5893.970273521661
1.156,0.2145634153728752,5899.980143485659
1.16,0.14080061242417335,5889.161742131397
1.164,0.08142423406345548,5901.672535452237
1.168,0.06616640795594038,5888.221156691687
1.172,0.10487700681836576,5886.37544622535
1.176,0.1834217946953447,5899.42757885002
1.18,0.2700076709167588,5904.0336882776255
1.184,0.32850060416068455,5900.119356568726
1.188,0.3317615867708107,5904.190409310428
1.192,0.2684651394597574,5895.512862750342
1.196,0.14091782898538105,5900.273191818703
1.2,-0.043246359658528265,5903.693229454543
1.204,-0.27897358438209735,5907.570616566822
1.208,-0.564966311696076,5904.406332338175
1.212,-0.8959354247150251,5891.1902323463055
1.216,-1.2498843831695863,5894.93535531484
1.22,-1.57900881294128,5898.758341709453
1.224,-1.8125055162963195,5909.179073888825
1.228,-1.8739259711915224,5904.514982248684
1.232,-1.7079001082162257,5902.820349221394
1.236,-1.3053988424171084,5894.624448618814
1.24,-0.7161699658222868,5886.999934006197
1.244,-0.04222884829305199,5910.376898017705
1.248,0.5854620219354947,5898.969849660463
1.252,1.0388324580276662,5896.470772262206
1.256,1.223593333640756,5900.636369391351
1.26,1.1019589400017922,5899.402371691957
1.264,0.7027283003854743,5903.880208013457
1.268,0.11648880819089581,5890.729723048108
1.272,-0.523683240362459,5900.144563354574
1.276,-1.072014830456733,5902.781225705327
1.28,-1.402704214230458,5895.710860022668
1.284,-1.4364406086874608,5897.334367646828
1.288,-1.153956327868335,5900.223592397334
1.292,-0.5949369995970164,5901.347676079457
1.296,0.15413004269917402,5898.234304089971
1.3,0.9775169233180205,5901.239092223387
1.304,1.749438885625351,5899.315701123505
1.308,2.3539769741848797,5902.294307495125
1.312,2.705176895716769,5895.271859819459
1.316,2.7642314713755525,5889.667407036724
1.32,2.54843524760861,5902.617399683827
1.324,2.1273503104127607,5890.291865766678
1.328,1.605297293375799,5899.948474571378
1.332,1.094478523259523,5886.816622397426
1.336,0.6875718624888459,5903.495658550725
1.34,0.4392993562597536,5894.668814294081
1.344,0.36190883129886836,5904.737674877183
1.348,0.43295926172299776,5898.495893787717
1.352,0.6098152467933987,5904.782319013275
1.356,0.8447599424173055,5900.218093263119
1.36,1.0960572918556626,5898.102397686749
1.364,1.3329037130591055,5892.813295650796
1.368,1.5353050486151292,5896.829702565411
1.372,1.691591358284904,5894.8061184768
1.376,1.795710017636986,5908.958398771213
1.38,1.8450376923281384,5898.721066551655
1.384,1.8386364274325862,5897.330622725466
1.388,1.775766975060669,5891.280593190011
1.392,1.6548114553165159,5898.509478759967
1.396,1.473274849285701,5891.129856261178
1.4,1.2296691259332084,5903.476791003722
1.404,0.9273136724960013,5899.898161067152
1.408,0.5785091992156084,5894.4667459524135
1.412,0.20627343694323694,5901.086689719004
1.416,-0.1586053150119162,5893.386252456085
1.42,-0.4848703252575195,5893.17441894129
1.424,-0.7492883027709232,5907.08327610227
1.428,-0.9420245889649892,5893.288473579968
1.432,-1.0658806715563351,5902.023615930791
1.436,-1.1294403375910715,5896.826088908957
1.44,-1.137515468352809,5897.655683074091
1.444,-1.0842605473954647,5901.0415070042845
1.448,-0.953748227230377,5898.72042835793
1.452,-0.7294542622654457,5888.717232050196
1.456,-0.40922248396408073,5907.580677378212
1.46,-0.018326858215743976,5906.783882009946
1.464,0.3872350622193267,5891.818172806458
1.468,0.7311206920319436,5908.7895046924505
1.472,0.9380039671701711,5901.695588969064
1.476,0.9577443343769211,5889.607778525671
1.48,0.7827658085759053,5899.916180477756
1.484,0.4521198246447564,5894.824803943786
1.488,0.041399914132190276,5896.662361317826
1.492,-0.35704908881048786,5902.649909938536
1.496,-0.6566949738730323,5907.34934628479
1.5,-0.7957122475495151,5895.189445469522
1.504,-0.7479167181323207,5903.0980414121605
1.508,-0.5240794998889179,5900.608402505828
1.512,-0.1646760829842426,5894.283290036406
1.516,0.2722709412515111,5894.968536755522
1.52,0.723296213870429,5901.885533913938
1.524,1.1280481766439356,5900.051765429986
1.528,1.4342050375016349,5899.094552257659
1.532,1.6011070159982264,5904.599226621765
1.536,1.6043759274590605,5901.413201768225
1.54,1.441877427599588,5898.805852633414
1.544,1.1388038041511301,5896.889738438014
1.548,0.7477937385123139,5896.940842021103
1.552,0.3408627356278969,5903.497547885515
1.556,-0.005989098033791743,5897.671239517589
1.56,-0.23011150839767705,5900.7625330238925
1.564,-0.29499884089249423,5899.465462139772
1.568,-0.19508161155493942,5897.363741222273
1.572,0.04689003613181066,5895.228720770559
1.576,0.38723678292234365,5897.826292018259
1.58,0.7708476069146603,5902.061997403936
1.584,1.1406334088721861,5897.803521870661
1.588,1.4454934173476621,5892.140121470432
1.592,1.646403503305434,5897.630414353462
1.596,1.720968821619917,5897.8758928860825
1.6,1.6664022884858607,5895.496345976914
1.604,1.4998534792148543,5886.397985559566
1.608,1.2548476180582928,5899.850972337164
1.612,0.9739593213621497,5894.722290815554
1.616,0.6994406252260081,5893.315703434072
1.62,0.4639197070197984,5888.575462715465
1.624,0.2830520272310487,5903.92972073502
1.628,0.15241169460441759,5891.036533736083
1.632,0.05114011343032305,5892.339417801179
1.636,-0.04727693916906401,5899.661837659745
1.64,-0.16100826895770137,5886.864932897162
1.644,-0.28932687607679375,5893.388980978552
1.648,-0.4105484186133752,5889.966919170398
1.652,-0.488821914576288,5897.750449423243
1.656,-0.4861837413357538,5899.075165964006
1.66,-0.37515810342268746,5903.662478872911
1.664,-0.14832065062891453,5897.485760300555
1.668,0.17686120649661857,5901.340784959172
1.672,0.558134247261238,5893.758409599136
1.676,0.9334690883667704,5898.06622176203
1.68,1.2315130593450843,5887.319468202771
1.684,1.3875377920671113,5907.711417457037
1.688,1.3620977544175934,5901.104060075141
1.692,1.1561987884266522,5902.280483903878
1.696,0.8160041415173087,5892.1419562511965
1.7,0.4233976197224259,5897.509945750268
1.704,0.07464294553358579,5897.167506140526
1.708,-0.14545696128839758,5897.294920590372
1.712,-0.18516270333188,5894.713020569413
1.716,-0.03717182166914767,5900.169085074375
1.72,0.26181824853310687,5893.645818122353
1.724,0.6413977076827198,5890.186376264557
1.728,1.0139548770858036,5903.128134216315
1.732,1.293652825505428,5889.589521571426
1.736,1.4146454207717594,5905.719372412581
1.74,1.3456847497619249,5895.095027950749
1.744,1.0982447225822396,5904.796336526863
1.748,0.7255489576883861,5894.919279161331
1.752,0.31138487044774066,5897.201773155122
1.756,-0.049832166308996666,5896.692001433633
1.76,-0.27741580312999553,5900.269872441056
1.764,-0.32628690041681546,5893.218994975671
1.768,-0.1986326219946874,5891.036738666347
1.772,0.05942331155150198,5894.030691039669
1.776,0.3747356993552323,5900.053956962335
1.78,0.6707867551748351,5901.087742938241
1.784,0.8895364358281107,5897.895148477882
1.788,1.0046492507899145,5893.799776641934
1.792,1.0227205486215631,5904.889373512207
1.796,0.9733615680719785,5907.105986279834
1.8,0.892981939153403,5898.682281887585
1.804,0.80927943111367,5893.112494315732
1.808,0.7327708661026476,5904.269669834631
1.812,0.6581417450696428,5895.550108720953
1.816,0.5730341093629655,5895.154973351353
1.82,0.4680760031128947,5897.020316539747
1.824,0.3422914057863347,5901.689720341087
