时间(s),电压(V),幅值(高频80K)
0.0,-2.734794472977408,5898.939555751684
0.004,-2.038188868528627,5900.686648400161
0.008,-1.3702104082927689,5895.215842283254
0.012,-0.7591139984751514,5901.048816949251
0.016,-0.23592851931980538,5898.917205608456
0.02,0.166117013535447,5896.310566597062
0.024,0.4170323332129571,5899.012868209424
0.028,0.4994124561188443,5896.727545708313
0.032,0.41714544344353194,5900.108975939721
0.036,0.19846445278922903,5893.581437147917
0.04,-0.10854357006534335,5894.621398554198
0.044,-0.4458393002273166,5899.938337186461
0.048,-0.7567635012760011,5898.944723120538
0.052,-0.9955965906406824,5898.287967032164
0.056,-1.1335825859720619,5897.330915775202
0.06,-1.1604331247254265,5903.8208372466925
0.064,-1.0811979068500204,5909.059571959227
0.068,-0.9102296507963868,5903.684337632676
0.072,-0.6656429426945976,5892.4566218569225
0.076,-0.36710883753286216,5896.15680793834
0.08,-0.03705162718006421,5895.197783734689
0.084,0.29712899137703774,5895.070957019166
0.088,0.6023305669623437,5901.695148622719
0.092,0.8417879197359539,5905.329327324336
0.096,0.9802437845667994,5900.92718634014
0.1,0.9918985738616831,5908.959566433608
0.104,0.8694285810822548,5889.999195453989
0.108,0.6308739701446243,5897.92510457575
0.112,0.3207324389725299,5904.422881332072
0.116,0.0028237651264782205,5899.64115743148
0.12,-0.2544149233226846,5899.872102054077
0.124,-0.39568918862924296,5898.201488387762
0.128,-0.393167502370102,5907.540742628815
0.132,-0.2524146452927419,5901.763587005497
0.136,-0.008687501728591002,5898.941938156652
0.14,0.2843832281389462,5901.460016554525
0.144,0.5698881629879458,5900.692136189505
0.148,0.8020981657397594,5885.964163412557
0.152,0.9564610820055439,5902.730129843421
0.156,1.032985936329305,5895.607584016346
0.16,1.0529903153976787,5904.649985770797
0.164,1.0509007532243884,5903.38898889533
0.168,1.0636584105843339,5904.24059015443
0.172,1.1204027332054398,5894.867058541457
0.176,1.2346073579403092,5910.671761739829
0.18,1.3997958480584887,5901.792885640248
0.184,1.5890391322424644,5897.77387824432
0.188,1.7583961780520392,5898.894456278451
0.192,1.8548523296180521,5892.63676292211
0.196,1.8287993743840778,5902.935450588275
0.2,1.649063133182379,5899.796893521569
0.204,1.3159579562465984,5899.900818647998
0.208,0.8670704701673344,5899.4740227749535
0.212,0.3727750982989786,5897.125692787524
0.216,-0.07750943725505109,5897.596582917074
0.22,-0.39430517594846587,5897.337406426239
0.224,-0.5075797198637847,5897.542221036903
0.228,-0.38302478635104464,5898.637493012638
0.232,-0.03246254815846218,5906.553664904193
0.236,0.48420267510233855,5898.238886686506
0.24,1.0680070245900632,5902.223900343432
0.244,1.600871665377211,5902.337158572454
0.248,1.9714695351735896,5896.469918245679
0.252,2.098685318432328,5899.836236171388
0.256,1.945986991649886,5898.455617646004
0.26,1.5252068123277656,5906.996392297911
0.264,0.8920567814126742,5897.851721240645
0.268,0.13534108503764508,5905.496112613954
0.272,-0.6400658453074887,5899.121097352554
0.276,-1.3353134533665394,5898.247774621579
0.28,-1.8795474274073305,5892.072648977171
0.284,-2.2441389663893547,5905.274462582068
0.288,-2.4436982573049595,5897.9031062385
0.292,-2.523654578048077,5899.9167644842255
0.296,-2.539305228934225,5899.260523992067
0.3,-2.5339737914719653,5902.56226982809
0.304,-2.5237339170439954,5904.586235179036
0.308,-2.4938078049153636,5902.399482722571
0.312,-2.4079442693773907,5906.867423503249
0.316,-2.2272510121600275,5895.301249553597
0.32,-1.9308603846359365,5906.486198197347
0.324,-1.5300197428800557,5893.295332074106
0.328,-1.070213438795035,5899.839476270109
0.332,-0.6207726149083286,5907.211018666009
0.336,-0.255884712942166,5902.295571380558
0.34,-0.033534123803747685,5905.209825780204
0.344,0.020981446040339986,5892.691188905274
0.348,-0.0777820206319823,5898.529071269338
0.352,-0.2795451382760882,5905.360681911818
0.356,-0.51261502581102,5904.11805002036
0.36,-0.7040417741826286,5899.716796662952
0.364,-0.7991704242720341,5902.747060230814
0.368,-0.7745003342470396,5891.741523042988
0.372,-0.6404457188628818,5895.884895240678
0.376,-0.43416690530449226,5900.864912303909
0.38,-0.20562912811420125,5892.421309438166
0.384,-0.0015260217614410329,5900.092525662612
0.388,0.1482685632445483,5906.235806880713
0.392,0.2377838802285638,5895.294012576665
0.396,0.28300183005875773,5899.148481961189
0.4,0.31108078260877464,5898.977384843228
0.404,0.3450789255952627,5897.54752822603
0.408,0.3914944111589576,5892.188798925828
0.412,0.43682951626656424,5899.048918338312
0.416,0.4544577095010844,5903.926719910692
0.42,0.41784265813333843,5895.814754329229
0.424,0.3136051559499351,5899.699363010026
0.428,0.14860898668792405,5895.372042481062
0.432,-0.051780389881750266,5892.549144632554
0.436,-0.2531947266109288,5898.983651341188
0.44,-0.42496580598300626,5900.981262135829
0.444,-0.5498373730279941,5895.429595117032
0.448,-0.6260670947936295,5894.862640720688
0.452,-0.661762811384404,5912.522594866124
0.456,-0.6656591674635641,5905.971320873387
0.46,-0.6398583613254167,5902.937673236329
0.464,-0.5783126450910407,5909.991655555645
0.468,-0.47169762953412653,5896.296646682174
0.472,-0.31591922005294176,5888.802613435144
0.476,-0.11900851597297417,5902.088298262078
0.48,0.09839432748926169,5903.4534960461
0.484,0.30988676129314496,5888.123077022696
0.488,0.49378449047561074,5906.788719743287
0.492,0.6416432504043642,5897.141399777796
0.496,0.7609771039381847,5898.738723439879
0.5,0.871792549426634,5909.672593854028
0.504,0.9990726385425257,5898.4054472696025
0.508,1.163804555754748,5900.865707014077
0.512,1.3745402310239907,5893.117376471226
0.516,1.6212108427092815,5908.912733297337
0.52,1.8731214806989982,5907.740120292237
0.524,2.082941136695066,5899.97116300331
0.528,2.197264622930706,5894.040904485194
0.532,2.1715695842430702,5899.172657982184
0.536,1.9842433357743725,5901.308093938697
0.54,1.6435849828876954,5898.48893349381
0.544,1.1848545719906018,5913.135127992999
0.548,0.6596209044223836,5896.7439676812
0.552,0.12322424804342548,5900.283088931339
0.556,-0.3741023521330513,5905.019567019626
0.56,-0.7903710534936131,5902.185900356153
0.5640000000000001,-1.0909611389139178,5889.521784994059
0.5680000000000001,-1.247048365534607,5898.4408621038965
0.5720000000000001,-1.235825694761808,5898.455273274027
0.5760000000000001,-1.043245337476157,5902.190815601264
0.58,-0.6686968207169444,5897.855304051112
0.584,-0.13034603120195226,5901.3550097022135
0.588,0.530814372625793,5900.523226988505
0.592,1.2510043528374573,5903.829278187804
0.596,1.9504627465307045,5901.486744117611
0.6,2.547397767430047,5906.407685725404
0.604,2.9759431766820583,5900.176592664036
0.608,3.2024612015522624,5901.803536640034
0.612,3.2341028783798844,5895.35807999326
0.616,3.1155197549899474,5912.336563767886
0.62,2.9140754038462897,5897.113220967475
0.624,2.698939317113821,5896.39844781431
0.628,2.5216101177768473,5897.545853853621
0.632,2.4034323123919865,5896.333535088869
0.636,2.332010825108827,5895.543559900941
0.64,2.266124837269792,5905.052418592112
0.644,2.1480377137821187,5891.6289889274685
0.648,1.9212466085813737,5891.722782529473
0.652,1.5498713935279191,5902.645159509252
0.656,1.0340297017055147,5897.564303541737
0.66,0.4154599944361244,5897.198703551184
0.664,-0.22951680300811672,5904.156950391935
0.668,-0.8077726012428841,5899.721485138283
0.672,-1.2318548306911785,5892.1357900385465
0.676,-1.439926858107124,5905.110681754707
0.68,-1.407724042352097,5899.169898871844
0.684,-1.1506790481358171,5900.7313897978
0.6880000000000001,-0.7178194598189392,5901.989627011495
0.6920000000000001,-0.18063393265494346,5891.307749927352
0.6960000000000001,0.38017938097797327,5899.605674767419
0.7000000000000001,0.8878907032560746,5896.688440445398
0.704,1.280867116971442,5905.377312216402
0.708,1.519737315072083,5892.565799330771
0.712,1.5894307354089683,5901.720219737651
0.716,1.4965785827943054,5901.758657781794
0.72,1.264168821708478,5909.0043869885285
0.724,0.9252649973096259,5905.7110569061215
0.728,0.5168032675459041,5894.14975701045
0.732,0.07455365610008956,5897.42893346264
0.736,-0.3692174488717425,5894.726629306339
0.74,-0.784681631118527,5899.137554279548
0.744,-1.1414392325522087,5900.70330897921
0.748,-1.4068955446745974,5897.650609184562
0.752,-1.5491799459834266,5896.7074064215
0.756,-1.544863227433604,5900.401890184029
0.76,-1.387845130551879,5893.981524595089
0.764,-1.0944813986489497,5892.895152316461
0.768,-0.7026340639769509,5898.143555766692
0.772,-0.26591202513284334,5890.8919322286165
0.776,0.15448185269100698,5906.544392558698
0.78,0.49886293204458587,5888.092270234828
0.784,0.7183750332325044,5895.602521354615
0.788,0.7833197418783729,5893.899193960313
0.792,0.6887347613297067,5895.057962056475
0.796,0.4552697357920797,5896.777053052393
0.8,0.12389517549182807,5904.077449399754
0.804,-0.2552100114513576,5896.955850463454
0.808,-0.6362498448211062,5895.055881479979
0.812,-0.9884474744212411,5884.866515338768
0.8160000000000001,-1.2992914926349663,5897.912977780921
0.8200000000000001,-1.5695435318066233,5908.132980312091
0.8240000000000001,-1.802821499868658,5896.25745923147
0.8280000000000001,-1.9947395218956478,5908.01748852191
0.8320000000000001,-2.1270949271029203,5902.277926124344
0.836,-2.1708847017443813,5896.735737114126
0.84,-2.097538481287585,5903.553772845146
0.844,-1.8929174758449412,5903.874850170031
0.848,-1.5670646067186533,5901.966323307109
0.852,-1.155027392429024,5900.299210542074
0.856,-0.7079715632732945,5900.4698473886665
0.86,-0.2778002576134968,5899.634165005927
0.864,0.09821690083433601,5907.389464885867
0.868,0.40578394789732564,5894.911935187247
0.872,0.6512679522555975,5897.358654426822
0.876,0.850508995422546,5895.535624863562
0.88,1.0147314407746224,5902.404961039177
0.884,1.1404544049711658,5898.302755841795
0.888,1.2076951742348514,5901.394371877272
0.892,1.1865631379226926,5891.888989548378
0.896,1.0493566418623554,5899.570851573942
0.9,0.7844445337660421,5901.555062070126
0.904,0.4080283273608899,5887.752086444206
0.908,-0.030656146275590972,5884.211266273574
0.912,-0.45443703888078435,5895.908722446447
0.916,-0.7738237867938668,5902.665581586476
0.92,-0.9087038493721747,5895.572060941303
0.924,-0.8091923047331987,5898.116547373607
0.928,-0.46937448162691864,5897.718071732075
0.932,0.06993285266292976,5896.91654059641
0.936,0.7301265279703415,5896.88790731332
0.94,1.4125282460703603,5903.528161322141
0.944,2.0191694303400256,5904.70294694077
0.948,2.470865607146376,5903.823517619398
0.952,2.7190136332805697,5895.893927571406
0.956,2.7500523235972056,5894.149524226255
0.96,2.5831085090094406,5899.922717879839
0.964,2.262296959156079,5900.260249243425
0.968,1.8458833940223296,5895.601601416647
0.972,1.3947944882672194,5900.267044904544
0.976,0.9624968276846307,5894.354611420968
0.98,0.5874625645853836,5899.0193086975205
0.984,0.2888341856616063,5904.149252022563
0.988,0.06551616252615641,5901.3681045003605
0.992,-0.10129634087580237,5890.77852474349
0.996,-0.24208355175521254,5895.431894208621
1.0,-0.3895969738051108,5894.540247900372
1.004,-0.5674274304463549,5901.2826197588
1.008,-0.7794880950943798,5898.765954533124
1.012,-1.0039813714323245,5891.674324129691
1.016,-1.1946631231551774,5895.970568134183
1.02,-1.2904852205820974,5900.011346952182
1.024,-1.2324526490943486,5897.012657615776
1.028,-0.9841206094773408,5898.121622985839
1.032,-0.5498114404535605,5897.471989469533
1.036,0.0166376183759986,5896.899046232681
1.04,0.6180438498950512,5896.516136063655
1.044,1.1352219309889562,5890.156620483573
1.048,1.457595161821059,5892.221759840258
1.052,1.513279753326456,5896.608859804819
1.056,1.2887781752308443,5906.372252760477
1.06,0.8319909286650748,5901.22452791538
1.064,0.2382796182745646,5895.1667979183085
1.068,-0.37461658324210534,5904.38606273278
1.072,-0.8940795954123847,5898.111151023949
1.076,-1.2353381768411058,5886.12310666576
1.08,-1.3559146884605149,5896.839926717357
1.084,-1.2607166537534071,5896.589640049544
1.088,-0.9973185629440211,5885.336913686809
1.092,-0.6417793227703499,5904.53659885099
1.096,-0.277623255498407,5900.524042115592
1.1,0.02639582705054151,5903.266370928725
1.104,0.23242218279275964,5903.104733137655
1.108,0.33769940474199056,5897.266791799432
1.112,0.36585988021101945,5896.793587694205
1.116,0.3498726532299773,5905.758789938923
1.12,0.3143379947632538,5906.783057326257
1.124,0.26442996952992137,5897.88675836938
1.128,0.18556559145073676,5896.058475470256
1.132,0.05304468907318913,5898.576787716728
1.136,-0.15347905001997808,5894.504431117355
1.14,-0.43746490019863055,5899.480938281129
1.144,-0.779958215890118,5890.822401635673
1.148,-1.14256135530751,5894.886938720261
1.152,-1.4769331313781895,5896.627423324744
1.156,-1.7369420409602134,5900.150201064297
1.16,-1.889630375444161,5896.581298663871
1.164,-1.9224290731606997,5903.032752728692
1.168,-1.8456367056446492,5898.127650114997
1.172,-1.6903595590435436,5904.118987803262
1.176,-1.5025076098555477,5899.62767611961
1.18,-1.3332955217845226,5898.575092960183
1.184,-1.2269811260880916,5912.677900670264
1.188,-1.2079662157418987,5898.332137739961
1.192,-1.2712186633657485,5907.098802879256
1.196,-1.3805804085859334,5893.150996950966
1.2,-1.47765500750554,5898.828489483589
1.204,-1.4998257042780732,5892.383889911412
1.208,-1.4013753287095196,5901.023057662283
1.212,-1.1694812578245146,5898.03562723514
1.216,-0.8288525652162652,5900.625140491912
1.22,-0.43393088562342585,5898.159555829938
1.224,-0.05279475246443164,5890.752939668791
1.228,0.25055680118496165,5901.498140266615
1.232,0.42980141762022184,5898.036285209812
1.236,0.4631429586461038,5895.190462305995
1.24,0.3538954686200771,5901.395010968998
1.244,0.12690982352684207,5902.953238716409
1.248,-0.17713825802484656,5897.524759476256
1.252,-0.5085657905421537,5898.505689035771
1.256,-0.8161815631261818,5900.228223832267
1.26,-1.0547968059462098,5891.128966212122
1.264,-1.1916863298841662,5899.976588374533
1.268,-1.2110600247649579,5893.696482982766
1.272,-1.1160558914285323,5890.045046626191
1.276,-0.9281228290699893,5894.553573769699
1.28,-0.6839250823789571,5898.202794820569
1.284,-0.43026869192860573,5892.127684490526
1.288,-0.21770743972373516,5907.463815970254
1.292,-0.09297665923395874,5892.127670385727
1.296,-0.09004476964140697,5899.851577599375
1.3,-0.22081420874915036,5901.978359733911
1.304,-0.4686425846240267,5897.006525030843
1.308,-0.7882063495937752,5897.495807040681
1.312,-1.1129557515465385,5900.595173124833
1.316,-1.3686377426441463,5893.639721367176
1.32,-1.4897805061352907,5903.157706123209
1.324,-1.4351551999379462,5904.103026471631
1.328,-1.197874793675093,5906.050477076435
1.332,-0.8071030032694764,5907.181487598777
1.336,-0.3211307971685075,5891.498228645831
1.34,0.18615145925024582,5895.0137853400565
1.344,0.642193651628835,5907.342470045354
1.348,0.9917294178903796,5893.218372090248
1.352,1.206390283096844,5899.906718131672
1.356,1.2843332886463776,5894.885875695715
1.36,1.2411709180172827,5895.891984343446
1.364,1.098537314741653,5893.600969288435
1.368,0.8774071621461983,5895.895307838298
1.372,0.598842875799326,5902.015160391816
1.376,0.2889136455680442,5893.423412345616
1.38,-0.018092771648048442,5898.046876852807
1.384,-0.28206765916331394,5907.4180633838005
1.388,-0.4649467430193242,5900.905706926449
1.392,-0.5406707727527184,5901.938179683417
1.396,-0.5027278786657905,5906.839383658305
1.4,-0.3660074263069479,5900.347158947096
1.404,-0.16255320582202398,5902.278722472907
1.408,0.06670358969164077,5888.072074436369
1.412,0.28141668760513994,5898.493918351633
1.416,0.4502274263109594,5898.597171610306
1.42,0.5564672540532546,5897.21135913035
1.424,0.5998989812758739,5903.809900992872
1.428,0.5938079179596785,5892.256020297064
1.432,0.5581059615232261,5893.728170343733
1.436,0.510959789916917,5902.470475908774
1.44,0.4624243033491178,5907.364949963134
1.444,0.41259240810029796,5892.59518627121
1.448,0.3544807078349695,5895.734701367415
1.452,0.27975182271029875,5896.430892427975
1.456,0.1843416523220868,5886.1286021292335
1.46,0.07142732385813123,5906.561870860812
1.464,-0.04919270786963552,5889.809642750244
1.468,-0.1643211064333516,5896.639163979812
1.472,-0.2612835939062203,5903.524473789408
1.476,-0.331019587106457,5893.818551148222
1.48,-0.3696604823100481,5903.061633731036
1.484,-0.3783876308136208,5897.998602914033
1.488,-0.36143058317470317,5905.402931457628
1.492,-0.32234427282735517,5897.962279217162
1.496,-0.2597026202840423,5893.525585395206
1.5,-0.16465688124140768,5903.617918620601
1.504,-0.022842746678588523,5890.3827310539145
1.508,0.1791019069314597,5900.252450087977
1.512,0.44503494483496786,5910.927902674417
1.516,0.7625348493855548,5901.571415903551
1.52,1.1005185881129345,5894.103092072652
1.524,1.412184697575197,5896.5589820107
1.528,1.6427785365197445,5901.974837169477
1.532,1.740550709112239,5889.796132311429
1.536,1.6684265432228176,5894.613948207354
1.54,1.413647821313968,5896.076178513808
1.544,0.9930125503969693,5900.459915251229
1.548,0.4519645886473759,5900.363957667819
1.552,-0.1430722074385936,5887.753334272599
1.556,-0.7175682699915359,5899.256499470464
1.56,-1.2031515786296652,5889.749845821166
1.564,-1.5488433461666593,5897.223083220171
1.568,-1.7265802179866532,5904.124073367077
1.572,-1.731296271208415,5893.75812591392
1.576,-1.57804921318382,5903.373626459316
1.58,-1.2987129299313835,5906.861575537412
1.584,-0.9389597555998603,5892.752784329389
1.588,-0.5542860752289116,5901.30579189441
1.592,-0.20323259466664687,5900.8682510073
1.596,0.06268578896347328,5885.535343937639
1.6,0.21016507296540066,5897.28636162577
1.604,0.23210808963722998,5893.741235539854
1.608,0.14840105507602777,5902.644451317176
1.612,-0.0016234848817168839,5903.398382098042
1.616,-0.1724394519722758,5894.517999571142
1.62,-0.32650768826261906,5896.529871575222
1.624,-0.44444217325260726,5895.5604913652205
1.628,-0.5275370975607789,5894.468703753623
1.632,-0.591615070253929,5894.67299827066
1.636,-0.6546610546997806,5894.554616080467
1.64,-0.7236785840870611,5894.128042088357
1.644,-0.7867769974991751,5896.157358968788
1.648,-0.8140074543210524,5901.45182880772
1.652,-0.7662984794471304,5894.741576046244
1.656,-0.6085275555644396,5900.35931040176
1.66,-0.3218789745148535,5898.620702629046
1.664,0.08825218017886678,5890.896764362789
1.668,0.5906935687868655,5896.842720695715
1.672,1.1332386494044242,5899.130512866698
1.676,1.6520561580905346,5894.935880424971
1.68,2.083204379552932,5893.443890921858
1.684,2.373562167793618,5895.849946581376
1.688,2.48894341557858,5901.348256622337
1.692,2.4180535729579757,5895.599967997408
1.696,2.1721501793375326,5890.092738483828
1.7,1.781405035962686,5900.222668967516
1.704,1.289480158671025,5904.914544901509
1.708,0.7474944088048907,5900.657807366563
1.712,0.20782691040838275,5893.600317558584
1.716,-0.28217593380014544,5897.736585396953
1.72,-0.6862560228173564,5893.828919780288
1.724,-0.9840737202570827,5897.929137652565
1.728,-1.1732403799883853,5904.616998489308
1.732,-1.2671906056277271,5899.626926484501
1.736,-1.2891107370895474,5897.269546144527
1.74,-1.2641232315634663,5906.561220325872
1.744,-1.2123644966516325,5900.394351268455
1.748,-1.1444610605184724,5897.187861648396
1.752,-1.0601852070144053,5892.258513051912
1.756,-0.9512291141920067,5896.402079702475
1.76,-0.808258960254899,5904.393931793601
1.764,-0.629964703202809,5898.6019591106215
1.768,-0.4297270097207756,5900.953742676954
1.772,-0.23610189433579917,5899.531220194516
1.776,-0.08638779916317618,5891.391447198387
1.78,-0.015694486354437945,5901.156143845054
1.784,-0.04537390737456914,5895.983680764197
1.788,-0.1746186120352711,5894.236391669277
1.792,-0.3780892868218869,5901.060079841135
1.796,-0.6104218863000295,5902.993098585944
1.8,-0.8158839514959689,5901.492864830843
1.804,-0.9400911521426714,5902.194713382615
1.808,-0.9413495786187256,5895.914649269438
1.812,-0.8002624845778277,5896.214543323461
1.816,-0.5260786137741258,5901.415396196127
1.82,-0.15760969985966705,5896.773509611445
1.824,0.24266840352275598,5897.203514338047
