时间(s),电压(V),幅值(高频80K)
0.0,-2.0128294156962707,5902.84383288071
0.004,-1.52431333668531,5893.294291813825
0.008,-1.127053516807607,5899.195531550012
0.012,-0.8863202694262613,5902.022652156592
0.016,-0.828798519279509,5903.206199749516
0.02,-0.9370626278653115,5898.855279749183
0.024,-1.15361122447914,5904.832758663476
0.028,-1.393024677136219,5898.0536961910975
0.032,-1.561254975365297,5894.033742933289
0.036,-1.5796750941978273,5901.489111737675
0.04,-1.4077969085530055,5906.248516705372
0.044,-1.0559628303518185,5901.352984349424
0.048,-0.5818412726948603,5887.340935703355
0.052,-0.07165602991250207,5895.17942313841
0.056,0.3862879819782206,5896.521106487943
0.06,0.7260939526131902,5903.785276079477
0.064,0.9192958611077161,5904.663408062376
0.068,0.977042784887831,5902.88695759815
0.072,0.9402574745481903,5893.524558593623
0.076,0.8623111297412692,5896.523995231572
0.08,0.7913710114109247,5887.6122074638815
0.084,0.7591773899638413,5898.468294479217
0.088,0.7786680234733275,5894.84856595334
0.092,0.8474902189869562,5917.150689613819
0.096,0.9525502445762898,5897.658312771687
0.1,1.073356994169942,5903.933062383853
0.104,1.1855422019096076,5893.077631239673
0.108,1.2666140780524064,5900.652224860712
0.112,1.3031632965950917,5893.15458278601
0.116,1.295684837741799,5891.508230640517
0.12,1.2576934272494211,5906.850782168258
0.124,1.2096222024330225,5904.926385503205
0.128,1.1709514951751239,5902.771912760984
0.132,1.1536227449420111,5892.38995781358
0.136,1.157860477714871,5900.943186057662
0.14,1.170628444070052,5888.664344410773
0.144,1.1672392867707684,5907.197404713114
0.148,1.1167063577725265,5894.298260563213
0.152,0.9904787847887723,5900.272317718647
0.156,0.7727533459172055,5895.84171172797
0.16,0.4693241603512745,5906.9555571134615
0.164,0.11127242169215674,5895.471442292041
0.168,-0.24946932071832953,5904.46849223724
0.172,-0.5527910631415396,5897.865291094179
0.176,-0.7475339377107383,5890.632752034444
0.18,-0.8068310983533817,5902.297806019322
0.184,-0.7360715177232481,5905.223810390548
0.188,-0.5711344534683815,5894.853043110563
0.192,-0.3681553333365488,5897.783112793952
0.196,-0.18831638750242263,5900.2391987610345
0.2,-0.08201731037640173,5907.063816657282
0.204,-0.07675236294887668,5899.368100261966
0.208,-0.1718263428461445,5901.713417428703
0.212,-0.34062948976674895,5900.399207113514
0.216,-0.5385981482165647,5892.140517804066
0.22,-0.7136458582175959,5897.103997448661
0.224,-0.8164985588555479,5903.750053042995
0.228,-0.8101422959864009,5902.246659983481
0.232,-0.6782690367185416,5892.948941805094
0.236,-0.431114357748255,5899.489620158704
0.24,-0.10541628155877113,5904.703183383801
0.244,0.24366475537650487,5897.35280285257
0.248,0.5568483330362894,5903.932507864793
0.252,0.7858765564060198,5896.523097393054
0.256,0.9039747839977263,5905.677295852752
0.26,0.9088760887871219,5897.938275296955
0.264,0.81862685768213,5901.552162465156
0.268,0.6622470600024489,5905.27211194854
0.272,0.4685860142484041,5892.300377732934
0.276,0.2575789288229555,5900.133700210517
0.28,0.0375596278557807,5899.758105454284
0.284,-0.1904930833766304,5903.071162681321
0.288,-0.42468926051914424,5896.93889879433
0.292,-0.6548100257849636,5901.186548180971
0.296,-0.8594346994116244,5907.942127596827
0.3,-1.0086987221114125,5903.020735175405
0.304,-1.071559848078882,5906.87718296853
0.308,-1.024836804473083,5903.417965539838
0.312,-0.8604305836541694,5901.397529192129
0.316,-0.5878223285749996,5905.4218701643085
0.32,-0.23121951957507275,5906.756271058015
0.324,0.1766322609284347,5900.299743366396
0.328,0.6006535052718414,5899.022203471671
0.332,1.0071502312672354,5905.113007320804
0.336,1.3647203106584163,5903.408516426444
0.34,1.6441222305628695,5898.075813244557
0.344,1.819560043674075,5901.495833617604
0.348,1.8724378763034668,5895.499912590476
0.352,1.7963008148548494,5917.5893149772855
0.356,1.6005003001707678,5889.884297241451
0.36,1.3107319562809208,5907.966542618661
0.364,0.9659776676493461,5899.551897844106
0.368,0.6126361400306837,5907.37118572047
0.372,0.29744339914350787,5901.609170711086
0.376,0.06085249411376987,5907.965719005794
0.38,-0.06830546751050565,5897.3446042987
0.384,-0.07722017619300241,5906.616928184082
0.388,0.02683603220577989,5901.747278933418
0.392,0.2135019521450038,5913.785474903792
0.396,0.4299031951343724,5889.002214115854
0.4,0.6074310070103593,5895.567191743628
0.404,0.6749619093409098,5904.012389402769
0.408,0.575462408692956,5897.445489980861
0.412,0.2808093630303456,5886.118884443986
0.416,-0.20018036934941846,5896.380337695273
0.42,-0.8230864413552578,5898.939147724647
0.424,-1.5176276544974734,5902.694447613299
0.428,-2.2020942270075827,5902.8611729649165
0.432,-2.797949032157425,5897.313902727034
0.436,-3.2410334313548463,5896.719693190431
0.44,-3.4877602336574935,5906.560103676673
0.444,-3.5168503853717707,5894.730679764883
0.448,-3.3286795752579157,5901.1979358701965
0.452,-2.944307230084175,5894.185065388467
0.456,-2.4047218090333096,5897.642502270375
0.46,-1.768888479110633,5901.45506548214
0.464,-1.1084203807226563,5900.355955354319
0.468,-0.49790457814625083,5895.865749070544
0.472,-0.002444080141731774,5895.393004106739
0.476,0.3338488255529735,5899.070195730974
0.48,0.49438965303906723,5901.4251979491
0.484,0.4896300204008114,5903.109656800258
0.488,0.3505433601879804,5907.633444271843
0.492,0.1192822932701067,5903.636188344019
0.496,-0.1596259803096962,5905.857209401733
0.5,-0.44530652580608693,5896.197574666857
0.504,-0.7028712832529425,5908.27199345268
0.508,-0.9026846511540629,5909.841457234866
0.512,-1.0189606207365385,5895.742393563658
0.516,-1.0308325828391423,5897.821784625907
0.52,-0.9273896415594546,5901.766019129954
0.524,-0.7148347432490773,5901.540066711373
0.528,-0.4214427375051248,5897.040164889314
0.532,-0.09632461878145808,5902.546776222756
0.536,0.19920500904471397,5899.548430311376
0.54,0.40555146981512286,5893.400931202309
0.544,0.47991378679152813,5899.1855861567965
0.548,0.40805758101966183,5898.039900157374
0.552,0.20919302876404114,5897.410959618229
0.556,-0.06790177783103893,5889.817614498182
0.56,-0.35672512331698125,5903.017467846805
0.5640000000000001,-0.5892804275519882,5897.916481133319
0.5680000000000001,-0.7116874636651974,5904.409228772675
0.5720000000000001,-0.6950144011909868,5902.692266125176
0.5760000000000001,-0.5395051076083979,5896.055338877223
0.58,-0.27251308187786194,5897.423944812262
0.584,0.0583953645711684,5891.809350599338
0.588,0.39505959306878546,5903.8309791586735
0.592,0.6786869530434837,5904.861918562625
0.596,0.858494887756159,5904.723129896089
0.6,0.89870125261797,5906.205566527887
0.604,0.7839814400645027,5900.005547563032
0.608,0.5227292048914338,5900.401604988968
0.612,0.146909602862467,5899.159641204223
0.616,-0.2920568099235724,5899.689646627002
0.62,-0.7308996639731233,5900.690972181421
0.624,-1.104590625169615,5896.406320237551
0.628,-1.3574698745125615,5898.803064575108
0.632,-1.4530196572746223,5901.6421935612325
0.636,-1.3793965578658156,5895.421858808776
0.64,-1.149147052072932,5898.449957312809
0.644,-0.7941475446494493,5902.256719051865
0.648,-0.35856503671517787,5899.8559610194925
0.652,0.1077061486615018,5902.150082690846
0.656,0.5542817929594586,5908.640062898803
0.66,0.9345038758882852,5906.177380033844
0.664,1.2088584991064049,5898.773315317539
0.668,1.3475966392567158,5902.509604405285
0.672,1.3333106802969517,5905.7235645469045
0.676,1.16457161239935,5909.965479949779
0.68,0.8599397752161717,5908.202896888224
0.684,0.45934390471124,5903.279001217206
0.6880000000000001,0.02005505484398188,5896.175984970204
0.6920000000000001,-0.39271689582130676,5891.521867453412
0.6960000000000001,-0.7179343904036197,5889.213619642516
0.7000000000000001,-0.9101870579679916,5905.14773992636
0.704,-0.9479079856954791,5904.078943881799
0.708,-0.8368866437871518,5900.1086339763015
0.712,-0.6086096683640113,5897.755975968744
0.716,-0.31383786986807893,5905.862219124311
0.72,-0.012560264440827739,5900.1717848321305
0.724,0.23792559331818233,5903.782181252583
0.728,0.39450047165146745,5895.116123728866
0.732,0.43662421120683365,5915.44205141399
0.736,0.36941418126596187,5905.382382999733
0.74,0.2207544124250759,5903.566670988147
0.744,0.03374291722639942,5892.984052670904
0.748,-0.1433641974257371,5902.405213549012
0.752,-0.26775899665300146,5895.228483433901
0.756,-0.3111696110961091,5900.768969650631
0.76,-0.26486803224391525,5900.121946009933
0.764,-0.13874995411784422,5897.579349746352
0.768,0.0447965124231855,5897.977912218927
0.772,0.25875621652380126,5903.6340778598105
0.776,0.4770506951477102,5908.329052675881
0.78,0.6760337474523875,5905.9325739638025
0.784,0.8333716949458175,5903.01258631388
0.788,0.9274566749677317,5903.3456472839935
0.792,0.9398089077026347,5903.764592573023
0.796,0.8606089764722631,5895.1739774654
0.8,0.6948192089688994,5907.258841738418
0.804,0.4647498229375906,5906.383086497938
0.808,0.20587266473739474,5904.328516773954
0.812,-0.043668891253848596,5893.365192394527
0.8160000000000001,-0.255294754573256,5889.395506690147
0.8200000000000001,-0.41783479051112915,5892.036857403937
0.8240000000000001,-0.5368254929909543,5898.2340817511285
0.8280000000000001,-0.6253923349441939,5899.144678076376
0.8320000000000001,-0.6915103581741802,5904.797201814106
0.836,-0.7289642779719785,5903.390278866348
0.84,-0.7173498340075495,5896.398412648449
0.844,-0.6305226565593129,5903.072714400663
0.848,-0.4476048572642377,5905.6510015518
0.852,-0.16054977412148788,5901.903126549448
0.856,0.22342185484742114,5899.086117256206
0.86,0.6825819839109479,5894.912318827312
0.864,1.1826335294219625,5899.711963700422
0.868,1.6792455768768972,5895.450646754894
0.872,2.121332250522846,5898.3006881694655
0.876,2.455566241533086,5906.14477661813
0.88,2.632794088488579,5909.5248966241625
0.884,2.6162084985988794,5894.434546454582
0.888,2.3897277447782734,5903.09057303869
0.892,1.9643709408702095,5898.518841956314
0.896,1.3805940457722599,5898.011757042231
0.9,0.7048533980666245,5892.757025186766
0.904,0.019389119763174676,5906.526423757999
0.908,-0.5937198854804779,5900.3436546861685
0.912,-1.0701549809600226,5906.129043507427
0.916,-1.3765630897086194,5897.920292631625
0.92,-1.5142014819350513,5896.822365079303
0.924,-1.5114960889879052,5902.369800828119
0.928,-1.4086178963408207,5902.407784350488
0.932,-1.2404895354030692,5898.603087414787
0.936,-1.024968773629341,5900.234531170312
0.94,-0.7604779956947364,5900.521331172199
0.944,-0.4336285748807236,5903.47512657163
0.948,-0.03365026613824728,5893.489186031356
0.952,0.432657219996089,5894.5565844947805
0.956,0.9328016570880576,5898.852686297581
0.96,1.4120768193666384,5910.56618252937
0.964,1.8076836524107385,5900.738461492366
0.968,2.0670148096604213,5901.461280675779
0.972,2.1620050021150288,5897.60704356932
0.976,2.0944888270374964,5907.280957855942
0.98,1.8925948574083853,5893.406995364893
0.984,1.6019779553384588,5902.158577587174
0.988,1.2763750575328303,5901.41439281464
0.992,0.9698397801221189,5900.110866649913
0.996,0.7302626044703381,5891.599041116235
1.0,0.5930788797678949,5908.089035860636
1.004,0.5755442606104908,5904.47377073659
1.008,0.6732062022520612,5895.898422988552
1.012,0.8599263465852945,5899.438173653049
1.016,1.0919865742373203,5902.859323976597
1.02,1.3162385514568593,5898.175871540157
1.024,1.4814896757198897,5892.310509224029
1.028,1.5509330221784425,5907.141223210339
1.032,1.512051672071794,5897.239952471871
1.036,1.3803016531115588,5893.3585432574855
1.04,1.1945296001688863,5900.86869349354
1.044,1.004891893362739,5900.408009995277
1.048,0.8568867593010256,5905.670232626856
1.052,0.7766868979660531,5902.046317002217
1.056,0.7624473706966093,5899.610710991061
1.06,0.7843083747510287,5901.669577416412
1.064,0.7934746337224592,5897.105643062901
1.068,0.737969403040948,5900.541693554653
1.072,0.5797606409188637,5909.24234390428
1.076,0.30702055738117434,5908.730854012795
1.08,-0.062423081203240235,5902.59035587199
1.084,-0.48648855409784075,5899.776400990026
1.088,-0.9101641376227033,5895.227544348795
1.092,-1.278800232454592,5893.112269418033
1.096,-1.5500150138807802,5907.18637422036
1.1,-1.702266178153601,5899.523789270767
1.104,-1.739355756537692,5893.159437062948
1.108,-1.6904236832339756,5904.936750978148
1.112,-1.6046574046650137,5903.598414345944
1.116,-1.5402971218621226,5899.52753188419
1.12,-1.549395004335362,5898.9637967759
1.124,-1.6623018011411332,5896.64587866145
1.128,-1.877120538823598,5895.671803434361
1.132,-2.1583145812875215,5899.546922102995
1.136,-2.4455357697371607,5909.970297629212
1.14,-2.669730329466643,5906.124100954424
1.144,-2.770739861217435,5901.753402787036
1.148,-2.7107279883119775,5889.588364962878
1.152,-2.480426096310202,5898.687518844219
1.156,-2.09823731087751,5903.494868731554
1.16,-1.6040779119642092,5888.833755401959
1.164,-1.0503467954201426,5902.905145973555
1.168,-0.4921384021588653,5895.968645937744
1.172,0.02167076771353414,5901.781573078834
1.176,0.45519368902988416,5900.974146981669
1.18,0.7892303838171338,5905.425007232175
1.184,1.0214488478765578,5899.52210975213
1.188,1.1631770898753122,5908.892860971038
1.192,1.233546184206787,5901.337222769322
1.196,1.2524000633277965,5895.73446194569
1.2,1.2339237593981587,5895.327906105263
1.204,1.183048753897777,5894.311853629001
1.208,1.0961063892723117,5906.458739887909
1.212,0.9656887819336469,5900.490960226121
1.216,0.7876234361074295,5898.222730809531
1.22,0.5666732336195645,5896.101752640066
1.224,0.3182549713387498,5903.889676523488
1.228,0.06583910884607684,5899.667029630893
1.232,-0.16412488324135646,5902.674778352672
1.236,-0.347613272690945,5899.3256914849735
1.24,-0.46793055428677915,5900.100013980476
1.244,-0.5202579801798886,5893.0551163666005
1.248,-0.5150833792617778,5907.46088519246
1.252,-0.4778488655237015,5893.362237718167
1.256,-0.4422645661061374,5893.979456181755
1.26,-0.43815890614993863,5910.833071144394
1.264,-0.4787891897675854,5894.837584230142
1.268,-0.5537052410421771,5902.240346478717
1.272,-0.6309084663366045,5896.101379687662
1.276,-0.6679407855366548,5898.719305039966
1.28,-0.6277724898937287,5908.62005964278
1.284,-0.4935114596357256,5899.069978980471
1.288,-0.2765893790068687,5902.101099041586
1.292,-0.015538359706096783,5907.186864009312
1.296,0.23430511399795378,5903.241941034401
1.3,0.41666230475036475,5899.20150970963
1.304,0.4900796788876834,5898.46458113216
1.308,0.43798771213297444,5901.601006714672
1.312,0.2701679496561268,5900.604056575614
1.316,0.016934861178838953,5901.494227529899
1.32,-0.2797436777708886,5903.835943550644
1.324,-0.5743621246213333,5900.378710577701
1.328,-0.8241569028962704,5893.226277361926
1.332,-0.9945324431539571,5905.962576363376
1.336,-1.0643232290276714,5901.069678854551
1.34,-1.0301862987647545,5899.526854233595
1.344,-0.9088335414426567,5899.52480272707
1.348,-0.7362451945447388,5904.442510342671
1.352,-0.5635218916206755,5893.310018531201
1.356,-0.44929864232084915,5896.970688101578
1.36,-0.4490333229627133,5900.292202475402
1.364,-0.6021596305206617,5897.914936964324
1.368,-0.9191113444646991,5899.060199113522
1.372,-1.3718630061375563,5892.11949330245
1.376,-1.8930777894324367,5899.248282618533
1.38,-2.3876243053083663,5904.693029718941
1.384,-2.754887278889931,5892.347479901508
1.388,-2.91403988251354,5902.040237122424
1.392,-2.822299230402891,5898.67794438013
1.396,-2.4801924134112885,5892.970026763144
1.4,-1.9251534771863863,5900.571984444276
1.404,-1.2200026279777747,5900.768511110385
1.408,-0.4427423928067208,5905.06440218489
1.412,0.3200810299319403,5893.868752631888
1.416,0.9785684946449085,5902.376777419823
1.42,1.4469418305452533,5903.996288529836
1.424,1.6553907921937159,5895.60556175305
1.428,1.564822508746962,5906.3851632786655
1.432,1.1797676176936263,5902.419734920444
1.436,0.5538031746458001,5897.471894288601
1.44,-0.21589243176191192,5896.741860626772
1.444,-1.004174814536079,5902.588487350498
1.448,-1.6797821902553514,5895.73187822694
1.452,-2.1285105016955517,5904.341319147109
1.456,-2.2737528309694235,5898.796832400938
1.46,-2.0914322913641237,5896.562398626018
1.464,-1.6164859670673362,5907.616272127107
1.468,-0.9382348547073606,5891.163163457763
1.472,-0.18371244356034072,5909.110469735487
1.476,0.5086142598557859,5899.73073762479
1.48,1.0188080874535297,5897.784573781971
1.484,1.2711562928846054,5900.091317054984
1.488,1.2482363924568973,5896.297803743881
1.492,0.9897681715738942,5895.968811206329
1.496,0.5781742535736014,5903.313248477989
1.5,0.1166216379800581,5899.214123039132
1.504,-0.2944194198995264,5897.177730710793
1.508,-0.5777376044928587,5903.601345982934
1.512,-0.6938256040558796,5903.989860256563
1.516,-0.646444447990072,5912.774589121308
1.52,-0.4778301798045943,5900.924655859988
1.524,-0.2545834889186233,5908.613067977205
1.528,-0.047946866180700445,5903.141978161244
1.532,0.08618248387978204,5897.997586500621
1.536,0.12191595527890056,5889.330959226194
1.54,0.06825963194040717,5904.983227318519
1.544,-0.03773185993735609,5899.214472797103
1.548,-0.14771336981183417,5894.544067133482
1.552,-0.22261617609467735,5896.689041440919
1.556,-0.24828271822990025,5905.073632207435
1.56,-0.23890558893172545,5902.477012149693
1.564,-0.22667142162374582,5890.599459765248
1.568,-0.24285110357847609,5900.652141204805
1.572,-0.29987873080141425,5893.46054001244
1.576,-0.38351157266013897,5899.963729470612
1.58,-0.45899759711456983,5903.219836364002
1.584,-0.4879071432787541,5899.684362877373
1.588,-0.4471901245623877,5906.3769034811485
1.592,-0.3419218053732435,5895.806912162715
1.596,-0.20706852741372758,5903.961768415788
1.6,-0.09822537974122705,5904.417501224128
1.604,-0.07462435201880907,5900.593150982333
1.608,-0.17963880595655346,5898.433535136859
1.612,-0.4247818936429282,5901.218512215901
1.616,-0.7825353673466008,5889.695697229144
1.62,-1.1907130297036852,5907.4474091154525
1.624,-1.5669613938306992,5902.947857069646
1.628,-1.828559288890594,5901.168984540313
1.632,-1.911814077105587,5899.89194249855
1.636,-1.7867134959071023,5884.332125945561
1.64,-1.4641977000284656,5901.293526824037
1.644,-0.994542073162169,5901.519784672356
1.648,-0.4567122745601983,5898.7322308487965
1.652,0.059103010693103405,5900.7378374242935
1.656,0.4710986311494231,5907.501365779566
1.66,0.7220058584962952,5907.018605811367
1.664,0.7879442563525341,5897.946396503096
1.668,0.679592093189235,5901.318625321923
1.672,0.4377283715397203,5896.07667116833
1.676,0.12517192625698392,5904.259016490302
1.68,-0.18382613570187564,5899.800226466146
1.684,-0.41595534042289,5895.634307401063
1.688,-0.511853636557683,5897.702349656675
1.692,-0.43790684755023435,5896.964182487627
1.696,-0.19409234971954434,5895.59254624144
1.7,0.18491180081933564,5898.156764391049
1.704,0.6364688458666843,5893.767999614076
1.708,1.0831646670549147,5903.811535872409
1.712,1.4491457177993863,5890.183841103658
1.716,1.6758236254691747,5901.001419767174
1.72,1.7336492488397832,5900.045782692292
1.724,1.6273908589293529,5892.130346900312
1.728,1.3931683483473065,5895.409938895851
1.732,1.087129029572331,5896.693364161306
1.736,0.7685251117752494,5907.2182018465965
1.74,0.4828573823862309,5896.93535933147
1.744,0.25136960596629304,5904.318845007843
1.748,0.07049282800244512,5899.708201204991
1.752,-0.07941676198136102,5898.518282243713
1.756,-0.2199830231855108,5899.326628469356
1.76,-0.3609131786777186,5898.259697833249
1.764,-0.49212950063730126,5892.671769690051
1.768,-0.5859195210881405,5901.061380358758
1.772,-0.6085807359639275,5897.095578454586
1.776,-0.5360166941062857,5898.425680515539
1.78,-0.36578214291664163,5896.559640416852
1.784,-0.12030986346702671,5901.101373922677
1.788,0.15958521864752317,5889.09327688773
1.792,0.42783658543187436,5889.704125314072
1.796,0.6473566627366881,5899.66455562472
1.8,0.7994820298253644,5897.631861708038
1.804,0.8849673203833646,5903.347676510976
1.808,0.917231198958144,5899.351941395312
1.812,0.9128141787376468,5905.459601724769
1.816,0.8849140955347876,5910.762006226736
1.82,0.842477150299476,5897.882820355398
1.824,0.7928601332109555,5899.478007123207
