时间(s),电压(V),幅值(高频80K)
0.0,-4.142803403562723,5897.965145193348
0.004,-2.6686341282488217,5896.790299603928
0.008,-1.3734704206823087,5888.235465553221
0.012,-0.39365846204093297,5903.470972509274
0.016,0.20040031802993588,5896.611537686382
0.02,0.41239476308166756,5905.07368297655
0.024,0.30934789774156934,5893.3268052384365
0.028,-0.0014053012434347236,5894.259749796815
0.032,-0.39927129074027784,5899.081560953015
0.036,-0.7749777630872521,5894.642738973219
0.04,-1.048353606129381,5901.96259146369
0.044,-1.1766660289389852,5899.5368117135895
0.048,-1.1534432938543941,5898.749043860459
0.052,-1.0008292571914337,5904.834442008797
0.056,-0.7594864361335298,5897.019855174784
0.06,-0.47813284960375,5894.459221038127
0.064,-0.2027947508052048,5889.058352634073
0.068,0.033401551489114216,5906.865165881528
0.072,0.2166040041564001,5896.516437810569
0.076,0.35131248820546757,5896.617329808752
0.08,0.4527021390614339,5909.142649273836
0.084,0.5373243173256339,5900.150158438142
0.088,0.6174580278957624,5897.808324935276
0.092,0.7001797067893473,5901.238789879335
0.096,0.7885838191173675,5899.662182879808
0.1,0.8825689459951649,5902.9848918975
0.104,0.9784325235347893,5899.312366435252
0.108,1.067631756034515,5915.062705123116
0.112,1.1354576522738282,5897.397680143093
0.116,1.1609648457350874,5892.210368522516
0.12,1.1199662443758436,5902.13233843435
0.124,0.9920020188358833,5903.964826704737
0.128,0.7695242122429776,5896.717437291191
0.132,0.46482940022991437,5913.247374283228
0.136,0.11030969773919323,5901.247247282225
0.14,-0.24899750677337507,5903.792817287238
0.144,-0.5674047426526987,5901.360907602858
0.148,-0.8100086398662257,5897.651504782291
0.152,-0.9594589906467152,5902.504695973652
0.156,-1.016596403774243,5903.039694646438
0.16,-0.9959958354628231,5896.59507572842
0.164,-0.9189191643392627,5895.061257023067
0.168,-0.806626187785721,5898.365487482775
0.172,-0.6763981728761771,5890.080652689809
0.176,-0.5409913753824238,5901.079641013066
0.18,-0.41045389460166026,5899.7312602143975
0.184,-0.2945727877514304,5896.262673040576
0.188,-0.2047647967662902,5896.708752376665
0.192,-0.1546650680837109,5901.410492124739
0.196,-0.1582795136875812,5898.01777544775
0.2,-0.22478520693226187,5890.078081654247
0.204,-0.3512704805923146,5897.83946176186
0.208,-0.5173210343571742,5905.339168189518
0.212,-0.6855276609534242,5898.546709005544
0.216,-0.8093558020418743,5893.728300664788
0.22,-0.8464859548104208,5907.84704130422
0.224,-0.7734214907774487,5897.623392391672
0.228,-0.5963147431568635,5901.047961321011
0.232,-0.35366650679885603,5901.453069029149
0.236,-0.10852055376706753,5899.316183832553
0.24,0.06939822342961359,5898.724106443964
0.244,0.12728504833711057,5894.724513125137
0.248,0.0501578733086398,5899.271889491886
0.252,-0.1305240592072744,5900.476126579582
0.256,-0.34559268114703845,5909.246444188547
0.26,-0.5110286849545901,5893.672201748951
0.264,-0.5551675147668295,5901.751540015705
0.268,-0.43970698473522374,5906.3170009664
0.272,-0.16820642493951032,5904.15004920267
0.276,0.2186658649585715,5898.806795952036
0.28,0.6576071408974146,5902.971746375536
0.284,1.0811215667135776,5898.851257022802
0.288,1.434079609609045,5900.065539891536
0.292,1.684072627090166,5896.658414579902
0.296,1.823664542966324,5903.699166448499
0.3,1.8655640952147543,5908.953331951856
0.304,1.833971216577389,5905.58554662159
0.308,1.7553585802959522,5900.9868382202485
0.312,1.650432182961908,5900.596035839811
0.316,1.528322118466342,5895.741113132169
0.32,1.3847063112588152,5895.647040403909
0.324,1.2055561301381743,5899.802477555266
0.328,0.9759598959227999,5894.97713456561
0.332,0.6902776293531697,5895.047340360469
0.336,0.3585093721128908,5898.889346625686
0.34,0.005615694007733729,5891.161147688112
0.344,-0.33556610955769633,5893.050477142595
0.348,-0.6338359018174606,5902.784529890859
0.352,-0.867031439194072,5906.464109673044
0.356,-1.0251750875789458,5899.743593299094
0.36,-1.1104606380269924,5900.678772866496
0.364,-1.1363893213296958,5903.292353765937
0.368,-1.1267853083281265,5900.857249127935
0.372,-1.1131480360550052,5904.542342867644
0.376,-1.1283133597631727,5897.239063259312
0.38,-1.1962129476174215,5897.037111950667
0.384,-1.3205421578230507,5894.383930202471
0.388,-1.477646537208235,5895.686196343501
0.392,-1.6189282947620804,5905.571447460093
0.396,-1.6844999382144825,5902.466972007397
0.4,-1.6240304811324127,5900.874680143898
0.404,-1.4162160741620051,5906.4184389919465
0.408,-1.0783777179731533,5906.523545119892
0.412,-0.6626053741906949,5900.037583075285
0.416,-0.24114937405873538,5897.751870584887
0.42,0.11264464304186335,5897.754744776694
0.424,0.34180955169739274,5888.267057242278
0.428,0.4179873708802439,5897.645578965783
0.432,0.3469588655201237,5895.957711451608
0.436,0.1669522426151391,5894.791422917408
0.44,-0.060268709692739376,5897.756806348086
0.444,-0.26412111280840334,5894.83035105589
0.448,-0.3821149731444303,5889.811702243083
0.452,-0.3738715178074716,5894.567322809988
0.456,-0.22770845551006705,5900.989690522057
0.46,0.041903889911284256,5896.514552266966
0.464,0.40350983769481746,5897.200380643444
0.468,0.8187774996039522,5910.406665114068
0.472,1.2483778437279498,5901.941853038674
0.476,1.652634189099278,5900.372281429727
0.48,1.9903451305463467,5904.626169241888
0.484,2.220309410343573,5899.090525951276
0.488,2.307597232504333,5899.206678199979
0.492,2.232877308429645,5897.395537857053
0.496,2.0005497083552006,5898.160903820869
0.5,1.6411353696437185,5900.159826811907
0.504,1.2053373419885591,5900.574183549612
0.508,0.7508455635577495,5913.856318521937
0.512,0.3271099152819137,5892.913974774743
0.516,-0.03448088025691719,5893.926472779413
0.52,-0.32008525623187156,5903.308470324612
0.524,-0.5243295230478341,5909.031542157344
0.528,-0.6402254713766568,5895.544798440084
0.532,-0.6558029704201882,5893.9912326503145
0.536,-0.5601271625195442,5900.227427521589
0.54,-0.35530702293612676,5902.233834526046
0.544,-0.06769212099726625,5894.0789491762525
0.548,0.2482283377432537,5903.241852213651
0.552,0.5166059022447537,5904.649107339295
0.556,0.6568182009210143,5893.1714892885175
0.56,0.6051701908370384,5898.91739491064
0.5640000000000001,0.33494977695834055,5894.909150160956
0.5680000000000001,-0.13160620540852366,5902.388276633943
0.5720000000000001,-0.7235052383438426,5896.179159208169
0.5760000000000001,-1.3340356189280638,5900.511926723301
0.58,-1.8438918838866927,5894.785323806307
0.584,-2.1487703592246445,5900.143336677271
0.588,-2.1843633475224795,5897.294771719759
0.592,-1.9423581152909057,5892.174487476335
0.596,-1.4733182931086761,5902.606237719489
0.6,-0.8750276179980732,5890.624580794394
0.604,-0.26801859672809103,5892.594691848918
0.608,0.23590663761974398,5901.474153821108
0.612,0.5627794489688803,5901.150691797204
0.616,0.6936253068338856,5909.394419398519
0.62,0.6642119870083653,5904.482607628878
0.624,0.5480827246330647,5898.261185054572
0.628,0.42896494775958166,5889.863972472723
0.632,0.371749062822372,5896.118040840767
0.636,0.40166388617820786,5897.074712671901
0.64,0.49890609701161603,5896.733799850858
0.644,0.6106300945201838,5903.07049966495
0.648,0.6749188704782411,5892.644402901478
0.652,0.6457969433394458,5897.287606441964
0.656,0.5086207935136483,5901.345502083478
0.66,0.281407443752646,5906.308456888465
0.664,0.005196132756330221,5900.141209894236
0.668,-0.2697558060953556,5887.783697381514
0.672,-0.4965093152908659,5895.361781958532
0.676,-0.6407986010430218,5896.839487189252
0.68,-0.6872953787786125,5893.088982369548
0.684,-0.6425138465514749,5896.036151631151
0.6880000000000001,-0.5334692021011326,5907.886205231309
0.6920000000000001,-0.4019835034502746,5896.37394601429
0.6960000000000001,-0.29579818819774284,5898.088269802791
0.7000000000000001,-0.25812263846742817,5896.014196913638
0.704,-0.3173123768529273,5900.143388944266
0.708,-0.47855832847747143,5901.630551380292
0.712,-0.719450496273682,5903.104732040303
0.716,-0.9910302464950013,5899.825378550096
0.72,-1.225594737569184,5889.474959546891
0.724,-1.3513191513262577,5913.016084123544
0.728,-1.3110065805887863,5909.074712321802
0.732,-1.0791403622278062,5901.897009585672
0.736,-0.6707222039410788,5902.429702163561
0.74,-0.13854610333497172,5903.770011800216
0.744,0.43945289988278713,5893.815371775925
0.748,0.9777260134304575,5898.404082269434
0.752,1.4002531675094831,5895.25467247182
0.756,1.653978961580286,5902.461703357763
0.76,1.71694660945614,5889.827062500086
0.764,1.6001292742878563,5894.931177960829
0.768,1.3426934545692604,5899.768894363467
0.772,1.0018812842553904,5899.335600638007
0.776,0.6397467729950904,5903.624247791355
0.78,0.3093764255563403,5902.858652140247
0.784,0.043775068743105924,5894.387992490295
0.788,-0.14908338330066745,5899.276888161687
0.792,-0.28274589323662475,5900.100450732552
0.796,-0.3811550130928643,5896.153589183736
0.8,-0.46465478969220575,5897.091580109374
0.804,-0.5399304355060444,5903.528818696999
0.808,-0.5987576304525113,5891.101209852192
0.812,-0.6255105884998975,5889.684441327606
0.8160000000000001,-0.6088043181950271,5902.727107604176
0.8200000000000001,-0.5509613380662647,5897.83567304098
0.8240000000000001,-0.47071618874154947,5896.563816457945
0.8280000000000001,-0.39855410297824767,5897.897883933141
0.8320000000000001,-0.3676203639030045,5901.300154091808
0.836,-0.40383569424829974,5902.808247504983
0.84,-0.5174555874559729,5891.804454951973
0.844,-0.6975488164462738,5889.790756244739
0.848,-0.9113661650117472,5902.016713756738
0.852,-1.1103212249929388,5906.764668662631
0.856,-1.2420718635316872,5895.552818255468
0.86,-1.265289739002954,5892.889068509156
0.864,-1.162137082248544,5900.127676682808
0.868,-0.9439310629122994,5901.767341331679
0.872,-0.6478041347050518,5899.623752023202
0.876,-0.32568578472921383,5899.769559593483
0.88,-0.029839997772267236,5896.255488610475
0.884,0.200101410736226,5905.61615588081
0.888,0.3449475642537316,5895.088650814468
0.892,0.40707601068295235,5894.233220322581
0.896,0.40539526891045136,5898.070856768866
0.9,0.3661129443024843,5894.576924787276
0.904,0.31249034281703636,5898.501116590349
0.908,0.25761793862255583,5904.103347328191
0.912,0.20317075186174371,5902.82010709858
0.916,0.14376087616730177,5897.785783812099
0.92,0.0736543277515989,5903.505368763946
0.924,-0.007377745277094218,5895.344542809728
0.928,-0.09065893644278225,5897.348815456483
0.932,-0.1582820607969395,5902.428265228548
0.936,-0.186318170691356,5895.752286989936
0.94,-0.15136069026776744,5902.29444783188
0.944,-0.038660892086857065,5898.048634558253
0.948,0.15122468642922682,5898.474547490122
0.952,0.3999573250627973,5898.713309337936
0.956,0.6736384794957013,5892.117566105699
0.96,0.9283969842237979,5902.818212587932
0.964,1.1179298099053474,5899.655516424871
0.968,1.202191999668282,5902.466934821175
0.972,1.1561641676380838,5892.450819138598
0.976,0.9768375371899852,5911.274274221313
0.98,0.6863403463189789,5898.77611002311
0.984,0.329702753166717,5903.950360618967
0.988,-0.033077564391953404,5900.541935646577
0.992,-0.33932240556581605,5899.883694949908
0.996,-0.5372138315853681,5898.8060329706905
1.0,-0.5966542577209372,5896.241998952353
1.004,-0.514306729363885,5904.590290883152
1.008,-0.31184381079965623,5897.171072591415
1.012,-0.028864134872605016,5904.975280234875
1.016,0.28663099617142707,5895.20909893091
1.02,0.5873745037951792,5909.019615577127
1.024,0.8337343846225453,5893.378379430044
1.028,0.9976431256163627,5893.53406489478
1.032,1.0638826177730676,5902.24611985687
1.036,1.0298005029870647,5895.780288603907
1.04,0.9043250114840093,5900.728020573091
1.044,0.7062083754893089,5894.36868712617
1.048,0.4610624497820277,5913.311431733023
1.052,0.19738544260604404,5903.529132840428
1.056,-0.05751653878538614,5903.573649925995
1.06,-0.2806559611810243,5900.943261862859
1.064,-0.45488026055866704,5896.730917460718
1.068,-0.5690405243485525,5903.143052849334
1.072,-0.6178508384220228,5902.1417702819845
1.076,-0.6022231063393505,5894.012570641748
1.08,-0.5299213103596042,5901.66795208768
1.084,-0.41568690866100017,5898.514069881761
1.088,-0.279808184733245,5892.495043306483
1.092,-0.1445194112649301,5900.742458824324
1.096,-0.0288114311268952,5889.812163600652
1.1,0.05632475297928426,5898.34961600461
1.104,0.10989160487581706,5887.186222468059
1.108,0.13939403396116984,5899.783713281708
1.112,0.15739118621862372,5904.617764847334
1.116,0.17822592635325793,5894.998144215112
1.12,0.21559987927593624,5902.006035754374
1.124,0.27998745504289785,5898.49469326143
1.128,0.374842724001468,5901.031587799003
1.132,0.4922858079605976,5899.0266092186175
1.136,0.610938593048492,5898.046486211479
1.14,0.6988655161916656,5905.063582490001
1.144,0.7224983853531316,5889.581436515048
1.148,0.6592072127771796,5900.03077199646
1.152,0.5088112585545428,5902.306720643378
1.156,0.2989187765308888,5901.130845919816
1.16,0.08046627964411317,5899.130050666868
1.164,-0.08690931882326182,5894.36618803144
1.168,-0.1552762527006636,5892.56937725956
1.172,-0.10625194492959723,5900.592929808428
1.176,0.04177488338297747,5899.680102034531
1.18,0.2400724229100885,5898.1439731745295
1.184,0.42628625878918514,5904.529580287417
1.188,0.5441224331188954,5896.082841819291
1.192,0.5584734804840136,5893.348550190635
1.196,0.4614019563229416,5896.958757171947
1.2,0.2688479461791675,5897.641507303915
1.204,0.011869276255336441,5888.428251048644
1.208,-0.27227183747328754,5906.519368386264
1.212,-0.5457419534162993,5903.528742617623
1.216,-0.773044827120952,5885.7969251403365
1.22,-0.9243941710399092,5901.435576801129
1.224,-0.9813935094432803,5909.215195647614
1.228,-0.9429462279296341,5895.40239315736
1.232,-0.8270384178439983,5898.151666274363
1.236,-0.6657788526628542,5900.000872591987
1.24,-0.4950896525152833,5898.274158084634
1.244,-0.34349967662627623,5895.364009551396
1.248,-0.2251534876959401,5892.5604123652365
1.252,-0.1402217915994215,5903.62549589516
1.256,-0.08163579689602903,5899.620640298679
1.26,-0.04291573898252013,5896.180882564332
1.264,-0.021667229993444094,5907.826612920918
1.268,-0.017449434375269704,5899.461799340156
1.272,-0.026925348475228435,5908.75475113877
1.276,-0.04008021545441866,5904.949678265431
1.28,-0.040061735624817525,5907.793250280754
1.284,-0.008218924659824045,5895.92290322086
1.288,0.0655262349909696,5894.084881022444
1.292,0.17041563551843208,5898.978915412422
1.296,0.26812951556552345,5896.215329642064
1.3,0.29904188536587517,5899.538251110906
1.304,0.20284867309298144,5897.557703682372
1.308,-0.05382418295533272,5895.023624043532
1.312,-0.455588380787988,5903.288528230958
1.316,-0.933526661791657,5899.205278744883
1.32,-1.3816783979409635,5900.09548526301
1.324,-1.6895857634007654,5904.191547919234
1.328,-1.778093721504091,5907.678664557849
1.332,-1.623880896134394,5900.834794339296
1.336,-1.2638167280902233,5899.903685920511
1.34,-0.7797397642552618,5899.62312520527
1.344,-0.27181999139007595,5898.209988817666
1.348,0.169091492338596,5892.930370920507
1.352,0.48205468930355033,5892.477752749438
1.356,0.6456660818971204,5899.812367509006
1.36,0.6765738671142818,5907.344254301445
1.364,0.6190944752580925,5905.758792433621
1.368,0.5291937714959413,5894.660129155346
1.372,0.4567122391676432,5900.3567497587055
1.376,0.43042696806648567,5900.402391386666
1.38,0.4506206929449815,5898.876789194608
1.384,0.49195385704765054,5896.577608416822
1.388,0.5155267955689867,5899.787178086655
1.392,0.4848379299468709,5888.067929674627
1.396,0.37835527149968384,5895.808582105665
1.4,0.19338720385821362,5896.825489680097
1.404,-0.05864414458663344,5905.46127888418
1.408,-0.3602405623540825,5891.652409587118
1.412,-0.6931360271436219,5901.828517348464
1.416,-1.0387102003314845,5899.9781275858695
1.42,-1.375843720027443,5897.439241178661
1.424,-1.6800955970218459,5891.389752749415
1.428,-1.9265349684296018,5894.691452466823
1.432,-2.0957070737378753,5894.288207986642
1.436,-2.1797653522359095,5892.748089969239
1.44,-2.1852009146389237,5906.324387569215
1.444,-2.1302621705283418,5892.847653112983
1.448,-2.03774791962459,5888.512745245998
1.452,-1.9258697448146656,5901.707110162109
1.456,-1.8008251878538688,5885.303212309605
1.46,-1.6542148879240344,5895.718274244352
1.464,-1.466349218976455,5900.755100433018
1.468,-1.2140976471681246,5897.266943117711
1.472,-0.8806904856074721,5890.977865726614
1.476,-0.4646039459875627,5901.415214300959
1.48,0.015381292791837751,5896.159385400838
1.484,0.5211782147401073,5896.052536176202
1.488,1.0026333815716122,5895.45050485194
1.492,1.4088232585534208,5895.055992496013
1.496,1.700254631653822,5895.141504028043
1.5,1.8591156545499146,5898.410271172553
1.504,1.894725206246114,5893.096857028228
1.508,1.8412837118796554,5889.93940716287
1.512,1.7470518136648283,5905.286087963654
1.516,1.6580856173123264,5900.522720894252
1.52,1.6024845432069006,5895.670653406952
1.524,1.5807125230895072,5898.972965395951
1.528,1.5650281517942237,5899.125512161766
1.532,1.5082826022013054,5902.941705191321
1.536,1.3600363142044103,5896.956116797382
1.54,1.0858631080075292,5897.994862472323
1.544,0.6837469464462286,5896.558844513503
1.548,0.1909102303885731,5893.414487832465
1.552,-0.3228221060285791,5897.703414547058
1.556,-0.7732613701044152,5898.153094558199
1.56,-1.0845534957286318,5887.696683200046
1.564,-1.2078996997702138,5898.197336121394
1.568,-1.1309700847554833,5899.254041781141
1.572,-0.8775671760915418,5897.771806994845
1.576,-0.5004313011348872,5891.598261639037
1.58,-0.07028835976001768,5887.351716835427
1.584,0.3373982764124053,5901.28905414532
1.588,0.6573031049491785,5898.267204622245
1.592,0.848882993612204,5895.265079668007
1.596,0.9071554273318132,5894.3810774918265
1.6,0.865537348603189,5895.298544322129
1.604,0.7883083049081557,5887.570141759546
1.608,0.7535519641415204,5898.656906165233
1.612,0.8309033624475758,5908.000184232999
1.616,1.0601382341956345,5910.002549420881
1.62,1.4360723636934611,5895.148172390171
1.624,1.903817481357045,5898.225959103175
1.628,2.3672670604130714,5899.001692461973
1.632,2.7116720993644345,5902.509905365993
1.636,2.8364032217070374,5897.213623186663
1.64,2.6875224976283656,5896.0465737707655
1.644,2.276789624598114,5887.889818961933
1.648,1.6783942716241826,5899.370392095132
1.652,1.0047624662611596,5890.209863452929
1.656,0.371737159128992,5896.073131869881
1.66,-0.13322473720830325,5897.309090518168
1.664,-0.4690053603120433,5897.528181427202
1.668,-0.6411745873683525,5903.8350241631
1.672,-0.6888093466551913,5901.967290771343
1.676,-0.6661566538369906,5889.586754935395
1.68,-0.6263319767472602,5906.928110717592
1.684,-0.6101037297498058,5891.72344516215
1.688,-0.6397426613416847,5898.350150238445
1.692,-0.7171176092562702,5897.590081369774
1.696,-0.8254951024770678,5895.827817652265
1.7,-0.9348102759044172,5898.8728864368
1.704,-1.0098225250468682,5902.78785971059
1.708,-1.0193355168363711,5901.568712349178
1.712,-0.9438328173179856,5897.569347389316
1.716,-0.7797501196920981,5899.790567287153
1.72,-0.54029018202978,5892.21062219749
1.724,-0.2534581385684294,5899.819909647575
1.728,0.04238711597214147,5899.35022463697
1.732,0.3057208688825109,5904.242403860072
1.736,0.5016420853709525,5895.746531198367
1.74,0.6121998250000872,5891.687628336245
1.744,0.6428659909755899,5896.691115204546
1.748,0.6206633899732672,5893.851289988219
1.752,0.5828219843593536,5904.049334455768
1.756,0.559943401633462,5900.161477714098
1.76,0.5614665707510181,5898.961566175103
1.764,0.571225819208874,5893.46691650385
1.768,0.5561597403565869,5894.397662397874
1.772,0.48389492477005364,5894.107054859766
1.776,0.33977933280250866,5895.27001595494
1.78,0.13469808982570272,5898.550220393212
1.784,-0.09903277222179527,5895.300692046447
1.788,-0.3198488998605543,5890.730937708654
1.792,-0.49069463614345066,5892.499714384364
1.796,-0.5893822853153101,5890.14993502072
1.8,-0.6132102453527094,5891.458267583335
1.804,-0.5772910617504315,5893.840746942963
1.808,-0.5076396969825533,5899.74322221001
1.812,-0.4319875783731803,5895.676306628047
1.816,-0.37220479065924045,5892.009312042189
1.82,-0.3406681302789636,5890.68210199623
