时间(s),电压(V),幅值(高频80K)
0.0,3.265752816332908,5904.04689846945
0.004,2.170097210348047,5898.304037723927
0.008,1.1812446061275577,5898.057937691155
0.012,0.38894731794267134,5900.206189094297
0.016,-0.1567932443411933,5890.898069411899
0.02,-0.4509546110008931,5896.241786530011
0.024,-0.5267128459657535,5900.095156246941
0.028,-0.4405294482896023,5891.412752880972
0.032,-0.25531353390836736,5900.401521056789
0.036,-0.027128895528185603,5901.513779967438
0.04,0.20197809181329,5896.008807495122
0.044,0.40518207588346405,5902.928997084734
0.048,0.5676227056136606,5892.301076695134
0.052,0.6809852388911274,5902.974195752484
0.056,0.7390061118624643,5894.712310515275
0.06,0.7367209397381441,5902.929376049982
0.064,0.6740538051558344,5907.626400634523
0.068,0.5612421715098035,5902.278869585656
0.072,0.4217972311684241,5903.860111592951
0.076,0.2896698791247528,5900.695662704994
0.08,0.20063773588949047,5904.547067286201
0.084,0.1814616724897161,5903.660988912096
0.088,0.24150583474280038,5901.022840074148
0.092,0.36972364573414007,5897.218458141876
0.096,0.5373242723572259,5902.234682166304
0.1,0.7051551432112174,5901.21928173017
0.104,0.8345344172105982,5894.691213537696
0.108,0.8993823512316076,5901.348660567862
0.112,0.8958529436106525,5900.41663194129
0.116,0.8451300428257055,5893.800133881588
0.12,0.7872897777288623,5902.004486688566
0.124,0.7679556908272852,5895.757686009531
0.128,0.8221347009306186,5903.224521488489
0.132,0.9602891667990446,5899.147552768049
0.136,1.1613084158345959,5899.688685494678
0.14,1.375699987063724,5897.819911959329
0.144,1.5392292636827964,5899.843230142322
0.148,1.5927939036367256,5895.464086241991
0.152,1.5011141592666755,5899.181171405267
0.156,1.2635798812979537,5904.849576734971
0.16,0.9147819221479406,5908.2033610561575
0.164,0.51627598153071,5892.633251602671
0.168,0.14255341019324289,5894.9261018238585
0.172,-0.13593794644452653,5899.351958631493
0.176,-0.2694668778336996,5905.21700036341
0.18,-0.24122398604119763,5899.521564228232
0.184,-0.07137685747113436,5905.546279685702
0.188,0.1881472650562546,5893.90167373692
0.192,0.4662118583231963,5900.882149280599
0.196,0.6886525001975486,5902.048081808348
0.2,0.7941248342362499,5900.943361224347
0.204,0.7460202389325061,5904.744713929834
0.208,0.5375583385991879,5895.670324259047
0.212,0.18894702260952656,5889.465088565707
0.216,-0.26137962140263005,5905.612080484736
0.22,-0.7666126273051507,5885.438329621267
0.224,-1.2778057456393832,5901.702967641388
0.228,-1.7454971623208786,5908.112437338306
0.232,-2.11987329810379,5901.1991587924185
0.236,-2.3533949204599303,5903.062207650884
0.24,-2.4070730342708035,5903.301774736011
0.244,-2.2586937419043354,5902.089700307951
0.248,-1.9104158044732515,5895.897934387653
0.252,-1.3931618411691808,5894.538952094089
0.256,-0.764690523462132,5897.554994205713
0.26,-0.0986205131184123,5902.092187783538
0.264,0.5347169703253097,5896.310381973491
0.268,1.0889097552701639,5900.119443052273
0.272,1.5532761484156383,5903.44145608074
0.276,1.9479852281743757,5907.555102725052
0.28,2.302983753020537,5899.002407998276
0.284,2.6307411921318122,5899.046803469464
0.288,2.907074179211778,5893.0535765859695
0.292,3.0705666164446024,5908.439072221275
0.296,3.04214838714033,5896.2866807468445
0.3,2.757300164882643,5895.877062717492
0.304,2.1980262338978407,5894.114554019467
0.308,1.4117848508816475,5891.228220990122
0.312,0.5093299171735378,5907.859453527432
0.316,-0.35906209553327156,5903.718870675487
0.32,-1.0416095492926118,5897.790597867584
0.324,-1.4245029563709906,5899.599849769569
0.328,-1.4597046286241602,5896.15511583355
0.332,-1.1729196962987203,5898.609710344915
0.336,-0.6512710270981042,5899.440791224715
0.34,-0.016851435939335024,5898.127035258879
0.344,0.6045010034216457,5903.526398557505
0.348,1.110256899910924,5898.973493270545
0.352,1.4378137637785957,5906.16572193961
0.356,1.5683008526789908,5896.005587145252
0.36,1.5195280303746326,5899.343492360175
0.364,1.3332162005588997,5895.0977988730765
0.368,1.0618858843722876,5907.630743284177
0.372,0.7585868621882541,5899.13886560163
0.376,0.4703566305261944,5898.371914889251
0.38,0.23477990830095494,5904.474371125698
0.384,0.07776042341588346,5899.133041166822
0.388,0.010444927271360297,5896.219227731496
0.392,0.025383515761026185,5900.568450430715
0.396,0.09487571952896624,5906.293785876535
0.4,0.17489475177317645,5900.277956839775
0.404,0.21543001367239048,5903.608358660977
0.408,0.1747966128790827,5895.262854073384
0.412,0.03339797383946496,5901.2403974837935
0.416,-0.19789285599254644,5895.066249228201
0.42,-0.47805320975112986,5909.622167125551
0.424,-0.7453363042819336,5906.923542755601
0.428,-0.9333900943463646,5902.849051681044
0.432,-0.9900686218405271,5904.55088955284
0.436,-0.894145245393059,5893.370801709563
0.44,-0.6646721018573474,5897.28193044094
0.444,-0.35852067228015494,5893.373321400214
0.448,-0.05491237624255986,5894.088939829087
0.452,0.1689994993785786,5889.582068969152
0.456,0.2629822352089797,5890.843569745211
0.46,0.21985643856945986,5900.858645225821
0.464,0.07728285348892838,5905.762320259166
0.468,-0.09497886426852283,5908.091472727878
0.472,-0.21749078774344102,5900.831365240206
0.476,-0.22541027697499516,5903.454257941456
0.48,-0.08716815661665461,5893.2763091564975
0.484,0.18668587062040126,5900.501805861391
0.488,0.5454648852553377,5903.531437214284
0.492,0.9106544013453141,5888.754663650666
0.496,1.1968222688217527,5906.362123202847
0.5,1.3364499475367848,5902.783102848236
0.504,1.3005296405021414,5897.95671812141
0.508,1.1064832038484358,5894.702226166492
0.512,0.8098222743893615,5897.130471374987
0.516,0.4834568425152091,5899.001197376418
0.52,0.19378861005778192,5906.462856734137
0.524,-0.017137523222339603,5898.791577490917
0.528,-0.13818733046017673,5909.990830394572
0.532,-0.1844586871550516,5893.727439860351
0.536,-0.18547327375857492,5892.011679570032
0.54,-0.17189926983448306,5901.0236447102525
0.544,-0.16538684044105398,5904.19123420739
0.548,-0.1735092185466417,5898.021888076938
0.552,-0.18981390732906628,5902.2433080917
0.556,-0.19842627702965998,5904.6664650782495
0.56,-0.1821801400813858,5904.131785794397
0.5640000000000001,-0.13190707740342145,5893.796519674457
0.5680000000000001,-0.05323699195380941,5897.49829494166
0.5720000000000001,0.032498168401506586,5897.393940753384
0.5760000000000001,0.09449711287006748,5895.261400754261
0.58,0.1039338296630655,5896.727788320753
0.584,0.04606817344228846,5894.215266718742
0.588,-0.07231710666201668,5894.401252327768
0.592,-0.22381356330139301,5898.342801231865
0.596,-0.3697137425912576,5900.467359490212
0.6,-0.474167241542485,5902.043275933545
0.604,-0.5172810755248668,5899.372152590024
0.608,-0.5012858509826414,5897.962511179912
0.612,-0.4468420820696004,5902.325368777127
0.616,-0.3816752414222694,5895.658227314207
0.62,-0.3278573430132974,5902.676844085185
0.624,-0.29411101464024997,5902.950740221143
0.628,-0.27565749094682646,5901.141349237603
0.632,-0.25965842752531254,5904.6203447374655
0.636,-0.23233492431246502,5897.1729140955385
0.64,-0.18463201900508705,5890.682157313096
0.644,-0.11519504752528914,5898.460914213492
0.648,-0.03103646784653443,5906.824150585243
0.652,0.05343330127565498,5902.527486885783
0.656,0.11944241943108339,5898.909981937186
0.66,0.1498720350915897,5900.852453572054
0.664,0.13717810544964512,5902.10898810762
0.668,0.08935711738166013,5894.170426271265
0.672,0.029897939029315545,5895.384887749721
0.676,-0.009296617803624454,5896.243177920857
0.68,0.000602933851160144,5894.08355747664
0.684,0.07395921870222956,5900.861634975011
0.6880000000000001,0.2036763713061704,5894.744998060261
0.6920000000000001,0.3610940357294143,5902.8557967354245
0.6960000000000001,0.5026148328824165,5896.920011803231
0.7000000000000001,0.5809910770158259,5893.763585153182
0.704,0.5585912875127176,5900.036161810355
0.708,0.4193993777750966,5901.823084894484
0.712,0.17542608271730142,5906.14640722571
0.716,-0.13627082384331546,5897.365599158645
0.72,-0.4658385012259637,5895.280811194409
0.724,-0.7666935145189635,5898.697156969655
0.728,-1.0075748327090428,5899.882550030467
0.732,-1.1756091037172614,5898.413454249522
0.736,-1.2712506879608327,5899.210656004625
0.74,-1.3002691713455685,5893.584855629465
0.744,-1.2680216791114047,5894.610763908753
0.748,-1.1781074324488339,5897.312225725237
0.752,-1.0343131432641606,5905.744517142494
0.756,-0.8435826368074935,5911.6518371854445
0.76,-0.6180966152995474,5899.13202589669
0.764,-0.3751732766750342,5893.554014231604
0.768,-0.13461288634785767,5901.55514950978
0.772,0.08542827144451534,5898.379450913497
0.776,0.2719083543917039,5900.247240364502
0.78,0.4179088245282509,5903.9203265968845
0.784,0.5207015178607802,5902.322859643486
0.788,0.5780028842189918,5900.604610698495
0.792,0.5848969455602608,5899.519347316973
0.796,0.5339620638409939,5904.82020867686
0.8,0.41908776797260866,5896.686706005383
0.804,0.24074830485915572,5900.37264547988
0.808,0.009836734446923826,5894.160218941821
0.812,-0.25111595905283146,5903.820306348863
0.8160000000000001,-0.5088931903890588,5896.801197406428
0.8200000000000001,-0.7224639503313709,5899.877885468465
0.8240000000000001,-0.8486221814891791,5902.00086252317
0.8280000000000001,-0.8512708381494895,5897.141040559269
0.8320000000000001,-0.7131936873316094,5898.307440603913
0.836,-0.446234893221943,5898.942206969793
0.84,-0.09462828055543808,5894.764565697844
0.844,0.27168491340035905,5892.772040748195
0.848,0.5727090619055726,5898.932238123802
0.852,0.7382392662992796,5902.398935652544
0.856,0.7256713002658237,5892.469434705256
0.86,0.5305789609907517,5898.126755264869
0.864,0.18720631920424097,5910.725152083995
0.868,-0.24144833069218186,5898.726025410623
0.872,-0.6814446095704153,5911.421361788309
0.876,-1.0678423398546466,5900.490147340826
0.88,-1.3591544971534,5895.548194747856
0.884,-1.5407241921252623,5895.02792209349
0.888,-1.6172665066247467,5899.327813292883
0.892,-1.6007771867486482,5893.759731843179
0.896,-1.5017343918331805,5904.636809015188
0.9,-1.3279903521797543,5891.160777833661
0.904,-1.08994401430656,5899.958884286751
0.908,-0.806389271737743,5899.893058658648
0.912,-0.5051963099486061,5899.381729769613
0.916,-0.2168509513294139,5900.615589062237
0.92,0.03576858682529613,5903.20800268667
0.924,0.24527343330606852,5904.540973222252
0.928,0.420855259790146,5895.019062756779
0.932,0.5819784500234458,5894.275489628906
0.936,0.747239048067452,5904.771004804449
0.94,0.9228393448188242,5892.150429678703
0.944,1.095840479301241,5898.539860274525
0.948,1.2360284844897083,5897.296544749774
0.952,1.3066273733697868,5890.324884431152
0.956,1.2800067765657994,5900.493607446552
0.96,1.1519975395987492,5891.184061678273
0.964,0.9481846381020603,5907.923264714007
0.968,0.7179184718953691,5899.36165846883
0.972,0.5169374563555367,5892.463959733716
0.976,0.3857512896560115,5896.441540575386
0.98,0.33438808022054806,5895.232353076498
0.984,0.341436640261191,5904.688962633525
0.988,0.36735753230514967,5903.227927820441
0.992,0.37406921179745484,5902.107889533687
0.996,0.34033636575416765,5905.415847022283
1.0,0.26647975816807257,5892.728483025815
1.004,0.16860840706613114,5900.898906640815
1.008,0.06733112525545257,5902.702999092092
1.012,-0.02314714730837886,5893.27048935404
1.016,-0.10133736218946537,5899.191422866215
1.02,-0.17834348541149833,5900.209869013684
1.024,-0.27163859946352586,5890.278831530127
1.028,-0.39505411944033136,5899.992620851515
1.032,-0.548824541138258,5894.826026172011
1.036,-0.714122096487056,5894.646632102224
1.04,-0.8556757937274306,5894.804882353639
1.044,-0.9333085759427756,5893.3182956919645
1.048,-0.9189554186415922,5902.144435028137
1.052,-0.8119903300060755,5906.186006728302
1.056,-0.6450931601110266,5899.784851426028
1.06,-0.47652107414056927,5900.237863986304
1.064,-0.3709276355437164,5903.62972834814
1.068,-0.37639674815379326,5903.604249372447
1.072,-0.5072677986393489,5902.870731674392
1.076,-0.739861050343561,5895.959953367523
1.08,-1.0224964718148826,5906.8161706424535
1.084,-1.294778097963974,5895.508255212947
1.088,-1.50747475097307,5893.371139647096
1.092,-1.6355569853763845,5896.415530025406
1.096,-1.6813831169864268,5901.112209665572
1.1,-1.669166908940912,5898.372218897107
1.104,-1.6340967796808394,5895.984312107136
1.108,-1.610150002595933,5893.52938089934
1.112,-1.6202664332807153,5906.854073912959
1.116,-1.6715438347929061,5899.771744401411
1.12,-1.7565832394641552,5897.912737348839
1.124,-1.8596444040854276,5901.590991639062
1.128,-1.9636332454056509,5894.602373798328
1.132,-2.0535436077803593,5896.316366784817
1.136,-2.1148947102383815,5898.694149976328
1.14,-2.129756479701366,5898.315879332725
1.144,-2.0749328926474124,5897.817483817113
1.148,-1.9253993041946784,5905.901227164689
1.152,-1.6621876984687358,5910.776053685889
1.156,-1.280527860884219,5902.562782085932
1.16,-0.7941730883034579,5887.381757995943
1.164,-0.23509543195565222,5904.070420100124
1.168,0.3496638281667197,5895.149140548585
1.172,0.9026083855190896,5889.25576882819
1.176,1.3621720346769077,5901.92945440942
1.18,1.671509738083924,5890.65241502959
1.184,1.7889882237450803,5905.554690198312
1.188,1.6980347732672456,5893.533543955985
1.192,1.4132502152380273,5888.744322863918
1.196,0.9801944497234312,5885.753510316218
1.2,0.46780777211933244,5909.701040717679
1.204,-0.045494897883843505,5901.329879983513
1.208,-0.48901304937190176,5903.010868027869
1.212,-0.8155985899321297,5906.687560715357
1.216,-1.0108507337592103,5892.59844985911
1.22,-1.0919424389140469,5903.974660090324
1.224,-1.0967006289889174,5901.334214274187
1.228,-1.0682483385379733,5897.801573268024
1.232,-1.0418973786081263,5898.141164783543
1.236,-1.0384084206764113,5898.313519348266
1.24,-1.063784847568027,5897.938929492232
1.244,-1.112985360486197,5902.426446985767
1.248,-1.174215927999804,5902.610868490102
1.252,-1.2315793702993962,5900.9038502029725
1.256,-1.2659806278728627,5901.937065167177
1.26,-1.255892056413021,5902.492810468917
1.264,-1.1797002125933558,5896.730721503852
1.268,-1.0202547889369746,5902.4024000535765
1.272,-0.7710755166202778,5905.147382828094
1.276,-0.44238525787830996,5902.821706829964
1.28,-0.06365541686656026,5902.987715331419
1.284,0.32041924799185306,5900.183584351554
1.288,0.6603765898771479,5903.70222139378
1.292,0.914749957672262,5896.781104488771
1.296,1.0596668763578436,5892.554098589703
1.3,1.0920750044621346,5912.333706478471
1.304,1.0273236072108625,5900.656312492193
1.308,0.8943295264680042,5905.1847811783255
1.312,0.7309365113773504,5902.537631411487
1.316,0.5796080938516025,5907.383833094668
1.32,0.48188141983445193,5898.062240442426
1.324,0.47049216724323917,5903.569747852881
1.328,0.5605549123035747,5891.51193841396
1.332,0.7439033846970347,5900.468795204967
1.336,0.9908506262550739,5906.655719899929
1.34,1.2600252585312164,5902.3602026511135
1.344,1.5119994283877602,5900.727585454662
1.348,1.7199842479353822,5891.740004089566
1.352,1.8726265266129543,5901.696984302495
1.356,1.9685452324389368,5893.22466111851
1.36,2.006746813227252,5906.432783678636
1.364,1.97894168168403,5891.807416777479
1.368,1.8684245624799731,5899.813131253254
1.372,1.6566493200106427,5900.533785170503
1.376,1.3344816262965977,5895.057002119598
1.38,0.9121260226108395,5890.15562218447
1.384,0.4218936871780092,5910.514678172651
1.388,-0.08817582489579871,5895.034337465389
1.392,-0.5667149999754535,5892.3215902350985
1.396,-0.971431431964857,5888.166204123671
1.4,-1.2762446239683232,5899.676408803883
1.404,-1.4713128450635768,5894.532992434256
1.408,-1.558220583586047,5902.592053549831
1.412,-1.5449489759609065,5890.2652705675855
1.416,-1.4440638809731277,5892.893139801198
1.42,-1.2738630478843718,5897.023194308193
1.424,-1.0593738746413632,5908.432685180575
1.428,-0.8302762147003888,5893.5190175677735
1.432,-0.6152752985348564,5896.546395734153
1.436,-0.4350834864639362,5915.906186937987
1.44,-0.29746462425248166,5893.807329606022
1.444,-0.1971040749273861,5890.294394227848
1.448,-0.12068096455960597,5904.479532040508
1.452,-0.05475909270201806,5895.481130054943
1.456,0.007418176998803687,5901.347299979777
1.46,0.06352939411223922,5890.622103609941
1.464,0.10493009306864125,5898.479606279311
1.468,0.12242910244435648,5895.956134614976
1.472,0.11189070225935727,5893.556799618638
1.476,0.07772095756664515,5888.08740531439
1.48,0.03390429201915864,5898.604662353504
1.484,0.002580331862286859,5904.420026850788
1.488,0.010011751107443624,5890.857990417403
1.492,0.08035852307976352,5891.4402917370935
1.496,0.2284076347383535,5896.185382389428
1.5,0.45280177276102385,5901.987903254751
1.504,0.7318752257510169,5894.3526709503485
1.508,1.0244087749472353,5914.295705232216
1.512,1.2761533277560513,5893.430778192646
1.516,1.4306827591255822,5906.358651473705
1.52,1.4421523025874001,5904.672070289473
1.524,1.2877206658208105,5906.829191729064
1.528,0.9769215569162933,5902.586274610103
1.532,0.5542549801787068,5901.178830362168
1.536,0.09192260547303839,5896.640683024269
1.54,-0.32696398695493806,5905.610678463403
1.544,-0.629855064110126,5891.9409079403695
1.548,-0.7733251239739907,5902.974531428341
1.552,-0.7521139071516488,5895.0560169189785
1.556,-0.596239902584495,5892.587862874019
1.56,-0.35843208709214514,5897.222180737017
1.564,-0.09674423321582963,5893.524627475179
1.568,0.14215649500293825,5900.7058896761455
1.572,0.33390144091054974,5898.400408829796
1.576,0.47812661021016595,5894.548217236916
1.58,0.5911681798422632,5897.870318407982
1.584,0.693960487527403,5900.400350512891
1.588,0.8011045002244517,5896.448674475682
1.592,0.9153312479603501,5895.997675386238
1.596,1.0278280132246873,5887.916967789136
1.6,1.1219668954953377,5892.721968078999
1.604,1.1776460455775937,5903.903595443228
1.608,1.1752071818764949,5886.168611522855
1.612,1.0996371144357326,5897.888043731575
1.616,0.9457808662430399,5893.567435449495
1.62,0.723707146220889,5904.622291415348
1.624,0.4616999984741744,5902.424201622508
1.628,0.20414061760157218,5893.0828353030165
1.632,0.0032818222767973786,5899.347492579094
1.636,-0.09332557153246943,5895.482405122075
1.64,-0.05584575451790584,5902.125063681818
1.644,0.11873202198555674,5904.436284067692
1.648,0.40426794327686827,5896.28003543392
1.652,0.7501585660931243,5893.988904113287
1.656,1.0908385241856073,5895.506733145554
1.66,1.3570101507639627,5899.83345706816
1.664,1.486406557509367,5897.213599900169
1.668,1.4335186459964204,5907.573677038022
1.672,1.1783563233774472,5907.360922260579
1.676,0.7331629927649004,5899.392822526102
1.68,0.1443160472091659,5898.578554254004
1.684,-0.51332817858549,5899.760042026103
1.688,-1.1496646603927378,5894.766886981186
1.692,-1.6763039549791983,5893.605279176368
1.696,-2.0216354433510495,5888.18329016571
1.7,-2.1404036710639414,5887.2010339064045
1.704,-2.018142619661919,5893.884134189564
1.708,-1.6728341972662129,5895.525345293409
1.712,-1.1548578495098853,5900.3170939454285
1.716,-0.5438441636564262,5892.558700309118
1.72,0.059791969834314077,5900.219774534296
1.724,0.5495845776127858,5907.620603283563
1.728,0.8326891157059281,5903.706658782094
1.732,0.8505826526812209,5890.550267645788
1.736,0.5946062597447213,5900.50313611586
1.74,0.11010046702416387,5895.172858449431
1.744,-0.5134410412122593,5898.5038442848645
1.748,-1.162947638025714,5895.723226875803
1.752,-1.7257410810434928,5896.020489819443
1.756,-2.1097853343710247,5896.185374665488
1.76,-2.256691108803464,5894.895682382334
1.764,-2.147759030981028,5901.9603988009785
1.768,-1.8050295838649064,5900.778609781439
1.772,-1.2886285433646552,5903.737779509327
1.776,-0.6897962673719158,5881.999396350574
1.78,-0.11770298231832471,5893.832774063608
1.784,0.32068701078005096,5898.337931734653
1.788,0.5446524097472142,5891.794922610619
1.792,0.5205409260510268,5899.442031224862
1.796,0.27126034361343077,5891.378408171643
1.8,-0.13008970045199358,5901.630192582421
1.804,-0.5805946805724481,5894.542826958001
1.808,-0.9748327449763651,5899.261359412055
1.812,-1.230400000352983,5894.310295789483
1.816,-1.3043300246967537,5900.430034318943
1.82,-1.1962326238747742,5897.205688274543
