时间(s),电压(V),幅值(高频80K)
0.0,1.4802260996271634,5896.496186234544
0.004,0.501008905370162,5899.406639087966
0.008,-0.3085754812608819,5900.475224562528
0.012,-0.8149412259361684,5903.303882502086
0.016,-0.966109214858903,5894.597463673267
0.02,-0.7998983456538317,5912.937797748113
0.024,-0.4233678265346274,5906.781180576237
0.028,0.0267189252739341,5907.795232912598
0.032,0.42505501873510115,5898.007132983175
0.036,0.685050781824579,5903.6659991956185
0.04,0.766120062640401,5906.280636817843
0.044,0.6651344399506148,5901.833166118305
0.048,0.40147946060430484,5899.808983422103
0.052,0.004526187757828319,5907.565282102192
0.056,-0.4918294506207901,5903.130622735627
0.06,-1.0476543959291695,5900.917550324228
0.064,-1.6121620896456799,5903.560428295795
0.068,-2.121154435774094,5898.499008521334
0.072,-2.5018153265259206,5898.504328988076
0.076,-2.686235539479701,5900.601174904037
0.08,-2.6294116568409716,5894.495680324197
0.084,-2.323883509750609,5897.169454976096
0.088,-1.8045025125538026,5897.47645494935
0.092,-1.1415664808722548,5893.244997536355
0.096,-0.4249593595904798,5894.890070476252
0.1,0.2557689271812802,5896.2375433360485
0.104,0.8296178959878766,5903.076919709039
0.108,1.2552853663231054,5892.1973998018175
0.112,1.52229339119765,5896.975094978712
0.116,1.6432170357744673,5894.091165171737
0.12,1.6418217906946364,5899.376128465832
0.124,1.5430226350209202,5900.372060669826
0.128,1.368534076062351,5903.0500050123055
0.132,1.1382762617360047,5901.424910661508
0.136,0.8743307735229139,5890.490114595615
0.14,0.6032365982545246,5893.241981327019
0.144,0.3539610608150377,5895.473703452382
0.148,0.15162116784915258,5904.260256971107
0.152,0.009314409314407301,5896.601912227004
0.156,-0.07821570425614074,5905.107832964512
0.16,-0.1351328210537029,5892.225450199061
0.164,-0.19725189126857468,5905.046229088009
0.168,-0.2988338177725615,5901.730146269131
0.172,-0.4585346044946289,5892.876724377562
0.176,-0.66973510430304,5896.230440240812
0.18,-0.8979935391610018,5903.496994224072
0.184,-1.0858961389298938,5895.104588821167
0.188,-1.1645990342228085,5900.547089688728
0.192,-1.0707616347045206,5905.230972179804
0.196,-0.7656996743413413,5905.0155299757935
0.2,-0.25090794047717213,5898.10928864877
0.204,0.4266376625427586,5905.222361473226
0.208,1.1826199891693756,5900.885510535611
0.212,1.9141293803536579,5892.369819592168
0.216,2.5218767212583737,5895.488148946946
0.22,2.9290166131361706,5892.655896796744
0.224,3.0929603685573817,5910.640150721638
0.228,3.0094516256227513,5904.049757098101
0.232,2.7097178377628914,5904.824692720715
0.236,2.2523956276511705,5899.706503396257
0.24,1.7123387749261607,5904.122993697606
0.244,1.1681145934390569,5906.556297700626
0.248,0.689490947660516,5898.42423630183
0.252,0.3263772967634292,5905.328761192555
0.256,0.10125169000945353,5903.26775116597
0.26,0.007025007134568582,5894.818886507891
0.264,0.011362458780991467,5900.764690388834
0.268,0.06711252647262078,5896.428898369622
0.272,0.12659266518215964,5903.173866998254
0.276,0.15529296152047992,5896.780725618785
0.28,0.13982293943364713,5908.879020339242
0.284,0.08738917057568514,5898.570509420712
0.288,0.018589236026469738,5895.419456329207
0.292,-0.0419290595958318,5899.481978379917
0.296,-0.07330664676202854,5898.69935320247
0.3,-0.06370681965981086,5906.70413330612
0.304,-0.013367488124361688,5895.566721208759
0.308,0.0640493099327253,5900.154596455226
0.312,0.14233058915787566,5895.956249459164
0.316,0.18755253453038298,5894.555028910839
0.32,0.16812044345042917,5901.059470744731
0.324,0.06794775475862551,5893.030276200461
0.328,-0.10308503865778924,5900.734798039062
0.332,-0.3076984285676797,5899.917604161008
0.336,-0.4909111715102863,5898.316473359983
0.34,-0.5971266972102391,5891.825723061967
0.344,-0.5878609107976718,5892.338655069991
0.348,-0.454532624556566,5903.009630756573
0.352,-0.22359585240082375,5899.465604602216
0.356,0.04692152496297417,5901.733138698177
0.36,0.2798035353134282,5893.135510687409
0.364,0.3987880189334309,5901.40755650185
0.368,0.3517505769680962,5895.634507932093
0.372,0.12878168308246674,5900.105780252747
0.376,-0.2326842978535058,5900.535067565377
0.38,-0.6585049412194297,5901.378645324017
0.384,-1.0602579291838614,5894.888430301372
0.388,-1.3610847724791864,5898.1165832112665
0.392,-1.5163545171845898,5905.904082440782
0.396,-1.5231698750471028,5902.039720006043
0.4,-1.4161855339836484,5903.302741289936
0.404,-1.251076523214849,5900.022643637764
0.408,-1.0813962291008412,5899.133170391843
0.412,-0.9378119815124696,5894.291052755364
0.416,-0.8180026774449541,5896.28196238374
0.42,-0.6903915650745643,5894.434912609002
0.424,-0.5086661614207809,5896.728664521137
0.428,-0.23065605414026127,5891.575442666957
0.432,0.16466790654755256,5908.124100216525
0.436,0.6666325673331335,5896.027185001734
0.44,1.2314606787207252,5901.834836215383
0.444,1.7902921139085255,5897.324417275578
0.448,2.2640350903016944,5902.602240943481
0.452,2.5807682563263303,5891.445711503189
0.456,2.6915631018136827,5903.070521752674
0.46,2.581578558073679,5900.074299459424
0.464,2.2740571163759355,5902.557154210307
0.468,1.8255189923224564,5901.631838286734
0.472,1.3121669822828983,5902.428002361861
0.476,0.8110194328739629,5892.6600424720245
0.48,0.3826329289142476,5899.487973786238
0.484,0.061901899131196814,5901.078707318156
0.488,-0.14125025176926684,5901.326055037527
0.492,-0.2348084774414574,5903.290652710643
0.496,-0.23689339123782702,5896.549255146768
0.5,-0.1711126655744605,5895.736029280231
0.504,-0.0650715877774229,5904.244850561733
0.508,0.050637506121269826,5888.754771076962
0.512,0.14529133309658654,5903.969876282296
0.516,0.19262997135999843,5908.518542309728
0.52,0.1754867792859985,5897.824976448937
0.524,0.08933308733624647,5901.425387234494
0.528,-0.055098621440107624,5897.79895719709
0.532,-0.23011843198183213,5899.253320183082
0.536,-0.39215353977307454,5895.465067179412
0.54,-0.48861186804912693,5902.918856672902
0.544,-0.4715669180435834,5901.295045770814
0.548,-0.31467417039207574,5905.984830481643
0.552,-0.026025902392674556,5903.143025699906
0.556,0.3499020721976923,5892.164616349654
0.56,0.743367210438667,5896.84182106568
0.5640000000000001,1.0795329416482193,5903.535850853066
0.5680000000000001,1.2996235985628337,5901.610274484502
0.5720000000000001,1.3752704407854168,5899.251284884272
0.5760000000000001,1.3121618357323241,5899.128852964734
0.58,1.1434987702591002,5896.354698799565
0.584,0.916481915189317,5890.524084958143
0.588,0.6766969171223179,5900.112527278485
0.592,0.45635402300084427,5910.986252147841
0.596,0.2711693732512783,5902.693635566258
0.6,0.12608987174005765,5898.743809076325
0.604,0.024735224995599818,5899.644122808681
0.608,-0.024271601259899224,5894.618629586114
0.612,-0.007924238681270747,5904.791269044026
0.616,0.08438501700081738,5900.774931416035
0.62,0.2517589706793459,5898.825108222768
0.624,0.47495920709827094,5897.68752925007
0.628,0.7154192186972073,5893.779942552483
0.632,0.9212792564021687,5903.843967578422
0.636,1.038748243159745,5903.373071541434
0.64,1.0254152164541712,5899.660061470295
0.644,0.8621637167333985,5895.700829670614
0.648,0.5607864405414129,5902.335514199836
0.652,0.16448237055245427,5899.901768207085
0.656,-0.26045096808447477,5900.490247767016
0.66,-0.6401052687521671,5903.421665005043
0.664,-0.9104009192386903,5897.139125795113
0.668,-1.0304783106041813,5889.93240328899
0.672,-0.9886207686119767,5905.194151006644
0.676,-0.8008289654053141,5894.618638055022
0.68,-0.504322624903762,5893.7813972632575
0.684,-0.14852347999621304,5891.919924823909
0.6880000000000001,0.214642503666807,5899.920007758661
0.6920000000000001,0.5397153089891386,5901.609312794928
0.6960000000000001,0.7942096197586086,5894.037022567315
0.7000000000000001,0.9610085455733969,5897.737757911653
0.704,1.036642096925061,5906.212331893331
0.708,1.0275694495836687,5893.771108575965
0.712,0.9470131196109641,5893.256499527482
0.716,0.8133994398614958,5898.000647862922
0.72,0.6496979793915346,5893.452559661721
0.724,0.4822112251020812,5903.380727264535
0.728,0.33763655637748335,5900.494915755337
0.732,0.23805339637264697,5897.397753491872
0.736,0.19486458363103795,5903.895579306847
0.74,0.20446750897321014,5895.524072797576
0.744,0.24906674500547415,5902.681234941014
0.748,0.30393024783832423,5904.127976401828
0.752,0.3484341789074523,5899.8378125658855
0.756,0.37552027843009406,5896.585686585629
0.76,0.39454921370451645,5892.864214264132
0.764,0.4254065779082844,5887.546968428682
0.768,0.48598189383537993,5906.9163709113
0.772,0.5792969453830035,5905.125106666803
0.776,0.6876788053587484,5895.927695999789
0.78,0.7776111440597709,5901.314805887794
0.784,0.8128029809770146,5893.744532450469
0.788,0.7691583318378259,5894.486365697938
0.792,0.6454789770072255,5904.6670584957465
0.796,0.4663618672468001,5898.62645046149
0.8,0.27665411745423873,5906.0282513580005
0.804,0.12896089315543544,5894.651931428066
0.808,0.0674980915819078,5898.176991508113
0.812,0.11339867821079698,5902.75731779207
0.8160000000000001,0.25708139717593026,5906.053455597547
0.8200000000000001,0.4609587969758871,5894.34219762957
0.8240000000000001,0.6715515344357309,5902.652259232964
0.8280000000000001,0.8366024112163499,5901.526805833218
0.8320000000000001,0.9213854668906424,5899.512500140173
0.836,0.9187918644809453,5895.92697735618
0.84,0.8498174985488259,5899.311345644279
0.844,0.7546916711904164,5904.751280770427
0.848,0.6785167457586405,5896.570557744156
0.852,0.6567286369915837,5906.019333521655
0.856,0.7044540657685845,5891.8141030532925
0.86,0.8116653438677528,5903.01581360594
0.864,0.9449818567925526,5903.111278846011
0.868,1.0568876462993348,5901.345241522098
0.872,1.1015521605313574,5909.647877800119
0.876,1.0524871202822192,5901.064598112789
0.88,0.9142492384021268,5894.248409848077
0.884,0.7219898432051244,5899.306509810016
0.888,0.5283126748542217,5903.380247479832
0.892,0.38293457493914734,5900.412018963756
0.896,0.3138331880014911,5905.281693314963
0.9,0.31760037592006146,5892.930806645073
0.904,0.36214903535322,5904.1547724660695
0.908,0.3991688709373081,5902.693670500201
0.912,0.38021611062670657,5900.688793321959
0.916,0.2708488642009979,5901.67631032134
0.92,0.06006018877538794,5898.969933471397
0.924,-0.2357174261623669,5903.03523612979
0.928,-0.5744000584093985,5902.263906158914
0.932,-0.89606891135014,5900.253839153221
0.936,-1.1361410068651936,5895.009801565226
0.94,-1.2415504210728754,5902.823850315783
0.944,-1.185667582795755,5898.374258241428
0.948,-0.9768680589696819,5899.507935763945
0.952,-0.657320478749338,5897.934069060859
0.956,-0.2921071245957233,5892.572359154712
0.96,0.04780658543295816,5900.826407453085
0.964,0.30342540892153586,5897.197223534341
0.968,0.4411256779680814,5903.1341938824935
0.972,0.45798246930524755,5895.279580815215
0.976,0.37827498951681493,5903.943842478346
0.98,0.24357444920695792,5897.1551107741125
0.984,0.10061128896980505,5895.492432150714
0.988,-0.009231237794110997,5904.241847084498
0.992,-0.056377759127303674,5903.748930002762
0.996,-0.024406775305811333,5890.137893379272
1.0,0.09302744538457966,5899.719966258525
1.004,0.2964540666882242,5893.351444154227
1.008,0.5815429169408008,5890.848392894083
1.012,0.9347808088369333,5904.896568439681
1.016,1.3268120443600866,5894.394700357729
1.02,1.7095037755478815,5892.637796025388
1.024,2.0215005003160362,5900.690172630197
1.028,2.2022564298376723,5903.489486339495
1.032,2.2093636315612795,5890.242890067048
1.036,2.031640767200507,5901.397930542068
1.04,1.6922922324893142,5906.907221288125
1.044,1.2410707962220644,5894.697634271511
1.048,0.7389685876449958,5901.352878394268
1.052,0.24169358936356491,5902.342729558554
1.056,-0.21147028108417154,5896.745427982565
1.06,-0.599380960856013,5898.8617722028175
1.064,-0.9123995323797071,5911.505443361408
1.068,-1.1430313998318091,5896.617467102877
1.072,-1.27999866337708,5898.826881927132
1.076,-1.3085206496880566,5899.184988376523
1.08,-1.2155804663809164,5898.141462135142
1.084,-0.9969279132867737,5891.024841963645
1.088,-0.6627826440752516,5899.23767398182
1.092,-0.24042369165775446,5891.853697529426
1.096,0.2270914791292611,5898.752488170589
1.1,0.6861607107745111,5915.650710710719
1.104,1.0813174991850483,5903.274160700135
1.108,1.3660543524099769,5896.30449578461
1.112,1.5132608874325535,5900.107848462215
1.116,1.5215350479643173,5892.350881435674
1.12,1.4139046998695926,5904.444070011487
1.124,1.2285278903047783,5894.07978463164
1.128,1.0055305322686818,5895.552164693518
1.132,0.776581753499128,5896.8953809981
1.136,0.5615897506022064,5900.647815185817
1.14,0.3718559937245561,5908.160621464228
1.144,0.21528030034941256,5889.007175726476
1.148,0.09902454803017714,5898.749456463244
1.152,0.027743835866809275,5902.997447424302
1.156,-0.0010014959827050142,5894.137936222889
1.16,-0.00032956000992233835,5906.304602769119
1.164,0.006897170043159288,5898.07301867555
1.168,-0.005500241252252209,5896.271303391096
1.172,-0.05729791131089387,5895.961054920652
1.176,-0.1531372655317181,5894.224369609899
1.18,-0.279061354646716,5903.747450789544
1.184,-0.40643385493606565,5905.499235294706
1.188,-0.5018148010105897,5904.30562583416
1.192,-0.5382967171941171,5884.127517894051
1.196,-0.5032851861910557,5899.919798489528
1.2,-0.40018029799562155,5896.454527208694
1.204,-0.2450252358240386,5902.376273465869
1.208,-0.061451897005794176,5892.9002469671295
1.212,0.1231168897900803,5891.40004633236
1.216,0.2795745937647473,5901.098835672912
1.22,0.3795909515192592,5898.355921153596
1.224,0.4004141950991721,5892.467664306267
1.228,0.33139331648942444,5892.278282665571
1.232,0.17897566693227254,5896.662870398828
1.236,-0.03356718357567839,5893.705271301786
1.24,-0.27336054363823553,5900.235097567416
1.244,-0.5096939636068044,5893.503207642806
1.248,-0.7241063298066818,5894.86131246388
1.252,-0.9124579686100646,5899.957766167878
1.256,-1.077379796604826,5896.795057956379
1.26,-1.2158229991859293,5905.546889606693
1.264,-1.3098348684602228,5889.016812907667
1.268,-1.327193849842815,5888.592168943314
1.272,-1.233240721877729,5908.614986565065
1.276,-1.0087611894503785,5900.277911243699
1.28,-0.6645780320872944,5896.28381010924
1.284,-0.24462264876960793,5896.272286171306
1.288,0.18456588831772874,5909.130913312087
1.292,0.5528749488053276,5891.950495188227
1.296,0.8057920531117306,5908.934352699333
1.3,0.9168775135418905,5902.636348184006
1.304,0.8905943089674577,5900.501559698488
1.308,0.7560780848849086,5897.955713201727
1.312,0.5551161541823787,5899.263833913956
1.316,0.32937439263953383,5891.608128109381
1.32,0.11152197497786494,5895.960008952985
1.324,-0.07788734905304612,5906.251419740088
1.328,-0.22911246270871072,5898.366591340981
1.332,-0.3403812328903081,5905.267772148244
1.336,-0.41589128866591785,5894.039362689176
1.34,-0.46533465845885247,5896.857851905053
1.344,-0.5039535284490886,5900.677206717942
1.348,-0.5514696687211865,5895.117198893669
1.352,-0.6287182389800413,5901.100216001994
1.356,-0.7519662545083605,5890.328503409805
1.36,-0.9261542829701708,5900.969650498587
1.364,-1.1391977228537433,5897.826223375546
1.368,-1.3597533817436238,5896.636014682861
1.372,-1.5405382953729547,5892.8653277942585
1.376,-1.6281655120219607,5900.109177184005
1.38,-1.5781112147173704,5903.394241365306
1.384,-1.3704651158416488,5893.105817854782
1.388,-1.020298083111182,5896.357944811554
1.392,-0.5773606356522852,5888.792892799417
1.396,-0.11380291248078549,5892.937949442447
1.4,0.29582904923920944,5896.942826142578
1.404,0.5942711531166756,5896.9414576323725
1.408,0.7534936132684144,5907.5063440671975
1.412,0.776035389797236,5896.37567768645
1.416,0.6879627608982478,5894.31274082539
1.42,0.5283152490201568,5894.222605320224
1.424,0.33914834052434933,5898.814148977075
1.428,0.15779413225724936,5900.251905399378
1.432,0.011169411538750127,5897.981259433516
1.436,-0.08793461303354809,5902.366712781639
1.44,-0.14155495862738063,5906.220440917071
1.444,-0.16323371731083886,5902.673114055838
1.448,-0.17148795649868467,5896.17985210309
1.452,-0.1827621095736603,5906.954971097227
1.456,-0.20658183228712673,5900.373743347031
1.46,-0.24422707939712068,5903.255662548185
1.464,-0.2907864242013038,5893.185601893519
1.468,-0.3394432069090467,5896.140477795801
1.472,-0.3863054565342098,5899.035280102258
1.476,-0.43389756463196355,5889.549096852272
1.48,-0.49130796752150013,5893.46142652357
1.484,-0.5697171236946058,5895.62602676267
1.488,-0.6747533716745602,5887.095694024474
1.492,-0.8002041020091624,5899.683173649339
1.496,-0.9274089344030243,5902.2439818124085
1.5,-1.0307203606824882,5903.366881800328
1.504,-1.0856576339755062,5893.139544459895
1.508,-1.0759453973970166,5893.286869252182
1.512,-0.997445066366705,5891.142252813471
1.516,-0.8586155364231697,5901.500915645266
1.52,-0.677962559299723,5902.821771697685
1.524,-0.47931084759352904,5894.486920443449
1.528,-0.2859355595561773,5900.180125736974
1.532,-0.11511885345333567,5902.915202522524
1.536,0.024710018489572057,5896.047080841234
1.54,0.13287827759400256,5888.489075634501
1.544,0.21235159058011158,5900.225233136964
1.548,0.2651791542339932,5891.690432976946
1.552,0.289654856011705,5906.127968722895
1.556,0.28002714779117455,5898.1441380385295
1.56,0.2287492359894181,5897.454536561426
1.564,0.13066581145847952,5902.595897387204
1.568,-0.012105646927888365,5902.032258921529
1.572,-0.18611164737148428,5904.291110468157
1.576,-0.3648313383418301,5906.050368418214
1.58,-0.5108985964308403,5904.936317417788
1.584,-0.5834217565683426,5902.168541463947
1.588,-0.5495563189672544,5898.892689207788
1.592,-0.39691851403103795,5899.059911785902
1.596,-0.14224478378402913,5893.120951504285
1.6,0.1677788702472918,5888.917867861041
1.604,0.4659039103646394,5878.406859713316
1.608,0.6828081002315097,5901.826190447376
1.612,0.7687843295647089,5902.487615843572
1.616,0.7101859516232477,5909.951547796412
1.62,0.5344131843451122,5889.080396982734
1.624,0.30237151433987264,5891.99424575338
1.628,0.09177020300166394,5895.601521723457
1.632,-0.023364326588421167,5900.244313543375
1.636,0.008494271642590171,5904.212509453432
1.64,0.20387475657872345,5894.455312009286
1.644,0.5413143805577525,5895.934117069133
1.648,0.9684559569695356,5895.081774809559
1.652,1.4164238972775909,5894.483730582583
1.656,1.8162952831146906,5896.460301864214
1.66,2.11277853443375,5893.8445617636535
1.664,2.2726265649956843,5902.883583681473
1.668,2.287851835039316,5902.993583399656
1.672,2.1751114000528102,5901.944532984109
1.676,1.972251844223899,5899.3305630424775
1.68,1.7313962603550956,5902.241904130342
1.684,1.5072642597869708,5894.179041443058
1.688,1.341785983504351,5910.404336439216
1.692,1.250043290349184,5893.672775481104
1.696,1.2139118991994122,5899.209087414925
1.7,1.186741830575472,5890.346483185662
1.704,1.1076126451123083,5896.322844598147
1.708,0.9203499819722478,5889.708669172387
1.712,0.5914398946341984,5896.958835625965
1.716,0.12169723565910359,5893.397505552093
1.72,-0.45137812803247834,5886.662219088451
1.724,-1.0606164032082266,5904.385353587032
1.728,-1.6227839302439395,5893.204331105214
1.732,-2.054837688017457,5900.225592530364
1.736,-2.2897189456173375,5888.821833599133
1.74,-2.2896831273425304,5892.499349613293
1.744,-2.0549428475221894,5901.283790603238
1.748,-1.624859237706483,5901.602811965456
1.752,-1.0702494519609882,5903.579983934602
1.756,-0.47852516861123107,5894.527478403742
1.76,0.06409508612323794,5897.1761189375375
1.764,0.4885895014765954,5895.776876877976
1.768,0.7534507621745404,5898.295035731956
1.772,0.8471344502675642,5893.643277730885
1.776,0.7836317983961032,5901.587252162092
1.78,0.5951443984136916,5890.123268187705
1.784,0.32558761783416534,5902.55705488922
1.788,0.025572257484811775,5898.632276074759
1.792,-0.25278981048631094,5906.215951403645
1.796,-0.4625802364309899,5895.182600688897
1.8,-0.569705695667831,5907.84453670169
1.804,-0.5590993820843936,5889.308473932605
1.808,-0.4366901926145789,5906.991430257753
1.812,-0.22592912865605452,5899.173844978759
1.816,0.03963724432132328,5892.79528931336
1.82,0.32430873382783365,5895.59261479237
