时间(s),电压(V),幅值(高频80K)
0.0,-0.5284774234728178,5899.594102070601
0.004,-0.42732667245215106,5895.2167660309415
0.008,-0.3101430706364038,5896.42803373907
0.012,-0.16489180440792622,5900.230378795159
0.016,0.011136536885456471,5905.926212599877
0.02,0.20856444317938982,5895.038637244819
0.024,0.40870148914718596,5902.569970198744
0.028,0.5918541207972828,5909.515063110805
0.032,0.746146765960096,5902.034812867355
0.036,0.8703042394023894,5899.054293125561
0.04,0.9681961624879659,5896.952667618543
0.044,1.03962895656548,5907.506350738178
0.048,1.0748941996454224,5903.502058518951
0.052,1.0574538087832248,5910.121106004776
0.056,0.9728778316777404,5900.644929075
0.06,0.8179229448361126,5906.841861581979
0.064,0.6042622948592961,5902.819793522931
0.068,0.3555617468178033,5908.91859592425
0.072,0.1008242522880578,5895.972622798875
0.076,-0.13136043651434076,5899.961761558905
0.08,-0.3143116684477105,5908.256026155529
0.084,-0.4207575139236551,5900.598048324869
0.088,-0.42063614546443523,5903.47623834845
0.092,-0.28473869310791683,5901.997623012698
0.096,0.003768330483717502,5904.750864441972
0.1,0.43401212014588164,5901.911915202719
0.104,0.9565574749836958,5901.602453954564
0.108,1.4847409612901494,5894.6676820649245
0.112,1.91083087996857,5894.031579918282
0.116,2.1328005930985996,5896.744166874701
0.12,2.082541734468945,5897.352912082521
0.124,1.7455667508447306,5909.765815211778
0.128,1.1654807651313661,5906.391557654311
0.132,0.4319448183431878,5906.316104433221
0.136,-0.34358606498792493,5897.604972231711
0.14,-1.0560129253891908,5903.479759978575
0.144,-1.6291116704953568,5904.234294923327
0.148,-2.0256800825687726,5903.943271389856
0.152,-2.2443890665691013,5909.577291197087
0.156,-2.30772934856014,5895.176461916573
0.16,-2.2473873976912895,5900.145271089335
0.164,-2.0924461364140567,5894.969747608585
0.168,-1.8637473069155852,5898.720817992119
0.172,-1.5750106503992798,5896.235859383816
0.176,-1.238194327159383,5902.177233354522
0.18,-0.8687990168967139,5894.976435883765
0.184,-0.4878721248284059,5895.242546910611
0.188,-0.12057613008321541,5912.457662242494
0.192,0.2064040519043963,5891.905742021203
0.196,0.46676493348385295,5899.961525994096
0.2,0.6362970723220632,5897.957500126719
0.204,0.6961113736490782,5899.634945369891
0.208,0.6376621853661093,5897.049553634876
0.212,0.4675238965994616,5898.825650218331
0.216,0.2091589585782811,5901.056956974725
0.22,-0.09966340281789783,5893.192115566355
0.224,-0.41293128495093884,5900.976738701025
0.228,-0.6836608013147963,5892.475705870404
0.232,-0.8702355586655691,5900.709609535685
0.236,-0.9409646217958323,5900.879546509973
0.24,-0.8772814595784654,5900.319459266674
0.244,-0.6764629802187294,5903.268964722715
0.248,-0.3544463345410195,5897.76932364667
0.252,0.05163660177737154,5891.979602401011
0.256,0.48321398793216813,5904.133476126376
0.26,0.8654914245808588,5897.30931682926
0.264,1.1200130068653031,5915.778805517464
0.268,1.1826213298067283,5897.274508921282
0.272,1.0213089510565556,5903.222566987638
0.276,0.6476464876463089,5911.548161600939
0.28,0.11719388868624764,5903.905880377928
0.284,-0.4825425839224897,5900.772849245112
0.288,-1.053635682496934,5908.952519803794
0.292,-1.5112882910230458,5896.083153742197
0.296,-1.8007682959938682,5897.999364401803
0.3,-1.9030896099229468,5904.406991606385
0.304,-1.830949605697261,5896.339220397478
0.308,-1.6197768242554038,5899.189184324417
0.312,-1.3178223029741793,5900.523248904578
0.316,-0.976571880705855,5912.929175475749
0.32,-0.6415137127780218,5906.171075830061
0.324,-0.34439052780348745,5895.155230296539
0.328,-0.09952562483560759,5901.2682353019445
0.332,0.09401424835543783,5896.844322433261
0.336,0.24569741736750964,5891.479208892819
0.34,0.36597667453585914,5897.406484302823
0.344,0.4614304560426273,5896.952162657267
0.348,0.5338796019621275,5907.020153159927
0.352,0.5824785309450712,5903.329732939109
0.356,0.6066906227550166,5903.995322375039
0.36,0.6080376187943316,5898.90084222176
0.364,0.5892376652916612,5905.627726743172
0.368,0.5510970751095251,5903.636342508311
0.372,0.4897382064356293,5899.735359235679
0.376,0.3973523970002742,5905.64711845661
0.38,0.26749922909616397,5894.214617621825
0.384,0.10249854050142923,5902.687724826064
0.388,-0.08186607832756268,5899.970120941651
0.392,-0.2587232314998265,5893.913334741214
0.396,-0.40044127759526726,5899.946255358317
0.4,-0.4925269451748441,5903.444781421202
0.404,-0.5432789591477306,5904.794380797343
0.408,-0.5828839411950238,5896.694470108113
0.412,-0.6514705521081713,5900.876639633978
0.416,-0.7817957715175097,5907.946296086852
0.42,-0.9847378778884235,5893.478629486777
0.424,-1.2434668164107003,5891.920937677252
0.428,-1.5172777195647835,5913.694660232843
0.432,-1.7521337769472465,5892.072826556123
0.436,-1.8935796051483187,5904.35739931047
0.44,-1.898037311629153,5906.03838123244
0.444,-1.7399006479062586,5899.84747386403
0.448,-1.4143407745863008,5898.59720260873
0.452,-0.9379705759159065,5901.140176122102
0.456,-0.34920096610369716,5903.282815572069
0.46,0.2926001224750984,5903.442634228476
0.464,0.9120682309581712,5900.977351673109
0.468,1.428709492111341,5905.960831371988
0.472,1.7721218933250718,5890.956028060886
0.476,1.897278855203083,5898.100615595092
0.48,1.7949090609150122,5891.455142230729
0.484,1.4932750812187132,5901.419533033852
0.488,1.0504441608268518,5897.2478110819775
0.492,0.5395792230240534,5905.443468728775
0.496,0.032355630295938353,5900.690856429774
0.5,-0.41395004204023594,5890.95831647974
0.504,-0.7622768793187298,5903.0998581789545
0.508,-0.9947821649530301,5898.08133049816
0.512,-1.1081358478876657,5900.316650885305
0.516,-1.1082502819095756,5899.336759709408
0.52,-1.0057470556779566,5897.570252294669
0.524,-0.8123973375866805,5906.363358726009
0.528,-0.5394505063107343,5895.16721770436
0.532,-0.199445166554221,5907.115749824508
0.536,0.18818213445440402,5895.015688395266
0.54,0.5903039183574255,5896.051756815727
0.544,0.9568942598044237,5895.784487097643
0.548,1.2253564751623016,5903.805293964214
0.552,1.332754030765364,5899.360816891761
0.556,1.2323435221321801,5901.164514678916
0.56,0.9086625502212825,5897.205070346192
0.5640000000000001,0.3856800943194563,5899.731508998648
0.5680000000000001,-0.27521975406111765,5909.86061225199
0.5720000000000001,-0.9869693897043376,5906.462431124538
0.5760000000000001,-1.6541229036216747,5892.125363950238
0.58,-2.190121327724981,5905.70162150068
0.584,-2.53053237028404,5902.663799440589
0.588,-2.6411192250853888,5898.567453102354
0.592,-2.521023426710409,5898.234668370927
0.596,-2.200966385699702,5892.860134192391
0.6,-1.7360173830970953,5900.763701462314
0.604,-1.1935943945774508,5896.119350363924
0.608,-0.639430059941921,5899.920886235968
0.612,-0.1257240642779687,5891.707444567949
0.616,0.31460702516050815,5904.752108299062
0.62,0.6662181476384232,5909.249674982973
0.624,0.9245603416530682,5899.716416321036
0.628,1.0889548900101003,5902.894994929085
0.632,1.1597267058272958,5900.652221939398
0.636,1.1402255687079899,5905.102668367848
0.64,1.0411133361866907,5902.8597703648575
0.644,0.8829827763349543,5900.238297399513
0.648,0.6944720551931745,5899.79949164102
0.652,0.505600469963934,5897.926602144616
0.656,0.33892132445500595,5902.456433541216
0.66,0.20280663968652732,5895.357904252482
0.664,0.09033698441121993,5897.973682555156
0.668,-0.01585435428842237,5898.113497647235
0.672,-0.13550664716141983,5904.3788114860645
0.676,-0.2830932585399839,5898.597299629442
0.68,-0.4632319710661666,5906.016602272368
0.684,-0.6700835465063061,5904.649199742811
0.6880000000000001,-0.8902400555229281,5905.35202425887
0.6920000000000001,-1.107638099817457,5903.711810477252
0.6960000000000001,-1.308634753816549,5902.641366237477
0.7000000000000001,-1.4853764314705524,5900.108439836748
0.704,-1.6358354753213962,5902.381800441224
0.708,-1.7599480238644718,5908.712155838061
0.712,-1.8535218089780874,5894.731163520364
0.716,-1.9036161028792136,5896.230550529028
0.72,-1.8888353254117547,5898.944251053187
0.724,-1.7852938368076632,5898.108157983244
0.728,-1.5759430924906987,5904.183950374455
0.732,-1.2594260349228654,5904.913607143979
0.736,-0.855033661096212,5892.41854318332
0.74,-0.4019678748712229,5906.269322375968
0.744,0.0469026666536592,5895.979244205206
0.748,0.43481810228722995,5898.5303486421
0.752,0.7114558884890294,5898.222922189287
0.756,0.8412595965988885,5902.265975066394
0.76,0.8087019058107477,5896.6531799049
0.764,0.6205462811364306,5901.96168749316
0.768,0.30525553028437896,5910.092864151718
0.772,-0.09051918944491587,5903.057463712404
0.776,-0.5082194295812995,5904.974347834854
0.78,-0.885868246911783,5894.9279367664185
0.784,-1.1679391677376882,5897.104020371844
0.788,-1.3153404774511102,5897.889859631301
0.792,-1.3133326767319058,5906.676427728265
0.796,-1.174546199592801,5896.598694893917
0.8,-0.9351499980275273,5898.0462623546455
0.804,-0.6447371489806095,5907.901024137056
0.808,-0.353266201501983,5896.247259090069
0.812,-0.0998145107402221,5901.944057972018
0.8160000000000001,0.09295038057101715,5898.137693411726
0.8200000000000001,0.2174589008075362,5905.0245956431245
0.8240000000000001,0.27508356252189986,5896.848056805672
0.8280000000000001,0.2690010731264153,5900.912453804152
0.8320000000000001,0.1999667439201735,5902.772877253075
0.836,0.06712729034301107,5908.717460486542
0.84,-0.12699029263355965,5896.203447776593
0.844,-0.3708035249751481,5903.083234049916
0.848,-0.6413843200974714,5898.2919234954
0.852,-0.907883371349905,5893.541240200122
0.856,-1.1398686098403412,5895.436242251003
0.86,-1.316515127953119,5908.44509225645
0.864,-1.4310711016325748,5908.787582645039
0.868,-1.4871644896665699,5901.899132683264
0.872,-1.4887003429746446,5906.599333217091
0.876,-1.4297686669620358,5899.125339920703
0.88,-1.2916173788973102,5900.775432168755
0.884,-1.0496527472448054,5899.96926880263
0.888,-0.6873226005965627,5907.63369444917
0.892,-0.20991066119839372,5898.721726985879
0.896,0.34805374320800764,5899.585771466847
0.9,0.9245346057795583,5899.7951117622215
0.904,1.4402804904422808,5903.163137895008
0.908,1.8151200904573592,5894.356758259576
0.912,1.9865435969054481,5899.1272420898895
0.916,1.9258506173600782,5903.050499819839
0.92,1.6468886885276683,5902.646407051891
0.924,1.2041135174748796,5895.23172991697
0.928,0.6804764459121363,5902.15455619102
0.932,0.1693099710089412,5900.594109755878
0.936,-0.24477939589886694,5897.127482328777
0.94,-0.5027849482548596,5902.297657848932
0.944,-0.5840185986621347,5898.896929801241
0.948,-0.5118568193973262,5898.289364718993
0.952,-0.34861400052542896,5902.035993440625
0.956,-0.17759564979824255,5896.003823943575
0.96,-0.07597107439108138,5906.817878608136
0.964,-0.0880529763771137,5898.867302539283
0.968,-0.21015564536311143,5911.0135970627
0.972,-0.3934768082559299,5893.87684044971
0.976,-0.5632643172485163,5895.267403824897
0.98,-0.6461255523834614,5902.377340494271
0.984,-0.5957454584322611,5903.070407039879
0.988,-0.40942059505404194,5907.920480485
0.992,-0.13104765518129852,5897.9588737682925
0.996,0.16060023542975754,5904.754209717833
1.0,0.37584984837105073,5904.199276921943
1.004,0.4436538498880757,5907.2057459422485
1.008,0.33674186957213026,5899.57031419635
1.012,0.08298069131786553,5895.261149429571
1.016,-0.2415740179835418,5911.492529552551
1.02,-0.5356853617640558,5902.341985271414
1.024,-0.7041829057894982,5900.028926560655
1.028,-0.6870141766574699,5894.564205337799
1.032,-0.47672664345315846,5894.668454890766
1.036,-0.11923460625391805,5894.426836829819
1.04,0.30149161296149957,5900.510081366115
1.044,0.6885863572000169,5898.559659753427
1.048,0.957696428008169,5899.705848611138
1.052,1.0538913279221522,5910.430896354826
1.056,0.9563977126746067,5901.913168225707
1.06,0.673882665545903,5898.209043995134
1.064,0.23688464004823884,5887.55277377849
1.068,-0.3069560914515667,5899.728689137627
1.072,-0.8940713720544464,5903.37929574456
1.076,-1.4467084384616027,5908.693528548016
1.08,-1.8804202139263726,5905.843157743261
1.084,-2.1186868134983983,5911.82772810711
1.088,-2.1106957504953123,5900.166450387565
1.092,-1.845437762674969,5902.203431282294
1.096,-1.3562489080163933,5901.567670409131
1.1,-0.7137015459983937,5901.981139191576
1.104,-0.009416969304695893,5900.361087092222
1.108,0.663291340556665,5896.806335106348
1.112,1.2255916916200258,5895.016807057185
1.116,1.6221049975083308,5902.647475303245
1.12,1.8222534094801117,5894.715281281289
1.124,1.816479478095673,5902.022093539338
1.128,1.610821340042699,5903.489119347776
1.132,1.2226790366268232,5895.891932367675
1.136,0.6794311678557733,5899.062506639266
1.14,0.020356194387509106,5903.686282666507
1.144,-0.6994567045508824,5904.33035986024
1.148,-1.406862393689158,5905.753624729145
1.152,-2.014794161697602,5897.926109718361
1.156,-2.4353882962966975,5898.831325964021
1.16,-2.600233113503491,5902.0724490369175
1.164,-2.4816809948741563,5896.790233014204
1.168,-2.107186845827702,5899.511246348649
1.172,-1.5598005598252058,5899.902973183462
1.176,-0.9625097325906191,5911.7065727268455
1.18,-0.45034896612452685,5902.117784555179
1.184,-0.13842229386179425,5896.374295326338
1.188,-0.09431373614565278,5907.182153954442
1.192,-0.32144929402285066,5895.118900980016
1.196,-0.7577844244578873,5905.035556545751
1.2,-1.2911985123829326,5901.072754433343
1.204,-1.788289872443875,5902.734450360235
1.208,-2.128341895063617,5907.370533644636
1.212,-2.2319523143858246,5901.655433367458
1.216,-2.075873083993666,5903.426938674781
1.22,-1.691084002274366,5910.837411824384
1.224,-1.1470860642037435,5894.301763756936
1.228,-0.5291596828581153,5898.13234427085
1.232,0.08381463087082291,5906.741359881271
1.236,0.6347668454502857,5898.342805394486
1.24,1.0938172012305578,5894.483780928902
1.244,1.4540465954348976,5891.574605576833
1.248,1.7211237922298388,5893.993036948124
1.252,1.9015837244096223,5901.560134178145
1.256,1.9942650366147758,5899.570153856375
1.26,1.988104139535086,5901.156593785832
1.264,1.8672480952264707,5897.532289382082
1.268,1.621327771659842,5901.86713800815
1.272,1.255847480499156,5893.277669874793
1.276,0.7970929071882648,5903.987329232882
1.28,0.28878774193720314,5890.298529155265
1.284,-0.21767394857112993,5906.460750212813
1.288,-0.6743691437073221,5895.934548167607
1.292,-1.0445065227398451,5903.244781477009
1.296,-1.3048680400718489,5899.503647341021
1.3,-1.4447954526770561,5895.317390749708
1.304,-1.464799196873866,5888.836814162098
1.308,-1.3764642440228283,5894.915156538204
1.312,-1.20289404945937,5894.120793074359
1.316,-0.9774945988259135,5891.806567273846
1.32,-0.7393236889385075,5904.9210066406895
1.324,-0.5252422698525627,5889.527870338327
1.328,-0.36144804413596393,5896.109708401353
1.332,-0.25780944747308787,5900.202892135416
1.336,-0.20705421350467904,5895.80540346631
1.34,-0.18871511917231396,5898.389136351633
1.344,-0.17648329519108377,5893.279713428614
1.348,-0.14715352570753054,5893.504120853939
1.352,-0.08863640522247446,5902.7153121093
1.356,-0.003890675696786693,5901.807348956427
1.36,0.09134673995577225,5897.474656697292
1.364,0.17625161193041303,5896.47854696712
1.368,0.23449073757013372,5890.252585855392
1.372,0.2615984411431427,5892.353503509928
1.376,0.26774193083938447,5906.705256295962
1.38,0.2758223833282873,5905.836974382058
1.384,0.3161004352130602,5893.873002974173
1.388,0.4182892134143473,5897.394851063991
1.392,0.6019959837799808,5906.35409311072
1.396,0.8676596467957901,5893.338402167991
1.4,1.1912244332859145,5901.4015061643095
1.404,1.5251121933628395,5905.380441123621
1.408,1.8062846972183737,5904.816756512093
1.412,1.9703518876770634,5897.334574995032
1.416,1.9688034961817715,5902.40813040269
1.42,1.7849145007573588,5903.943012848608
1.424,1.4434155273710167,5905.345545045758
1.428,1.009617308503868,5906.024007036174
1.432,0.5756767006447624,5895.527893360319
1.436,0.2360395441754443,5904.185263409998
1.44,0.059685864942297495,5900.497007072683
1.444,0.06994646760869778,5906.6637170175
1.448,0.24045984322861627,5901.178648655333
1.452,0.5086285177407766,5903.421921023535
1.456,0.799367032904329,5894.257889370245
1.46,1.0475002701142857,5900.00761940415
1.464,1.210006358303676,5904.126375122759
1.468,1.2668398260287401,5906.432403505437
1.472,1.215492079181322,5897.798273400488
1.476,1.0657915666380553,5899.978552416652
1.48,0.8380736589057591,5896.427056515839
1.484,0.5633003476595441,5905.105128873945
1.488,0.2814884334906672,5898.10635615826
1.492,0.03592678890140463,5904.328940561671
1.496,-0.136158244616051,5892.577405465228
1.5,-0.21293250508080666,5900.294759676359
1.504,-0.19322082989777895,5899.469270374824
1.508,-0.095768704578509,5897.006800114108
1.512,0.04657920131226924,5893.4632324180775
1.516,0.19517318073178666,5894.80026398712
1.52,0.31367671929106244,5900.077890771601
1.524,0.37420166370509234,5906.038079938362
1.528,0.360487334556864,5898.863487143415
1.532,0.2680227714044523,5906.848184987704
1.536,0.10224404242992217,5897.490684100596
1.54,-0.1231906232592705,5891.788970654212
1.544,-0.3865689556982643,5900.535119871615
1.548,-0.6570611375359489,5902.9875177399
1.552,-0.8946921348349526,5907.196232013098
1.556,-1.0541846046403118,5908.931434926553
1.56,-1.093677117489716,5900.475862178667
1.564,-0.9861602303524849,5898.795144485644
1.568,-0.7296646350700606,5905.608059602248
1.572,-0.35277224446038535,5906.632732986425
1.576,0.08664142473179959,5902.482807311303
1.58,0.5104625700624446,5911.483237240636
1.584,0.836720320626214,5897.131348890651
1.588,1.0001945777204642,5901.767112557602
1.592,0.9712908343475622,5894.063379142202
1.596,0.7662980911837798,5896.341025881734
1.6,0.4445779817085191,5898.069292868375
1.604,0.09301501814791024,5903.067086673404
1.608,-0.19725383578008338,5898.06272416681
1.612,-0.35418353837716343,5893.256283543786
1.616,-0.3409791542849619,5902.08464245361
1.62,-0.16105104603331677,5902.902902925455
1.624,0.1477364913180614,5909.754243264595
1.628,0.5256208361483107,5907.069419983869
1.632,0.905541910975045,5905.67034441631
1.636,1.226213445685599,5899.607073577716
1.64,1.4417987431998638,5896.661394740911
1.644,1.5275791064702968,5900.405464708553
1.648,1.481653739319682,5897.222973710384
1.652,1.3229764536319923,5908.023592616679
1.656,1.0863424743673566,5895.76692951653
1.66,0.8155152570300773,5895.905824463818
1.664,0.5559887693426133,5895.716516661775
1.668,0.34832915177018675,5901.55949266633
1.672,0.22224645981282232,5894.528955275444
1.676,0.19159287871566394,5901.591137762892
1.68,0.25118320033051034,5908.424532483342
1.684,0.3767175071889576,5907.499391496785
1.688,0.5290036638272367,5899.970228861515
1.692,0.6631899024974178,5900.6486836293125
1.696,0.7419552075276672,5895.498194476014
1.7,0.7484997461803867,5905.953381335641
1.704,0.6932363184963856,5900.579119941532
1.708,0.6099681033223009,5895.463053079104
1.712,0.5424688049532504,5890.389643945791
1.716,0.5273866796049029,5901.659017744763
1.72,0.58099021859223,5898.662471370847
1.724,0.6945731505256394,5908.108327026859
1.728,0.8385356827881936,5896.687072476423
1.732,0.9716920628025256,5898.393095735583
1.736,1.0518794252922141,5887.875839619511
1.74,1.0454998797436161,5908.059403161104
1.744,0.9351259479764482,5891.164919159658
1.748,0.7243373343998215,5900.400164007539
1.752,0.43813784370975317,5895.889929838798
1.756,0.11765211984625941,5896.247182591167
1.76,-0.1899253785079415,5901.768813306034
1.764,-0.44272683365441107,5898.892799715279
1.768,-0.6131853141377991,5898.665738130487
1.772,-0.6926607698027158,5892.541720904133
1.776,-0.691721333818836,5894.460367398812
1.78,-0.6362583723283758,5904.319328996497
1.784,-0.559008442931567,5894.642659513242
1.788,-0.4872196685237628,5896.586717146696
1.792,-0.4305180078416727,5905.137219327209
1.796,-0.3756114160341402,5905.158455421584
1.8,-0.29296195644658873,5893.124292611858
1.804,-0.1545471000622333,5905.380811249279
1.808,0.045298025729962284,5903.590625727531
1.812,0.2772785080023842,5903.182121866575
1.816,0.48069098348451217,5900.184272669238
1.82,0.582569873080487,5890.269128710137
1.824,0.5238812643230939,5900.268262508177
