时间(s),电压(V),幅值(高频80K)
0.0,0.02587403663517325,5902.711478212191
0.004,-0.9707025338499978,5892.314628494577
0.008,-1.8232978826556214,5911.310269662517
0.012,-2.4155440178653955,5904.561559346147
0.016,-2.685768926182354,5899.587842222529
0.02,-2.636528354400163,5909.640837807692
0.024,-2.3272836445439777,5903.66243063222
0.028,-1.852432147020793,5903.525251306501
0.032,-1.3123836193433749,5905.455837676789
0.036,-0.7878657746896476,5898.74871177459
0.04,-0.32516857687240974,5912.236213584021
0.044,0.06514775197524873,5896.754035449534
0.048,0.39789910507226667,5893.883873168458
0.052,0.6957390941635225,5898.7439126524805
0.056,0.9708844772753261,5893.472802221859
0.06,1.2134793751503168,5900.099870415898
0.064,1.3917421004272081,5902.907684335721
0.068,1.4634191271523296,5899.779423457219
0.072,1.392537499475903,5908.610406294552
0.076,1.163910144398283,5907.8853706492055
0.08,0.7906996958613,5888.083049560109
0.084,0.3145915400322928,5906.513256638668
0.088,-0.19958748993822942,5903.016288009911
0.092,-0.6733810561569425,5897.253795852479
0.096,-1.027623417610337,5905.452128009696
0.1,-1.1968379011449979,5904.330319739556
0.104,-1.1414929071167066,5899.039261065459
0.108,-0.855255689064687,5901.211108020456
0.112,-0.36724360104518095,5898.979276849245
0.116,0.2593280943740661,5888.089564847978
0.12,0.9324586374554675,5902.429753735085
0.124,1.5429659238234201,5897.227844157017
0.128,1.9830805102393607,5901.612419061998
0.132,2.1681970035544573,5899.225742946713
0.136,2.05515286018431,5906.723711934485
0.14,1.65193148749265,5889.006992160727
0.144,1.0172893764192095,5896.913953579498
0.148,0.25115241348219286,5901.280074535725
0.152,-0.5226232554506612,5903.015669684273
0.156,-1.1787450588669985,5895.148700464883
0.16,-1.6145232921238009,5904.61966612809
0.164,-1.770711932817283,5898.955559338266
0.168,-1.644204715404129,5899.248429747344
0.172,-1.2884095159102362,5893.749814820125
0.176,-0.7995217386261438,5891.468843910324
0.18,-0.2912780877479359,5893.358686819353
0.184,0.1345596387967755,5904.306514082412
0.188,0.4125585993236979,5897.929705822612
0.192,0.525198359378013,5903.622387054328
0.196,0.4991873758252014,5908.634833056452
0.2,0.3897697858598382,5902.785927020856
0.204,0.25968355973096613,5900.601861664658
0.208,0.15972895739225318,5905.3660132902405
0.212,0.11643825522350817,5896.014540720482
0.216,0.12968300669201013,5897.791632218024
0.22,0.1790809416217273,5905.45096577463
0.224,0.23466813125393343,5891.875781489802
0.228,0.26715722284552534,5894.20745997961
0.232,0.255431741458768,5897.001688673934
0.236,0.19060419536264914,5901.394082256408
0.24,0.07639181818680538,5905.09740351599
0.244,-0.07380580872803406,5899.991702933245
0.248,-0.24196117088411995,5908.7915172595385
0.252,-0.4111433553154285,5897.313879861687
0.256,-0.5701081609435362,5898.874085486968
0.26,-0.7147255831858916,5898.743681516566
0.264,-0.845377416288571,5892.082837542856
0.268,-0.9617741850184179,5906.972088820595
0.272,-1.0582105659630654,5896.985436060792
0.276,-1.1219034781654629,5899.574389022639
0.28,-1.1352114622921403,5904.938182802776
0.284,-1.080652550884653,5907.7279390046015
0.288,-0.946865270754402,5900.121432220496
0.292,-0.7337702892038865,5910.25056514324
0.296,-0.4552195472671649,5890.632576080675
0.3,-0.1375034363974747,5897.676493531158
0.304,0.18656126922617397,5897.762906608267
0.308,0.4856967070285166,5897.871991677409
0.312,0.736540659585345,5897.055787460949
0.316,0.9255928520473126,5901.382830389247
0.32,1.0469126250342617,5898.866523815164
0.324,1.0981594940177843,5893.431390062523
0.328,1.0779539221650039,5903.583641484441
0.332,0.9862380606308905,5897.766711988081
0.336,0.8276335273905748,5900.005636759741
0.34,0.6163183630598434,5901.565162560351
0.344,0.37953944458434874,5904.546050298216
0.348,0.156278241276223,5899.006392655553
0.352,-0.010729664213712216,5901.847053291815
0.356,-0.08757648342011198,5899.683391345126
0.36,-0.06074719825069784,5890.686577103203
0.364,0.05847514169372122,5902.017192913148
0.368,0.23948110309983775,5902.785526231806
0.372,0.4449602975872429,5898.283357877653
0.376,0.6441729578701064,5903.241013550583
0.38,0.8205459409388267,5901.084756833761
0.384,0.9705030431155143,5898.291979315628
0.388,1.094513546950864,5908.673086011519
0.392,1.1852123965603019,5906.204346474258
0.396,1.2200378770937277,5905.130692468043
0.4,1.1646157696787276,5900.820503268677
0.404,0.9870407643541081,5898.832288736094
0.408,0.6759087665957553,5900.092748651408
0.412,0.25204409650689974,5894.084610722775
0.416,-0.2326675336515992,5901.271761461615
0.42,-0.7087959990338968,5904.912567320712
0.424,-1.108163430626233,5908.000583793584
0.428,-1.3785566190326333,5894.019198526363
0.432,-1.4886164212454074,5903.440387652246
0.436,-1.424343587130695,5895.722760654802
0.44,-1.1836957347361883,5902.183206882908
0.444,-0.7750691610724707,5904.138156782649
0.448,-0.22102266389765343,5901.754729694351
0.452,0.43559875382723423,5901.592648202888
0.456,1.1281548861640893,5894.031877101696
0.46,1.7700815720931398,5907.109249878655
0.464,2.26793175358288,5901.347708199576
0.468,2.5409661570220146,5895.794572657613
0.472,2.541395383053023,5901.232474578259
0.476,2.268495061864727,5896.258454678017
0.48,1.7713322603106523,5896.501075839684
0.484,1.1385544859129635,5898.639842580512
0.488,0.4782080949242003,5904.520386484516
0.492,-0.10642778878496323,5893.253450015744
0.496,-0.5383727152314639,5895.230054981327
0.5,-0.7804152520488118,5901.018254314629
0.504,-0.837721023160677,5890.43498869762
0.508,-0.7503522665885561,5901.3486009309845
0.512,-0.5795404896480404,5904.955386520274
0.516,-0.39257309731801465,5902.087766843502
0.52,-0.24997494317320734,5900.239026265489
0.524,-0.19658043761327068,5899.900181065442
0.528,-0.2565174235301546,5908.042722498425
0.532,-0.43150713857205736,5895.334732093252
0.536,-0.701917714190461,5897.900658592902
0.54,-1.0302628285448105,5900.624312737217
0.544,-1.3669312954926407,5900.187339666089
0.548,-1.65770448400494,5901.948310658572
0.552,-1.8521903702709008,5901.663116316069
0.556,-1.9118634879593794,5891.299303701149
0.56,-1.816290988776378,5897.534432554984
0.5640000000000001,-1.5667236089333227,5897.923837547923
0.5680000000000001,-1.1871219166972593,5892.14282663389
0.5720000000000001,-0.722747977512045,5898.100706221057
0.5760000000000001,-0.2355767706730757,5904.159533221934
0.58,0.20437858994682984,5902.3515708027735
0.584,0.5310310191814649,5898.777381683367
0.588,0.6945169225058541,5899.342164349751
0.592,0.6704081274006559,5901.3999713106805
0.596,0.46379094420792605,5898.841971565307
0.6,0.10798436705699312,5898.849599466713
0.604,-0.34113865426977646,5905.937266415112
0.608,-0.8140504764980795,5891.074934531128
0.612,-1.2388498835067245,5908.256303996007
0.616,-1.5538690644226028,5897.969145789597
0.62,-1.7193158216625437,5904.677937069248
0.624,-1.7245132969138264,5895.683036899299
0.628,-1.5878304533930798,5898.495069778822
0.632,-1.349046868573305,5891.269738627133
0.636,-1.057416983952026,5901.034013506358
0.64,-0.7607631224571291,5896.315238725695
0.644,-0.4997001184916562,5905.983072822792
0.648,-0.30705747394769134,5901.502086323269
0.652,-0.2087515994701154,5894.342391659267
0.656,-0.2219471676379175,5895.590443915196
0.66,-0.34950150867012636,5903.8050707746925
0.664,-0.5735545587495817,5901.789380237824
0.668,-0.8530324184318359,5905.258551998578
0.672,-1.1290237616841883,5901.013761276503
0.676,-1.338721013714121,5898.5354246211045
0.68,-1.434009528194974,5898.90436885168
0.684,-1.3974286588882867,5901.903111327158
0.6880000000000001,-1.248678850154891,5906.267583565064
0.6920000000000001,-1.0390307787318134,5901.119345311134
0.6960000000000001,-0.8360587477319786,5891.384916214342
0.7000000000000001,-0.7042269655630347,5902.20060197326
0.704,-0.6873914770566328,5909.322174057556
0.708,-0.7980914017592178,5891.225386220872
0.712,-1.0161532309943084,5906.34833123775
0.716,-1.2959969472088353,5901.4068372585125
0.72,-1.5792710007538056,5891.251906474903
0.724,-1.808474709109318,5901.653600504236
0.728,-1.9383586944436781,5903.118786375977
0.732,-1.9439795948151497,5905.623741806903
0.736,-1.8254621610422022,5899.089144260005
0.74,-1.6087934734467269,5900.420846107772
0.744,-1.3407710527407843,5890.151693764808
0.748,-1.0771545924237982,5895.026637299929
0.752,-0.8665261775895304,5902.924814295508
0.756,-0.735820147995521,5900.55505480669
0.76,-0.6839581420422306,5899.798944634308
0.764,-0.6864477366326868,5910.977566255292
0.768,-0.708120235990895,5899.894064410676
0.772,-0.7172583048540241,5896.218408814075
0.776,-0.6946934897450302,5896.141271710663
0.78,-0.6352883301059296,5896.591783875563
0.784,-0.543736591970341,5904.028762770281
0.788,-0.4289419606070007,5906.390590242622
0.792,-0.30029718502161906,5900.795245919523
0.796,-0.16661155428901875,5901.150358589645
0.8,-0.036689923184912834,5905.222551419764
0.804,0.07966882566474712,5902.449567074592
0.808,0.17111166260736876,5900.164680259846
0.812,0.2253212889266739,5900.6834942931455
0.8160000000000001,0.23163667327722304,5904.280527129007
0.8200000000000001,0.18611826179404184,5891.104416256554
0.8240000000000001,0.09736939695155626,5902.776171510739
0.8280000000000001,-0.0109799865707792,5902.037094877973
0.8320000000000001,-0.10483028385871462,5912.065676264995
0.836,-0.15093331955148206,5898.034499417197
0.84,-0.13013778223427436,5897.673679848176
0.844,-0.04606555091840612,5900.167495804943
0.848,0.07524584331370751,5903.72811249997
0.852,0.1950655336073725,5900.883811823045
0.856,0.27717487610654645,5896.734974057281
0.86,0.3020265974676262,5899.202837757136
0.864,0.27343288714461905,5904.149015169207
0.868,0.21470375795559682,5900.52326404182
0.872,0.15667935877520275,5893.861916204021
0.876,0.12448429727662902,5897.437866339962
0.88,0.12961310000763052,5897.042945812531
0.884,0.16955501749330323,5900.382367994058
0.888,0.23279425387643032,5888.310134256516
0.892,0.30566425400231195,5904.845562394025
0.896,0.37837469610122043,5907.380789469421
0.9,0.4486129133840317,5902.247901047946
0.904,0.5219164813947038,5891.550841871518
0.908,0.6088457370096719,5891.225534845011
0.912,0.7198205645376584,5895.558296389618
0.916,0.8590513999896288,5899.447283549223
0.92,1.019363700967334,5899.900394240018
0.924,1.1800414090856828,5892.205878085068
0.928,1.3096497258444597,5906.221888248783
0.932,1.3743272290299313,5901.250024227977
0.936,1.349256725216056,5894.440373006208
0.94,1.2285484931092807,5894.607055618852
0.944,1.0287848479243082,5901.980431055425
0.948,0.7843499332573823,5903.532919724763
0.952,0.5364555662308109,5904.176085091508
0.956,0.32035532421413815,5912.378748326759
0.96,0.15574375182793052,5905.817401339236
0.964,0.04364085252492102,5907.112715112726
0.968,-0.030338326308463334,5900.115982543752
0.972,-0.08969080294162035,5902.2254207233
0.976,-0.16161107130601965,5907.546936839111
0.98,-0.27344437028349905,5901.080854868967
0.984,-0.4484793735208018,5907.773838588659
0.988,-0.6985070549619411,5904.271216222056
0.992,-1.014594186301887,5893.978655696118
0.996,-1.3616240038338228,5901.607376458617
1.0,-1.6821383987536387,5894.852724382139
1.004,-1.9105717280430796,5903.218326196879
1.008,-1.9932849939710804,5908.399514050264
1.012,-1.9066134749708012,5893.021168826954
1.016,-1.6660533165442728,5900.47464973851
1.02,-1.3234787445139105,5900.345308059235
1.024,-0.9534406853653039,5912.265866930314
1.028,-0.6326247764811563,5909.1765816774
1.032,-0.41821659990685506,5899.632566412118
1.036,-0.331368834681193,5907.162768759955
1.04,-0.3510023255206364,5895.374098836259
1.044,-0.42046723072905545,5899.144045491528
1.048,-0.4654071923206217,5902.122752537768
1.052,-0.4170688059578549,5900.329993197354
1.056,-0.23355453986491684,5906.9592937473935
1.06,0.08703634029303256,5906.79697123671
1.064,0.5045537345575164,5892.962653313679
1.068,0.9459998741488509,5898.704284150201
1.072,1.3239755691179143,5903.974589362336
1.076,1.5602215089805649,5900.795851431983
1.08,1.6078889763128332,5893.392882514509
1.084,1.4649091195756068,5896.278473197167
1.088,1.17265961143815,5904.231302517494
1.092,0.7999402962537554,5896.849798596469
1.096,0.41912377150353114,5904.819650589889
1.1,0.08459932967613541,5901.682499959166
1.104,-0.17839151519247132,5895.806550556318
1.108,-0.3716953492219684,5903.424945861323
1.112,-0.5117677534761164,5903.752289763655
1.116,-0.6135357602994282,5899.582790805818
1.12,-0.6782797346973575,5902.592424683156
1.124,-0.6907645752333346,5906.618917389806
1.128,-0.6264359514969906,5907.10564610197
1.132,-0.465328683682542,5908.104477931708
1.136,-0.20661446796587926,5904.061613194684
1.14,0.12309799648703999,5900.628861720656
1.144,0.4724539680464401,5895.461390523252
1.148,0.778477623333958,5908.4839905266645
1.152,0.9839882763039577,5897.812276009678
1.156,1.0513055977545205,5892.64687189137
1.16,0.9672954950982436,5899.730060007229
1.164,0.7403690148441155,5892.227011880663
1.168,0.39428870459250454,5901.603159874218
1.172,-0.03625566606228595,5896.695398902205
1.176,-0.5071603004674131,5899.149491264911
1.18,-0.9665324737242813,5903.012257563679
1.184,-1.3600875464675668,5907.107415524226
1.188,-1.6408784089340815,5900.658623482449
1.192,-1.7802925797381142,5906.153703130783
1.196,-1.7758724558827148,5909.897626695901
1.2,-1.6526362011421187,5908.250679629013
1.204,-1.4569721070320318,5901.458754901834
1.208,-1.2444541417327797,5914.479387730041
1.212,-1.064404781689122,5894.516190097829
1.216,-0.9451731098390461,5892.498255262703
1.22,-0.8851947475234592,5897.85214845959
1.224,-0.8545925473365866,5908.31088553336
1.228,-0.8085878794389485,5900.196512587391
1.232,-0.7080462376986819,5898.818767673348
1.236,-0.5380177112766396,5902.86653526202
1.24,-0.3159392307170915,5906.1184925427815
1.244,-0.08672651157364555,5899.0512926713
1.248,0.09188974270713111,5901.141168159326
1.252,0.1671201764443011,5902.083010242026
1.256,0.10545107875224523,5905.133299573095
1.26,-0.10010871626946456,5904.344458752544
1.264,-0.4297194486762291,5893.217514685237
1.268,-0.8410296431035572,5900.134148778533
1.272,-1.276313710548561,5905.587531502389
1.276,-1.671621829970899,5908.497718459192
1.28,-1.9664910704723453,5904.808483450327
1.284,-2.111792666924199,5905.94511718388
1.288,-2.074465281725634,5901.080082867219
1.292,-1.84046119584941,5893.741412405322
1.296,-1.4181010509579508,5904.667378756193
1.3,-0.8421010344284268,5903.502011139462
1.304,-0.17578603486579986,5900.410883593164
1.308,0.49228615063349457,5912.81657072584
1.312,1.0601171080763443,5895.382280255242
1.316,1.4322057841466038,5902.557578243014
1.32,1.54290524570891,5904.961420669054
1.324,1.37510045070438,5907.468434847151
1.328,0.9666517271112821,5900.161752646366
1.332,0.40159101638548367,5901.86525193418
1.336,-0.2112213166176781,5903.394640367207
1.34,-0.7650963002727995,5902.7975393399465
1.344,-1.1797330422357537,5901.254614750375
1.348,-1.4154527645011161,5897.132577092999
1.352,-1.4739784832988145,5900.026464399007
1.356,-1.38736919481977,5894.43998005607
1.36,-1.2011755706824752,5896.605444787727
1.364,-0.9594318978683318,5898.911833771088
1.368,-0.6966186537316306,5893.736853984638
1.372,-0.43689480284958493,5899.874430360913
1.376,-0.19721234835991286,5902.150996879155
1.38,0.009581621906269636,5896.441699387166
1.384,0.17379169476773149,5898.71230962501
1.388,0.29010107454647743,5888.056665742467
1.392,0.3595684567339759,5900.899628786058
1.396,0.3906141045268628,5902.921870113464
1.4,0.3980574624476832,5902.131681183071
1.404,0.4005291000632591,5900.342332504394
1.408,0.41707182755885097,5899.763082325914
1.412,0.463512225059062,5901.332625224816
1.416,0.5491472273014049,5902.390675183706
1.42,0.6744426901895755,5912.061574628993
1.424,0.8300642469868054,5898.594188668915
1.428,0.9969056092857064,5897.048364591356
1.432,1.1468869911916693,5906.893079448717
1.436,1.2453641952818642,5902.760487495908
1.44,1.2567822231432886,5896.29686878257
1.444,1.154116602553611,5903.269374640511
1.448,0.9295908573762393,5912.435218322026
1.452,0.6015250944759806,5906.507172790507
1.456,0.21286802152115705,5905.049605897591
1.46,-0.17899149127804073,5906.180572614596
1.464,-0.5173257318972964,5899.901286919115
1.468,-0.7605607571249315,5897.922005278811
1.472,-0.8913458366527435,5908.105732701252
1.476,-0.9175489087110033,5898.147319058418
1.48,-0.8656668492859294,5907.264163524528
1.484,-0.7700978416301064,5906.495153908127
1.488,-0.6626942313110393,5909.305175539463
1.492,-0.5655926509933771,5911.036478766941
1.496,-0.48805116886487604,5890.0166360978765
1.5,-0.42667961301022206,5903.335141579947
1.504,-0.3684274202315666,5900.804004488335
1.508,-0.2959416524187372,5902.166740752689
1.512,-0.1943957826468494,5898.853601548097
1.516,-0.0580233233848714,5903.947004054598
1.52,0.10566585494238641,5904.875132867157
1.524,0.27558272699009895,5900.14892979643
1.528,0.4213645287875396,5909.292786235003
1.532,0.5115169155069648,5899.1290260903
1.536,0.5230680324199876,5908.057708779988
1.54,0.44967627859596954,5888.779312368454
1.544,0.3055119991644708,5900.751684616088
1.548,0.12348681518051459,5903.665280803714
1.552,-0.05189706530199394,5893.561610956639
1.556,-0.17538921847078673,5890.813583834871
1.56,-0.21300941790194275,5905.793794471898
1.564,-0.15203713500307295,5904.500772201305
1.568,-0.005536332038451628,5904.176134264944
1.572,0.19051134108275736,5895.862064836182
1.576,0.38645683380700063,5906.564148945348
1.58,0.5315418927171254,5902.243832155791
1.584,0.5865115590966071,5900.971961060274
1.588,0.5333641997679753,5903.232178340801
1.592,0.3793492485299864,5894.785246454627
1.596,0.1532955837413863,5900.85561591189
1.6,-0.10477145518390552,5898.322616025575
1.604,-0.3564247878783708,5890.098648284282
1.608,-0.5745876844228894,5901.997444700465
1.612,-0.7469083860103211,5903.200427856425
1.616,-0.8730642682459542,5900.0376723430345
1.62,-0.9587328783186887,5900.342268195484
1.624,-1.0092680053687233,5896.813278522252
1.628,-1.0253114671474024,5891.261794784152
1.632,-1.001595821557325,5901.20578596016
1.636,-0.9290745362958658,5899.76349588533
1.64,-0.7992631342381487,5890.590099452771
1.644,-0.6088700059096138,5904.613168764567
1.648,-0.3630709818490899,5890.304489496847
1.652,-0.07689777899544663,5896.078659981842
1.656,0.22513026537649222,5887.4994305024575
1.66,0.5115012239690837,5898.641339483244
1.664,0.7489520838601098,5897.055330853853
1.668,0.9095567066292704,5900.468941821837
1.672,0.9766889069632393,5904.054818958616
1.676,0.9469299510807602,5892.699547082111
1.68,0.827723505582037,5906.705105677112
1.684,0.6336102260401636,5901.141143727174
1.688,0.38430206134155487,5900.951846135715
1.692,0.10536445014237626,5901.693395166444
1.696,-0.170717362354697,5909.502260985312
1.7,-0.406433175728676,5897.313678776372
1.704,-0.5660697011926635,5902.9386321678585
1.708,-0.6261626804066591,5912.927378715817
1.712,-0.5849615484845303,5904.365530239409
1.716,-0.4656292450811363,5894.689503931857
1.72,-0.3109297670331857,5902.614164139326
1.724,-0.17147656768993616,5903.308593627242
1.728,-0.09186710393717967,5901.589725086261
1.732,-0.09852528567713573,5908.764388038612
1.736,-0.19176417220341965,5903.811886993311
1.74,-0.34397366275005353,5902.84130828899
1.744,-0.5053936111588467,5907.386513149395
1.748,-0.6174153072034201,5904.192171327741
1.752,-0.6305205663409098,5903.839567978628
1.756,-0.521020333199901,5900.74683827666
1.76,-0.2998020117260333,5908.966592415994
1.764,-0.008776628201201328,5900.7202793941415
1.768,0.2941115876094734,5914.31817021274
1.772,0.5552550392882151,5896.413749273252
1.776,0.7426828361831681,5910.151137748575
1.78,0.853409546727601,5899.136779274106
1.784,0.9084376946362679,5903.420158440735
1.788,0.9383458270958954,5913.451442071508
1.792,0.9664373950617045,5909.699723907695
1.796,0.9971991016802108,5910.78749066597
1.8,1.0146275279556265,5904.06448663531
1.804,0.9898564352825503,5900.542797170778
1.808,0.893854864804775,5899.1089229806175
1.812,0.7101889558964928,5905.57220655725
1.816,0.4436181178159464,5898.642117009183
1.82,0.12148572440739196,5893.949323056523
