时间(s),电压(V),幅值(高频80K)
0.0,1.818325722570937,5901.701145643599
0.004,1.9492758456562445,5900.1765864922445
0.008,2.0754908477346588,5899.298152693348
0.012,2.1928936556837373,5904.359003310577
0.016,2.287517298638359,5904.033796660287
0.02,2.3391702090022597,5890.704656425641
0.024,2.3300901774642977,5894.006277396168
0.028,2.253789043102646,5903.071968215035
0.032,2.118687464531748,5896.913621590815
0.036,1.9442688035046505,5901.64551732316
0.04,1.7523835221326693,5896.632994516061
0.044,1.5588832801328032,5905.209916337056
0.048,1.3693302102799978,5896.248882390265
0.052,1.1796419539487333,5891.112533809261
0.056,0.9809824063876356,5894.961662314121
0.06,0.7676251277591509,5894.712275229811
0.064,0.5451877963525872,5897.990563694055
0.068,0.33494394767339847,5908.857800765432
0.072,0.1702116955536214,5900.149149866786
0.076,0.08454469556867361,5885.711219953485
0.08,0.09698522078598745,5902.11819819314
0.084,0.20262474216815032,5901.030072764721
0.088,0.3738449471059178,5902.402397794455
0.092,0.5708971280824352,5909.13973565317
0.096,0.7556783375798587,5899.211587552861
0.1,0.9027010744497084,5905.429202428721
0.104,1.0040693919608354,5896.494371401673
0.108,1.0674760154564527,5908.130124198594
0.112,1.1077105808738243,5914.579055703408
0.116,1.134521877935418,5902.223596195568
0.12,1.1422719995348916,5904.021291054554
0.124,1.106918222982823,5900.17331171567
0.128,0.9924537661893778,5895.458548680768
0.132,0.7643388560173662,5900.628793682821
0.136,0.4046879182682021,5903.045350586969
0.14,-0.07625619761525114,5893.40220478691
0.144,-0.6367208078653653,5892.321136094623
0.148,-1.2101882321351216,5896.2895455958505
0.152,-1.7204423849844412,5899.49615060486
0.156,-2.0988067360322025,5897.783539719723
0.16,-2.2968000985871853,5897.881343844182
0.164,-2.2909417544930846,5902.138698893124
0.168,-2.081081721194588,5895.008896336091
0.172,-1.6863532913444734,5902.067949864382
0.176,-1.1426379712558627,5903.170427957488
0.18,-0.5026446558349582,5894.9684195825575
0.184,0.1638422405345437,5907.9234242811335
0.188,0.7735748834419958,5912.836658072759
0.192,1.2398685174949855,5896.754001534219
0.196,1.4883875262816275,5907.113422975063
0.2,1.4750119786422409,5891.245116072218
0.204,1.2003912324534618,5896.316118294994
0.208,0.7157753297194605,5896.335251792587
0.212,0.11651808391125457,5904.232536797704
0.216,-0.47680868135745563,5893.366716018515
0.22,-0.9453167381571753,5893.913785233454
0.224,-1.1990315169831653,5896.448420140107
0.228,-1.1966322346378098,5898.61745318413
0.232,-0.9529731023665919,5904.546406364841
0.236,-0.5336131820258248,5898.9437116985255
0.24,-0.03835596522399498,5895.855258722632
0.244,0.42230895801997936,5899.30584082752
0.248,0.7522124162773904,5909.406748889134
0.252,0.8895845101920913,5897.501753126352
0.256,0.8173206264656546,5899.530978109362
0.26,0.5619280554025325,5899.305709539809
0.264,0.18329794212663572,5900.446624899627
0.268,-0.24048208553636954,5900.42414320573
0.272,-0.6293355052563968,5900.432564654789
0.276,-0.9159360876109341,5892.510255290184
0.28,-1.0572778274476673,5902.524709441058
0.284,-1.0412287607365798,5905.684297335041
0.288,-0.886521301696232,5909.344239307016
0.292,-0.6361957683645932,5899.436515126007
0.296,-0.3462794768623133,5899.002646075023
0.3,-0.07215072464322689,5899.776108274506
0.304,0.14488679954094347,5903.646677395032
0.308,0.28771820990524916,5901.28768137949
0.312,0.366760124008304,5899.638477272757
0.316,0.41457656513221275,5901.398128571267
0.32,0.47312465165632983,5897.492621261693
0.324,0.5779436121540298,5903.879046391465
0.328,0.7441963214881787,5899.511665563113
0.332,0.9583121990526811,5901.561349016576
0.336,1.178171503006458,5901.401698942129
0.34,1.343895514730788,5898.8932389086285
0.344,1.397697088915212,5900.752382582935
0.348,1.305488630708122,5895.129477213597
0.352,1.0702202139933887,5909.004739625379
0.356,0.7308328417438742,5906.869449506073
0.36,0.3484527237347437,5902.327095828699
0.364,-0.012887678988322352,5902.075289920764
0.368,-0.30286279946971334,5892.6684864973
0.372,-0.493323132042301,5895.144457639756
0.376,-0.5774355963188721,5898.287827449423
0.38,-0.5627098482290822,5902.97001946187
0.384,-0.46330999944826373,5900.372891658692
0.388,-0.2955503114201267,5900.448741598167
0.392,-0.07707294843373227,5894.546077666518
0.396,0.1720576642478904,5895.071419450316
0.4,0.4284251154084075,5895.116012156459
0.404,0.6658272783398517,5906.9846274999945
0.408,0.8574684788933571,5894.180253580327
0.412,0.9789235864165381,5908.197446868667
0.416,1.0110198221784565,5907.751124377201
0.42,0.9423693161467919,5903.2465428821215
0.424,0.7714667799893306,5896.166272140863
0.428,0.508017043084074,5901.06429656298
0.432,0.17294044956213817,5896.195995021751
0.436,-0.203632127958136,5894.088042431096
0.44,-0.5869166037583091,5905.685174186222
0.444,-0.9441872810336381,5896.803645409593
0.448,-1.2516700165943977,5896.373826586193
0.452,-1.4985767467495172,5903.994154559567
0.456,-1.6859267056331835,5903.645652236752
0.46,-1.8205041047114427,5897.476604685366
0.464,-1.9076254347987665,5904.009028278128
0.468,-1.9476260019044322,5899.793248152243
0.472,-1.9383923903282791,5917.893000536116
0.476,-1.8815263064336083,5905.146397041807
0.48,-1.7868344121659654,5897.358832404047
0.484,-1.671287674118156,5901.204905503516
0.488,-1.5530771310736662,5894.943667396526
0.492,-1.4451162978267698,5902.564366255799
0.496,-1.3523241648599822,5893.557339195164
0.5,-1.2736125781557066,5895.594962472127
0.504,-1.206005085812357,5901.093803842715
0.508,-1.1477785364053128,5893.381215572341
0.512,-1.0995157371683084,5896.091695999534
0.516,-1.0635471134466066,5893.3918669176055
0.52,-1.0422773317831981,5898.211779863553
0.524,-1.0358961556085016,5897.498366892954
0.528,-1.0406761864018523,5896.273595372313
0.532,-1.0491280872161277,5900.550731987108
0.536,-1.0521259044290021,5898.576896273014
0.54,-1.041842435604798,5905.955370231537
0.544,-1.0138111430968157,5906.988087570055
0.548,-0.9666751195537924,5900.833486082525
0.552,-0.8992545000093475,5900.134436946344
0.556,-0.8063806019629058,5899.567845492585
0.56,-0.6766356561017985,5901.703494842764
0.5640000000000001,-0.49529030362833554,5904.35867641588
0.5680000000000001,-0.2532569197507777,5900.80464327563
0.5720000000000001,0.041680705423546946,5902.617638575495
0.5760000000000001,0.35860229661328774,5900.879921150786
0.58,0.648050460925647,5899.854558873559
0.584,0.8571530025386047,5907.082336086264
0.588,0.9484992765562218,5897.100426053966
0.592,0.9141597488833657,5905.044005775219
0.596,0.7793408774775921,5894.390447388341
0.6,0.5950614910200697,5891.50837592212
0.604,0.42297897497768133,5901.173420347911
0.608,0.3173367447747822,5902.787444377955
0.612,0.30946853892112286,5894.070519164156
0.616,0.3995041320492461,5892.393328488829
0.62,0.557780462546642,5902.414845270337
0.624,0.7355197018428079,5903.68173951426
0.628,0.881284988751284,5896.892647794621
0.632,0.9572966030252654,5905.148579474878
0.636,0.9493864550400744,5898.884392181434
0.64,0.8672652859816041,5906.851203969695
0.644,0.7364541918131966,5906.193221851955
0.648,0.5865052818080947,5895.258776441072
0.652,0.44013332868055155,5892.664192576986
0.656,0.3058415421252403,5895.995075254855
0.66,0.17522036125694998,5900.175786185514
0.664,0.02597451903106714,5903.799674381281
0.668,-0.16902328605630434,5904.000904186507
0.672,-0.428835116845274,5905.535612790888
0.676,-0.7524242428682135,5894.701223475834
0.68,-1.1125701703126698,5900.521073256447
0.684,-1.4587098466234936,5900.430971249859
0.6880000000000001,-1.7282787423495467,5896.602449004034
0.6920000000000001,-1.8629857182950855,5898.412937184788
0.6960000000000001,-1.8248689589735407,5905.7115864139005
0.7000000000000001,-1.6074348818001192,5902.106175114756
0.704,-1.2390176612729196,5893.29175341367
0.708,-0.7775294737357511,5901.75426519088
0.712,-0.297620098964111,5898.829613733404
0.716,0.12664481843547257,5908.46158206777
0.72,0.4385571241799549,5902.552832123021
0.724,0.6098490135193031,5902.742194705741
0.728,0.6434058002404325,5890.619467933876
0.732,0.568288779212469,5894.723681193136
0.736,0.42958059779972285,5906.617121869869
0.74,0.2756979681155389,5897.024313849516
0.744,0.14605238468712756,5900.4296887593255
0.748,0.06261548802616786,5894.498511056051
0.752,0.028200132014581256,5889.176864340215
0.756,0.031490590687624845,5900.484147251926
0.76,0.056071734011441575,5901.374560371964
0.764,0.08963998865669524,5895.55997140703
0.768,0.1299137285181729,5897.991532313359
0.772,0.18492367961283357,5899.816051897456
0.776,0.26757386843757014,5897.932792060934
0.78,0.38711246308297065,5895.6025182974445
0.784,0.5416567378975056,5904.826444026386
0.788,0.7152098584638401,5903.535888474332
0.792,0.8806753133799204,5898.9800660559895
0.796,1.0082840849768908,5893.461036130353
0.8,1.0765952298600985,5898.436774176651
0.804,1.08142846505839,5894.577413491594
0.808,1.0384649843709932,5895.312564613569
0.812,0.9782601491272468,5900.256426393781
0.8160000000000001,0.9361242928844041,5898.749269219826
0.8200000000000001,0.941309650051554,5900.630000145893
0.8240000000000001,1.0093104458340885,5893.761533286443
0.8280000000000001,1.1388458743596281,5892.785245564658
0.8320000000000001,1.3128850905553004,5902.112929386121
0.836,1.5018858712595258,5905.468856783295
0.84,1.6676742900635848,5897.711091303858
0.844,1.7679844771812585,5901.785577327987
0.848,1.7632070523186514,5898.112279256053
0.852,1.626330258030456,5900.603836018979
0.856,1.3541312450278078,5904.097280259971
0.86,0.9747529975896372,5906.797167431061
0.864,0.5467143038243015,5898.501500262019
0.868,0.1476775938809227,5898.3643636127135
0.872,-0.14415848896839173,5894.418531399036
0.876,-0.2700812966795784,5902.723010947057
0.88,-0.20603914637607024,5899.983831160209
0.884,0.03132660758374556,5898.150330083959
0.888,0.3891952244978604,5905.290151345636
0.892,0.7919887608264111,5900.266148226081
0.896,1.1594330148032033,5904.371729039269
0.9,1.4240152476509258,5901.758765417855
0.904,1.543833412795395,5898.954573147882
0.908,1.5087129560101884,5901.280388895958
0.912,1.3386344152022231,5900.602168155163
0.916,1.075056665840846,5900.648226164458
0.92,0.7685210691318287,5898.071203456115
0.924,0.46779844045166746,5901.973637085337
0.928,0.21417758444514917,5896.144534894003
0.932,0.040106507304736104,5897.2875107955215
0.936,-0.03201708571611926,5897.441470574836
0.94,0.005625301048743976,5902.471040298272
0.944,0.13953425037192801,5904.5209297659885
0.948,0.3314073460913166,5901.144654454121
0.952,0.5233972055473615,5898.3713722288685
0.956,0.6532087050099619,5897.283115921972
0.96,0.6745199214841373,5902.405700184243
0.964,0.5744945524444593,5902.296684400002
0.968,0.3802078887125413,5901.196218373956
0.972,0.15029086902250155,5899.602459171608
0.976,-0.044868050705161304,5904.145192879147
0.98,-0.14583393278275752,5899.460571675526
0.984,-0.12119027191249408,5895.374081310409
0.988,0.02547153355439176,5886.273798939291
0.992,0.25847154275766576,5897.63514993674
0.996,0.5200617961695848,5901.7203388786575
1.0,0.7440719159253635,5894.833629669535
1.004,0.8700950202084142,5899.771222811512
1.008,0.855832878381547,5903.459748106978
1.012,0.6858730603446478,5910.55298425357
1.016,0.3755258560671077,5893.927619194146
1.02,-0.0318197543906844,5895.561516912958
1.024,-0.4751669663086627,5897.023205105068
1.028,-0.8929634214371426,5904.658565693988
1.032,-1.2407275269764928,5899.73106358821
1.036,-1.5007533218639042,5903.003013956141
1.04,-1.6790117001401568,5893.083261187299
1.044,-1.7918269553028627,5893.607958374133
1.048,-1.8504287720550938,5900.482153490902
1.052,-1.8518639708536637,5904.105500339407
1.056,-1.7805627793169914,5896.312870377191
1.06,-1.6186073770350768,5897.044388449968
1.064,-1.3581407300419073,5902.518902153207
1.068,-1.0092004542614275,5899.511771532817
1.072,-0.5998320253883335,5905.396376788887
1.076,-0.16953887006945914,5897.830212351894
1.08,0.24018217061247146,5897.567153256233
1.084,0.5938524794295078,5888.580143661831
1.088,0.8656514462527648,5904.280129528554
1.092,1.0385581000983795,5898.026248228419
1.096,1.1013351035515364,5893.418033167978
1.1,1.0464617196273802,5901.056632025124
1.104,0.8712029112212074,5906.858029014357
1.108,0.5821881693628023,5900.994161707637
1.112,0.20176716524947708,5895.52196399778
1.116,-0.22730148499984837,5895.044880892562
1.12,-0.6425319614214838,5894.114128765603
1.124,-0.9698838126218453,5900.4699313831525
1.128,-1.1388609786342812,5903.03116146604
1.132,-1.101120700846482,5899.929556244357
1.136,-0.8469806283163807,5897.275839575244
1.14,-0.41367069413294066,5901.115124467973
1.144,0.11900111278900345,5894.662879147738
1.148,0.6458177183362493,5898.940877105594
1.152,1.0613390466271115,5893.761075015969
1.156,1.2848482545171438,5897.386703336047
1.16,1.277499799973441,5894.510125515623
1.164,1.0486179393610642,5901.440633661971
1.168,0.652591100643992,5905.483367741304
1.172,0.17871440206166853,5894.903294719614
1.176,-0.2653226963426528,5896.0685044956845
1.18,-0.5756803018588205,5899.260175571155
1.184,-0.6767160132053998,5893.799522140659
1.188,-0.5404572189470396,5902.214535438342
1.192,-0.1939287044054076,5901.628366277521
1.196,0.28893375381441894,5888.584523509661
1.2,0.8076893951517454,5903.407979612359
1.204,1.2605330894764484,5905.929325839439
1.208,1.56662218145228,5904.389730524701
1.212,1.681016973703686,5911.009078495979
1.216,1.600395814982903,5904.042461711589
1.22,1.359151229835081,5896.352946201193
1.224,1.016917019711388,5899.813043122053
1.228,0.6410688196378691,5897.6829395706045
1.232,0.28990552285809923,5892.553272997036
1.236,0.0015998338711275238,5894.399307247859
1.24,-0.20934625227898135,5896.707716181783
1.244,-0.3495865547899111,5893.692657682526
1.248,-0.4405866762872465,5905.338211873093
1.252,-0.5097976436224928,5897.281512303398
1.256,-0.5803703690395233,5895.109166113215
1.26,-0.6617480657038286,5902.1624178880775
1.264,-0.7450911182131529,5904.544228185289
1.268,-0.8066697431125224,5901.781340585574
1.272,-0.8183091589884764,5902.615305107981
1.276,-0.7597683928893728,5902.845945370662
1.28,-0.6271195754443929,5896.039184724209
1.284,-0.4338943182165221,5896.596048722469
1.288,-0.2057781103072225,5898.360676930801
1.292,0.027289954847705137,5901.689454784849
1.296,0.23737814900816703,5905.253800845957
1.3,0.4013553656093025,5893.004517909132
1.304,0.5013328551181058,5892.384058906875
1.308,0.5250501094008856,5896.796340422341
1.312,0.46775668629361056,5896.942090111015
1.316,0.33566390393257,5891.9514549985
1.32,0.1495850584116585,5892.054509091423
1.324,-0.05385370937654953,5899.699688666414
1.328,-0.2265149819276747,5905.890920740506
1.332,-0.32027417882535525,5897.675236013332
1.336,-0.30379558242568333,5897.330463185134
1.34,-0.1781102656518616,5893.666998816942
1.344,0.01743098929843759,5898.787432935348
1.348,0.21411202497797552,5900.835993327981
1.352,0.3357556557541371,5897.381108335819
1.356,0.32504635125853704,5904.128366711275
1.36,0.16407208621421251,5894.6071329534
1.364,-0.11813315032714258,5900.732499073201
1.368,-0.453597253759697,5892.874746159137
1.372,-0.7567289932060979,5893.674250146507
1.376,-0.9521680396523065,5900.59370408586
1.38,-0.9996725200889133,5901.780423852638
1.384,-0.9075251217988572,5895.8697985851095
1.388,-0.7302260397540365,5890.455650875447
1.392,-0.5516866927697185,5893.336610016319
1.396,-0.45979953372945054,5897.856006427017
1.4,-0.5207417207471545,5897.059699634902
1.404,-0.7608186223378905,5895.397565365135
1.408,-1.1603877264761318,5898.629287165851
1.412,-1.6599452982094811,5908.540523765341
1.416,-2.175007668807955,5903.619260515892
1.42,-2.615482402267944,5897.51466270707
1.424,-2.905866698646656,5896.148722055064
1.428,-3.0025777438023185,5903.144663462191
1.432,-2.903755321584104,5895.333607866715
1.436,-2.6473306292981498,5897.471628830376
1.44,-2.296929430843078,5897.413104050001
1.444,-1.920742158291802,5900.844861706025
1.448,-1.5718009116128033,5897.186980106415
1.452,-1.2768256013717179,5895.566571058551
1.456,-1.036333776440277,5899.650305012227
1.46,-0.8337605169564555,5903.895999400315
1.464,-0.6478891297569963,5889.105413137134
1.468,-0.4626019763667291,5904.997964775143
1.472,-0.2711919966973091,5897.613645452194
1.476,-0.0764990286650106,5897.144755572916
1.48,0.11049079813259129,5902.252383782028
1.484,0.27218282998829596,5900.17098479425
1.488,0.3861068812211543,5903.055725028309
1.492,0.42775908057424394,5891.256994933641
1.496,0.3760284900139151,5902.256907150184
1.5,0.2219994809062877,5885.617476227667
1.504,-0.020873142161964828,5896.450809516211
1.508,-0.31047436355703484,5893.91412777515
1.512,-0.5795797598787312,5898.767849290638
1.516,-0.7517472080227097,5898.182162374391
1.52,-0.765479891479904,5884.551964480876
1.524,-0.5965629280192829,5898.2585580537525
1.528,-0.2677714352051792,5894.17606854506
1.532,0.1584702418665378,5899.431873620999
1.536,0.599609924668272,5900.572277139793
1.54,0.9743948402967759,5896.590648171081
1.544,1.2174769815375772,5890.914367652975
1.548,1.2845743248089707,5892.063467861568
1.552,1.1516836478146681,5902.842575482126
1.556,0.8144204696763078,5903.25252268285
1.56,0.2913183982384799,5898.862615916069
1.564,-0.37046450559324984,5891.815044799531
1.568,-1.0929927079261772,5907.7789073852055
1.572,-1.7745950663445886,5904.235552703534
1.576,-2.3068090753018717,5889.125753762408
1.58,-2.596560090718444,5909.316462376981
1.584,-2.5869360067740783,5903.019470552654
1.588,-2.271228922194142,5900.641285309129
1.592,-1.6970827404927795,5903.079973651037
1.596,-0.9594330797653664,5899.840884754009
1.6,-0.18293873206264186,5893.735897078394
1.604,0.5030572877102515,5890.778703751505
1.608,0.9920315176733628,5901.010364614069
1.612,1.2241073311961068,5901.400008976442
1.616,1.1999095019988641,5904.497828775666
1.62,0.9795563380523109,5895.009523572447
1.624,0.665578656616323,5906.7139829314265
1.628,0.3740517621360855,5903.416562895066
1.632,0.20302056697041623,5894.973275255255
1.636,0.2080927234593775,5902.986166065033
1.64,0.3911299990672472,5903.720042201016
1.644,0.7024133784702741,5894.956985680499
1.648,1.0532460415906606,5896.269261614451
1.652,1.3354981798915484,5906.225691014191
1.656,1.4453812382240074,5892.541647782936
1.66,1.3086303391822698,5902.178698766022
1.664,0.9022329210086921,5896.906762805162
1.668,0.2656993948646709,5903.279370765291
1.672,-0.5037043033677474,5898.441134527047
1.676,-1.271756422179716,5888.90172348085
1.68,-1.8981775181488827,5895.472781002944
1.684,-2.268868524316186,5903.485546291271
1.688,-2.3210952335310897,5891.316070862917
1.692,-2.055694681275638,5907.567308416808
1.696,-1.5342496507402967,5904.4599368581785
1.7,-0.863052229147298,5898.165576422724
1.704,-0.16812402790222833,5890.319690109037
1.708,0.43303799354675676,5897.365578195934
1.712,0.8561847137413173,5895.494689978973
1.716,1.0650500993604315,5895.44155188702
1.72,1.0729783831915733,5897.399464794996
1.724,0.9330599808977007,5896.012901741827
1.728,0.721079516577365,5899.758696060568
1.732,0.515480087468423,5900.030776810497
1.736,0.37814171591521806,5900.389435778152
1.74,0.3404644510538703,5895.365022649915
1.744,0.3992248648035046,5898.058887488448
1.748,0.5236370548942065,5893.657481432321
1.752,0.6698794027647051,5897.698067840283
1.756,0.7962016619505006,5893.580063030542
1.76,0.8734627638112588,5892.816609732023
1.764,0.8901816619684985,5906.309112900095
1.768,0.8532368480331388,5898.5897099509575
1.772,0.7844199373529248,5896.697938074921
1.776,0.7124561726723858,5894.026430063368
1.78,0.6619622825535448,5901.241446949332
1.784,0.6433989758448075,5899.343593600548
1.788,0.6486916698306618,5890.623093869005
1.792,0.6551899634813764,5902.215820257101
1.796,0.6369874180482468,5904.854752340195
1.8,0.5788432753215421,5904.667199783688
1.804,0.48620461736747783,5898.749768185311
1.808,0.3865788508486714,5905.53074454434
1.812,0.3215054226393778,5892.915752536299
1.816,0.33207633989638025,5900.268783626896
1.82,0.44320014285644604,5892.6001983867
1.824,0.6524569220015484,5894.366275387117
1.828,0.92803248215437,5896.410890652343
