时间(s),电压(V),幅值(高频80K)
0.0,-2.7812196248398995,5899.132315147966
0.004,-1.8114595317255728,5897.42834127772
0.008,-0.9276866657509304,5902.330036104198
0.012,-0.1935193083250556,5908.867138524605
0.016,0.35701978240492266,5901.821726702801
0.02,0.7198063694748418,5903.264297834417
0.024,0.9132542845022316,5899.457302275082
0.028,0.9676085874956132,5906.168275502242
0.032,0.9145621138538079,5896.736688282808
0.036,0.7795472223553379,5901.711847409112
0.04,0.5781618679175681,5901.366287109311
0.044,0.31754901235901056,5906.76667970692
0.048,0.0023715608683261514,5904.113159350122
0.052,-0.3568358491074941,5897.772274062184
0.056,-0.7364688213996999,5891.199386341674
0.06,-1.0969601646796145,5903.7860221754645
0.064,-1.3858050765563192,5906.602929271204
0.068,-1.5466913232344592,5903.853325241717
0.072,-1.533622247894531,5894.193057055955
0.076,-1.3266255678674277,5904.177657295432
0.08,-0.9428279220189937,5906.237481930287
0.084,-0.4366351190890102,5902.666962416062
0.088,0.11233544032342022,5901.84752187596
0.092,0.6182634605864156,5900.459257741749
0.096,1.0071700981236409,5906.513940210358
0.1,1.2291643627131892,5899.6740667228505
0.104,1.264577239045521,5900.667256463908
0.108,1.1250476412903856,5902.732835016032
0.112,0.8492651963973943,5899.971183369335
0.116,0.4929505400372567,5902.723818613767
0.12,0.11528081504422272,5905.4676506207325
0.124,-0.23352991878171708,5895.038930273156
0.128,-0.5192414404298755,5898.837709731321
0.132,-0.7238303794021921,5897.684586106786
0.136,-0.8407344032512957,5900.108760921031
0.14,-0.8686979426845878,5900.119512581365
0.144,-0.8078460997098971,5907.828815084259
0.148,-0.6600054001499401,5900.899421809501
0.152,-0.43284465989632004,5903.876047320333
0.156,-0.14523460230952726,5902.85056905001
0.16,0.17000108670523406,5899.433509312772
0.164,0.46958210864473077,5917.098406958957
0.168,0.7106458866979977,5907.246223386185
0.172,0.8655139748779918,5893.908268411431
0.176,0.9331104371739382,5904.570249322464
0.18,0.9402408007831173,5892.848647686754
0.184,0.9306878688651791,5897.037573281477
0.188,0.9460749358827717,5906.757415897205
0.192,1.0063860835184044,5907.592735826834
0.196,1.0984582664725537,5907.462817557825
0.2,1.1779524108680341,5892.575460049629
0.204,1.1851589488780057,5898.597728996858
0.208,1.0688119265691318,5904.650879911001
0.212,0.8076174033654733,5892.135226784917
0.216,0.41998787155241313,5896.061628409672
0.22,-0.04117126048525555,5902.203642394323
0.224,-0.5047908818936365,5894.81117044114
0.228,-0.9023278144774367,5897.543641864504
0.232,-1.1862831822958548,5904.262316082855
0.236,-1.34075363110041,5896.452114567936
0.24,-1.3803535935296931,5903.526711916249
0.244,-1.338704677513473,5900.482528739079
0.248,-1.2526648067258332,5899.4143892435895
0.252,-1.1496505922033398,5906.138779153069
0.256,-1.0423190702941985,5901.877678245362
0.26,-0.9305884167877063,5909.328867630423
0.264,-0.8084766214485283,5896.014762585511
0.268,-0.672627619417921,5886.630223397538
0.272,-0.5290617316752557,5907.246702223393
0.276,-0.3947030786911409,5895.940635759575
0.28,-0.2923505791935242,5898.563592143772
0.284,-0.2415842003717291,5890.88770828583
0.288,-0.2503724304089151,5898.2467093129935
0.292,-0.31091820206492005,5907.308203589704
0.296,-0.40029326958537037,5903.734679887841
0.3,-0.4845021910348417,5899.277111661504
0.304,-0.5246524448126146,5901.197267690518
0.308,-0.48475258037221974,5902.432184636444
0.312,-0.3407974522724612,5903.396815990755
0.316,-0.08962993703962051,5898.224858889427
0.32,0.2454942564485751,5895.623220919801
0.324,0.6157995659212662,5901.909425979029
0.328,0.9553192424094498,5907.699474929982
0.332,1.1947977696037517,5905.218932827612
0.336,1.2778521594132726,5900.066672670245
0.34,1.1758223367802638,5896.538278533622
0.344,0.8974660586430141,5901.135779949886
0.348,0.48982324522393056,5905.960158065401
0.352,0.02856325990651088,5901.858378212574
0.356,-0.40017195777460746,5902.190332445457
0.36,-0.7207084115413264,5897.555868018193
0.364,-0.884330298963542,5898.389895824818
0.368,-0.8763051759389263,5898.290432017248
0.372,-0.7132774612829529,5901.410557756064
0.376,-0.4345695395081658,5894.44809792283
0.38,-0.09117089110342934,5899.179119249592
0.384,0.26515695246992316,5897.501595053858
0.388,0.5906180794416414,5908.741586585963
0.392,0.8540452731051109,5897.743787966455
0.396,1.0371725873835407,5899.863203706961
0.4,1.1324059123175338,5896.663237862052
0.404,1.1407354995650323,5900.689125389815
0.408,1.071394526514486,5899.038738209156
0.412,0.942915249783872,5900.392989331112
0.416,0.7833820012776562,5899.21131329573
0.42,0.6273695805375777,5902.972870834625
0.424,0.5090752037081097,5898.66523470959
0.428,0.45392310515987394,5897.228559703765
0.432,0.4720246044369364,5899.971848030064
0.436,0.5559614014927338,5892.039736844404
0.44,0.6837257499138649,5914.59179355462
0.444,0.825836387320512,5909.860459269378
0.448,0.9536481663170047,5899.697434126887
0.452,1.0450858051706045,5888.914526171398
0.456,1.0860462556120452,5897.494164447197
0.46,1.0691713205463675,5897.374897645046
0.464,0.9932298197533805,5904.0131500863645
0.468,0.8646393357779538,5901.770867524072
0.472,0.6995428043348562,5899.784161492868
0.476,0.5232099383900631,5897.791435857603
0.48,0.36500435588009084,5903.645696724633
0.484,0.25063167227155975,5899.12659577734
0.488,0.19550900562608187,5914.032365382603
0.492,0.2018227858817735,5899.50418756419
0.496,0.25897582574816363,5906.260584301214
0.5,0.34597324825310694,5910.019167041504
0.504,0.43539084008091433,5895.882525745481
0.508,0.4993413557310727,5897.339764379465
0.512,0.5166480577175039,5901.275007438462
0.516,0.4787145871777641,5892.779804415665
0.52,0.391329296969993,5898.521285275961
0.524,0.2710700779052578,5887.383310402296
0.528,0.137434593847781,5900.876664957764
0.532,0.004289618866312116,5887.138006238229
0.536,-0.12497544589573313,5892.726326323924
0.54,-0.25590690892120177,5897.416947313193
0.544,-0.3953965787447887,5907.747127817098
0.548,-0.5411016976205771,5904.165034904167
0.552,-0.6726542024835996,5897.964800308348
0.556,-0.7497823921444035,5907.538637017302
0.56,-0.7206226101772254,5902.699110868739
0.5640000000000001,-0.5392057807816222,5905.50431175935
0.5680000000000001,-0.18623113490509668,5901.57071919876
0.5720000000000001,0.31514368231315193,5908.505066047672
0.5760000000000001,0.8953988585105352,5895.590493991896
0.58,1.449673632101957,5895.176908924896
0.584,1.8619644188971056,5894.064970921316
0.588,2.036008819713326,5893.707855655682
0.592,1.923135210807413,5895.281036242702
0.596,1.537523975738481,5892.020931178927
0.6,0.9534858071046994,5903.055593438571
0.604,0.28592012735350664,5904.664066370063
0.608,-0.338949570689489,5905.342392644775
0.612,-0.8129204498089566,5899.997269847371
0.616,-1.067357399369877,5902.35790452036
0.62,-1.0835696187351551,5903.3097949763605
0.624,-0.8927583912883539,5902.372999143538
0.628,-0.5678168925293309,5902.695716339984
0.632,-0.208668719555545,5909.784442319404
0.636,0.07786373725740602,5908.4295303706185
0.64,0.20168822489428892,5904.822762611377
0.644,0.11173939868627701,5895.691761038988
0.648,-0.19023620195462917,5902.191959909327
0.652,-0.6501768307125562,5900.109073670576
0.656,-1.177018508289796,5903.2821348790985
0.66,-1.6677896858777552,5902.98405545803
0.664,-2.0344103505784465,5896.828556257884
0.668,-2.2238272474175793,5902.93928819641
0.672,-2.225221603797141,5900.032336468663
0.676,-2.0626441825191915,5896.122231695594
0.68,-1.7776217063192632,5897.791741503559
0.684,-1.411129053983921,5907.797648995444
0.6880000000000001,-0.9943164596723524,5896.92809326607
0.6920000000000001,-0.5514170964538668,5904.771653999776
0.6960000000000001,-0.11003503973653796,5894.920049785349
0.7000000000000001,0.29026940240553606,5907.188929639403
0.704,0.5979243406723186,5908.597629529418
0.708,0.7590127448985543,5899.124258389706
0.712,0.7332253048147016,5897.6657384365335
0.716,0.510540295419471,5901.994528477992
0.72,0.12279306841636511,5907.892944186253
0.724,-0.35480633068761397,5898.207646590766
0.728,-0.815050049263705,5900.104020855971
0.732,-1.1421390064097323,5905.643039121354
0.736,-1.241448068832364,5899.442437000788
0.74,-1.066328067677157,5901.962535947931
0.744,-0.6325808323451562,5897.80594215277
0.748,-0.015319545100420112,5912.070213889442
0.752,0.6706550559631582,5896.93874864103
0.756,1.3000344633294778,5900.107401889848
0.76,1.7661126408849728,5896.837604391219
0.764,2.001358673194326,5903.808480017648
0.768,1.9851009326721902,5903.265840258807
0.772,1.7391633432196734,5900.033558329915
0.776,1.3163163055635283,5904.698006448991
0.78,0.7875235396140573,5898.163370971768
0.784,0.2317869368711426,5894.84062157253
0.788,-0.27162674361681466,5901.488526904552
0.792,-0.6516029076277424,5903.86374435312
0.796,-0.8563051769512995,5903.74354174119
0.8,-0.8649395225598162,5907.928259683278
0.804,-0.6944178156089245,5900.885928366734
0.808,-0.3955639551945496,5910.124001183006
0.812,-0.038408839789547046,5901.032857128505
0.8160000000000001,0.3077913842054844,5897.0789803327325
0.8200000000000001,0.5913842433097382,5902.328195626763
0.8240000000000001,0.7857037851954722,5907.43698394164
0.8280000000000001,0.8858900442076217,5902.513543626758
0.8320000000000001,0.8991115873091144,5898.71732841569
0.836,0.834422137156362,5906.978030844355
0.84,0.696880715755271,5900.997544192066
0.844,0.48691361712861414,5902.695188448975
0.848,0.20343996004987136,5902.358244079424
0.852,-0.15080178281113107,5898.839549387451
0.856,-0.5629500838510988,5895.502912108713
0.86,-1.0049862728721082,5902.198995993888
0.864,-1.4332009597216488,5916.519876664296
0.868,-1.793985761429759,5898.764942824637
0.872,-2.034670438452405,5902.626271541742
0.876,-2.1161287459430738,5907.680530737031
0.88,-2.023851954718121,5904.291746914497
0.884,-1.774635967233041,5891.192007948632
0.888,-1.4162992959939324,5898.559469037562
0.892,-1.0191713851566826,5908.130255992343
0.896,-0.6609881610437622,5897.119289330981
0.9,-0.4095505160862202,5902.383595737411
0.904,-0.3080179859496695,5901.281628762674
0.908,-0.3662843987976653,5901.000034224108
0.912,-0.560256932199675,5899.750229282312
0.916,-0.8394444856323987,5896.5489862072845
0.92,-1.1411659395115439,5900.387502548052
0.924,-1.4072487519540215,5909.400060633564
0.928,-1.597990347228249,5896.18006295116
0.932,-1.6992800709177793,5894.248623727622
0.936,-1.7214545287658207,5898.518512513186
0.94,-1.6913121328150882,5904.659580557691
0.944,-1.640627837528936,5905.683245784646
0.948,-1.5951573918924078,5905.569302578525
0.952,-1.5676947388530786,5897.724596800444
0.956,-1.5572963931976946,5898.556803457452
0.96,-1.5542957845835328,5894.645909531723
0.964,-1.5479894762315496,5894.480187942971
0.968,-1.5325716159547886,5896.020903793426
0.972,-1.5081766363179037,5898.806805583642
0.976,-1.4771823283521224,5898.655766086412
0.98,-1.4390827701835498,5903.7222496195545
0.984,-1.3878090512192887,5900.819955411462
0.988,-1.3128915380889559,5909.537862705597
0.992,-1.2029131917888367,5896.644757251254
0.996,-1.0490398108899586,5909.373792912144
1.0,-0.8476997149059267,5903.301299571073
1.004,-0.6026229007915844,5906.538466329249
1.008,-0.32643485910086717,5898.052078523521
1.012,-0.04116697945830237,5901.195892739629
1.016,0.22376485759326561,5904.259413670949
1.02,0.43725055221433934,5897.991460902405
1.024,0.5749741305677296,5911.710940461464
1.028,0.6272314226451391,5906.860812752133
1.032,0.6018217596574001,5899.174619942836
1.036,0.5201801626411211,5900.224044678586
1.04,0.4091007529137904,5898.174684601311
1.044,0.2930090466597479,5905.8253153913965
1.048,0.1906794402710664,5901.900091021292
1.052,0.11683084468913113,5898.844312451938
1.056,0.08618505988469019,5897.548899641886
1.06,0.11665073397596801,5908.37234028435
1.064,0.22845761185631078,5896.38602980566
1.068,0.4372053068334079,5906.317304126959
1.072,0.742148383745428,5905.454056029815
1.076,1.1156572827674942,5896.309671705909
1.08,1.5015059758212808,5906.73851599312
1.084,1.8258911386874737,5912.728701240624
1.088,2.0182491742700175,5904.318606432864
1.092,2.0334774393642334,5900.735857648341
1.096,1.8660843963245721,5905.63624292041
1.1,1.5506006210283845,5900.571519824918
1.104,1.1490506956300541,5902.644722920903
1.108,0.7317556019971915,5900.912912560491
1.112,0.35981764203351246,5898.532136175804
1.116,0.07573777084825307,5899.846993773206
1.12,-0.09663046831360539,5906.197753693137
1.124,-0.14721762389093537,5901.393415206277
1.128,-0.07615366104184451,5898.589998353351
1.132,0.10550709359959738,5899.376191902082
1.136,0.37240008189502816,5899.514421121431
1.14,0.6830405332672155,5899.981213829792
1.144,0.9833971317769182,5904.424987174086
1.148,1.2168778104545843,5887.346997264577
1.152,1.3379671278479472,5898.837358946451
1.156,1.3241315888096479,5908.604093578409
1.16,1.181033066946095,5892.232875262641
1.164,0.9393708068720678,5898.722685234952
1.168,0.6454220513674166,5909.174984244861
1.172,0.34907810627870883,5898.593063260774
1.176,0.09259823485592032,5899.883997270546
1.18,-0.09791554826391773,5900.468499828418
1.184,-0.21693556715269163,5896.497774525765
1.188,-0.27869252733102245,5894.451960557179
1.192,-0.3107698105980997,5904.4812197232895
1.196,-0.34350116944683756,5909.153944186372
1.2,-0.39875215563067934,5901.319265462829
1.204,-0.4825602810294433,5899.435448821135
1.208,-0.5843160246757287,5907.852634230704
1.212,-0.6815562057039122,5895.283233733218
1.216,-0.746662023543319,5898.139420781825
1.22,-0.7519501075509564,5901.609515907368
1.224,-0.672640935437236,5899.451072510672
1.228,-0.4902334720826346,5901.878414853673
1.232,-0.198693765748735,5911.1426408279385
1.236,0.18781804344076478,5908.687130110039
1.24,0.6309134070247971,5898.746356307484
1.244,1.0729754250248091,5902.830840337439
1.248,1.4516802047463906,5901.916253834467
1.252,1.7179140936686954,5901.604794111849
1.256,1.8478994836079319,5905.714973835856
1.26,1.8438566195906207,5899.159760567134
1.264,1.7252692684450526,5911.2792399937925
1.268,1.518683147649494,5899.523694615625
1.272,1.2532904119087864,5908.643296285173
1.276,0.9631389187898954,5895.413607595101
1.28,0.6904283891583297,5893.804109534313
1.284,0.4835664123440453,5896.916156654377
1.288,0.38829286372134475,5900.76930644968
1.292,0.43533129202141474,5897.670051479983
1.296,0.6300332900302338,5900.954014952061
1.3,0.9484085652876539,5902.192678743301
1.304,1.3410834111698489,5894.441809133043
1.308,1.7433749300002692,5904.261563589814
1.312,2.087713483099568,5905.085489799417
1.316,2.315196662427382,5911.908598405326
1.32,2.3846688051705724,5902.159735859486
1.324,2.2784363057704997,5891.981923241056
1.328,2.0037720591855837,5906.522692597653
1.332,1.5899987339265218,5907.901954644918
1.336,1.082176790164671,5906.529772943421
1.34,0.5332489238088739,5901.94705621925
1.344,-0.0036269452580090606,5908.453106155944
1.348,-0.48158160409161466,5901.567488811425
1.352,-0.86513178347334,5894.017893482271
1.356,-1.1337194477819545,5903.698285688178
1.36,-1.2830446636503483,5903.504198132954
1.364,-1.3234942294522165,5907.001814163205
1.368,-1.2761985098216697,5907.648626419157
1.372,-1.1688688219924754,5902.524995283799
1.376,-1.0335450960928148,5912.790145129801
1.38,-0.9059813921963025,5901.0075572801725
1.384,-0.8236550877775646,5894.967712653885
1.388,-0.8193382764405922,5906.571357387671
1.392,-0.910492290953297,5900.763200786315
1.396,-1.0889866698015311,5910.925913464054
1.4,-1.3174863622327222,5908.792868201516
1.404,-1.536627298092453,5896.487281974823
1.408,-1.682002574454584,5900.576776966117
1.412,-1.7051166303556302,5898.712568498773
1.416,-1.5903589671790324,5896.166381058477
1.42,-1.3614617857885412,5900.425229829585
1.424,-1.0751601701720448,5898.855614943676
1.428,-0.8047910665547392,5898.582656383251
1.432,-0.6197887691892636,5898.288508481836
1.436,-0.5674475397328956,5913.357385066816
1.44,-0.661624564862997,5903.413146735827
1.444,-0.8802899769004091,5903.521806674195
1.448,-1.1711677225913946,5911.662725735871
1.452,-1.4633162994141515,5903.301876627768
1.456,-1.6823437510266788,5898.990969368233
1.46,-1.7668757764604666,5898.309007735733
1.464,-1.6832169372933687,5900.339691100139
1.468,-1.4344227835423844,5904.51981177171
1.472,-1.060421923146854,5897.66374344069
1.476,-0.6280812110179297,5897.357161719589
1.48,-0.21357520346002157,5911.321211831838
1.484,0.11747861941358917,5901.184051886858
1.488,0.32555649047667157,5901.8271297528045
1.492,0.4037120240962879,5903.057810428082
1.496,0.3741249377216242,5898.205215717239
1.5,0.2770094326315474,5902.24832773526
1.504,0.15544321600599104,5901.954906339064
1.508,0.040457353347977426,5909.25837505569
1.512,-0.058484507236681055,5899.128296471647
1.516,-0.1536223666725484,5909.574240168588
1.52,-0.26960027692004673,5900.176922680865
1.524,-0.42936592987986116,5906.811491434828
1.528,-0.6422039256932125,5903.83473750245
1.532,-0.8990452213917131,5901.037147227714
1.536,-1.175577131463221,5899.403137765118
1.54,-1.4396272064783617,5903.374223782563
1.544,-1.6581950386481863,5897.372419666491
1.548,-1.8012055952148067,5905.933320988291
1.552,-1.8420988614121676,5896.844242893786
1.556,-1.7580048809512627,5910.429527522825
1.56,-1.532740947351772,5902.8852338081815
1.564,-1.1635977136054638,5900.555437504666
1.568,-0.6692761157672314,5897.180449461288
1.572,-0.0940017451269114,5906.542690245981
1.576,0.49622094948502465,5915.66164362541
1.58,1.025156063143322,5908.864508389916
1.584,1.4211517506274292,5899.961389386013
1.588,1.6296044140980641,5900.117966838964
1.592,1.620724785444891,5896.005059391124
1.596,1.3942605648482218,5899.297079104834
1.6,0.9830598787846306,5915.493565630275
1.604,0.45386794242061523,5903.9403046200005
1.608,-0.09898072458279167,5902.176120760427
1.612,-0.5696826832024886,5910.473130610771
1.616,-0.8644108537528727,5900.111461180267
1.62,-0.924702658026134,5902.510198352197
1.624,-0.7423860523277805,5906.152971200876
1.628,-0.3611981963530478,5896.69993673543
1.632,0.134141549943324,5904.873267446993
1.636,0.636729569169922,5899.896592866752
1.64,1.0391040156956284,5900.027809709539
1.644,1.2543353331746367,5911.204344718185
1.648,1.2340781315105391,5902.548678088801
1.652,0.9801731627378873,5905.366980882517
1.656,0.5455148020381593,5896.602844207689
1.66,0.02167416976512826,5908.739101963017
1.664,-0.484249262331807,5910.328397201896
1.668,-0.875894335107265,5905.10421328936
1.672,-1.0881751954196308,5906.6399567298695
1.676,-1.0968531533727333,5909.284306879678
1.68,-0.9170735433914609,5902.36259049374
1.684,-0.5941596632606431,5903.132127160107
1.688,-0.19083725243003632,5905.253988341613
1.692,0.22566579944556614,5895.51338846519
1.696,0.5946377211423466,5907.296557908815
1.7,0.870305803867741,5901.6123095364965
1.704,1.0275552251827438,5887.511926557455
1.708,1.0647248492243817,5902.70277782422
1.712,1.0026327231776484,5904.014218217924
1.716,0.8787046118569493,5901.568854101827
1.72,0.7365407520010024,5893.45762802407
1.724,0.6141306145418985,5897.542684901708
1.728,0.5354402914558161,5902.7741758133225
1.732,0.5082928937675057,5899.424315857419
1.736,0.5278715151239746,5909.503573684635
1.74,0.5827395484220932,5899.354841651999
1.744,0.6599094653275401,5899.291659603566
1.748,0.7464414489526413,5900.457960608895
1.752,0.8271267049560211,5900.4537771885325
1.756,0.8807927770911806,5902.0372867847655
1.76,0.8797774814186422,5895.702467361364
1.764,0.7959652884586361,5900.785803645181
1.768,0.6126021148256715,5902.290556056175
1.772,0.33661011892262305,5901.405095273821
1.776,0.0043484414536957925,5906.815878064492
1.78,-0.32422513167993894,5903.346472114325
1.784,-0.5831711701553453,5909.920565888424
1.788,-0.7241751672855796,5897.1975085418335
1.792,-0.7359641207621234,5897.564722117622
1.796,-0.649765279076471,5902.413623513673
1.8,-0.5272538875028963,5909.907217964459
1.804,-0.4362707166472783,5901.620011882796
1.808,-0.4255093207922289,5907.695865436459
1.812,-0.5087756632933688,5913.397362125887
1.816,-0.6635820674523535,5901.319069188972
1.82,-0.8423642626692889,5901.282659135703
1.824,-0.9908196407715689,5901.126928496374
