时间(s),电压(V),幅值(高频80K)
0.0,-0.7810735428152892,5905.580747850376
0.004,-0.8624233387257488,5891.738501113456
0.008,-0.978895604428091,5899.261963535711
0.012,-1.1426380223957127,5900.075188580843
0.016,-1.3452566946334095,5889.814869487994
0.02,-1.5617484034307099,5904.056255321549
0.024,-1.7585668054498618,5905.422346078788
0.028,-1.9000280289092732,5896.165818132739
0.032,-1.9513850106300286,5891.686938137119
0.036,-1.8808234080786752,5894.177619550472
0.04,-1.663308736154658,5898.944485725135
0.044,-1.2874189412935468,5893.425744333778
0.048,-0.764099009118257,5899.494080916313
0.052,-0.13432581824710454,5905.869697507045
0.056,0.5290545157564861,5897.133567376946
0.06,1.1299880575274381,5897.724936499657
0.064,1.5691244196120304,5895.89600205397
0.068,1.7693065250596118,5904.848915974562
0.072,1.696963619782271,5899.623160859293
0.076,1.3714049122689307,5908.297964854815
0.08,0.8595159973701783,5904.857182672575
0.084,0.2586305709042685,5892.453731098599
0.088,-0.3266688670921109,5897.245812682729
0.092,-0.80708224456846,5900.706799742725
0.096,-1.1242571401019175,5895.066317333372
0.1,-1.2558025234954766,5899.609133627429
0.104,-1.210112610414159,5899.021146211586
0.108,-1.0157904312906567,5899.286238193069
0.112,-0.7120222197032698,5895.61291978703
0.116,-0.34351632406926197,5896.46246902358
0.12,0.04137472787628859,5895.63743385488
0.124,0.39342389446470966,5895.178301949505
0.128,0.6684038803118175,5897.108349503036
0.132,0.8345735239785602,5899.808080052991
0.136,0.8787792882756793,5893.71009430493
0.14,0.8094633345135209,5900.734303592634
0.144,0.6563568695476213,5892.582450483402
0.148,0.46646283090546004,5900.962615565173
0.152,0.2952254329285547,5892.050671711212
0.156,0.19285391744167343,5903.260001753712
0.16,0.1888244743869036,5903.314065799324
0.164,0.2802387346029152,5897.220505671675
0.168,0.42958548109326794,5900.988454405272
0.172,0.5743273796810906,5901.589245406805
0.176,0.6462846092396601,5909.524755595285
0.18,0.5950087309106886,5901.800681680775
0.184,0.40744650374698227,5902.550820366454
0.188,0.1165499638857101,5895.919498339224
0.192,-0.20568379435574316,5906.375958234959
0.196,-0.4698616232087748,5904.200881511556
0.2,-0.5981947537332413,5897.539512784455
0.204,-0.5496886645880795,5902.420687438748
0.208,-0.33216670060612713,5899.242167873661
0.212,0.0019252920046160327,5901.596180189128
0.216,0.3725284128565591,5897.744542203058
0.22,0.6949941305088564,5905.514229578792
0.224,0.9020589084528551,5892.895152503371
0.228,0.9592103490499235,5900.378953292206
0.232,0.8701663885648492,5896.597404262418
0.236,0.6719389061157423,5903.601686496582
0.24,0.42200170353768296,5899.667689042853
0.244,0.18243013997814964,5893.253904856807
0.248,0.006000084039961629,5899.052989918331
0.252,-0.07286889021248613,5898.92708164323
0.256,-0.04191063941328296,5904.554637480709
0.26,0.08937957787724972,5904.583626080278
0.264,0.29262551631931943,5903.873952696749
0.268,0.5243680165417408,5900.433978031311
0.272,0.7305099986999238,5901.529917206504
0.276,0.852940598734377,5893.529207704657
0.28,0.8400738666645938,5888.102333067581
0.284,0.6605691320805133,5903.985266434786
0.288,0.3159750000865441,5894.48976727544
0.292,-0.15397489285101357,5900.572577435974
0.296,-0.6784759198199597,5905.62170132981
0.3,-1.1752288179102222,5895.3126363231895
0.304,-1.5755570102025944,5899.984144776903
0.308,-1.8438377759654967,5902.332053246354
0.312,-1.9820743541425587,5906.269462403891
0.316,-2.0178948625429984,5898.383963362346
0.32,-1.9827012208928196,5898.034558503937
0.324,-1.891587562317574,5894.633877860215
0.328,-1.7353512398128172,5898.220358789989
0.332,-1.4880054398582903,5903.981346776699
0.336,-1.1248896649634594,5902.064448844212
0.34,-0.6417660177071577,5889.720745791152
0.344,-0.06601148780557967,5902.081414726333
0.348,0.5445369212152804,5898.132477528737
0.352,1.1140680433123542,5898.692542593827
0.356,1.567437405911822,5900.293890751077
0.36,1.848398676224582,5901.627024233305
0.364,1.9319361527337653,5899.018224454291
0.368,1.8273209000798432,5901.2082832119
0.372,1.571225730004751,5894.527414507931
0.376,1.21377280447468,5899.241909334813
0.38,0.8035293067662429,5901.871087615582
0.384,0.3777704294588764,5897.643398739013
0.388,-0.03918230920308873,5894.113235574031
0.392,-0.4317924670618228,5895.114823384108
0.396,-0.7882409502400531,5895.425250865743
0.4,-1.097944058324196,5906.455958703987
0.404,-1.3516052255077675,5899.2998208877625
0.408,-1.5416390275726182,5888.605511373745
0.412,-1.6616155249497366,5896.793191389089
0.416,-1.705570682957319,5893.835011076993
0.42,-1.6690711276249315,5894.8384339859895
0.424,-1.5526771311640442,5906.344703164009
0.428,-1.3660241700273577,5901.614171675675
0.432,-1.1295087319040262,5902.562813454226
0.436,-0.8717980114432973,5899.921886843367
0.44,-0.6238213780299827,5899.087436439012
0.444,-0.41142917740438695,5901.929089537606
0.448,-0.24903587751883322,5897.794654386168
0.452,-0.13613177513933994,5903.478974209581
0.456,-0.05793260076113469,5899.153242887443
0.46,0.009575220333837424,5891.903924643123
0.464,0.09122337056283143,5892.479647402312
0.468,0.2030455814391379,5904.498689135527
0.472,0.34444519710937277,5901.951888293764
0.476,0.49547688633946363,5891.793801523691
0.48,0.6215664956119888,5903.603332525006
0.484,0.6849175949850389,5897.443182970023
0.488,0.6580408628563151,5894.70107688085
0.492,0.5335642595953376,5905.725119072496
0.496,0.3273428227708223,5894.348530230486
0.5,0.07609494361165986,5903.0520165449525
0.504,-0.16780165172465572,5889.546844231294
0.508,-0.34358732748556964,5895.496166561886
0.512,-0.39274452178161484,5906.949847827471
0.516,-0.27375251202227313,5894.675255788784
0.52,0.021343721591698263,5902.620770332286
0.524,0.45438364208296866,5905.129971236664
0.528,0.9394709059750689,5897.665853534555
0.532,1.3565077146417535,5903.327481250476
0.536,1.5786962432485163,5905.078111836127
0.54,1.5070837113944577,5896.374535012428
0.544,1.101705324576618,5900.493445906004
0.548,0.39906022220489545,5895.887862551304
0.552,-0.49063382727748683,5897.110305474292
0.556,-1.406852563421158,5887.840480416106
0.56,-2.1765901968881103,5903.687111472862
0.5640000000000001,-2.65586792690735,5904.837608763121
0.5680000000000001,-2.7640159954753725,5902.711499559064
0.5720000000000001,-2.502865888232697,5899.038032347583
0.5760000000000001,-1.9565722305663762,5904.881924272962
0.58,-1.2713312236736865,5889.237077723286
0.584,-0.6190535674320077,5900.597050030406
0.588,-0.15444110518707216,5896.848829518135
0.592,0.022268496584090348,5903.761462453072
0.596,-0.11343804182902308,5899.792262344366
0.6,-0.5097234789386829,5889.63573807616
0.604,-1.0563688985354769,5896.671347354164
0.608,-1.6141514298773012,5893.445839511995
0.612,-2.0465918183693925,5898.714399200064
0.616,-2.246934322786659,5896.716863225541
0.62,-2.156931786271801,5900.795578713541
0.624,-1.7763939567680933,5897.694090366903
0.628,-1.1626661337798794,5891.678064507012
0.632,-0.41922151687286596,5907.117456267101
0.636,0.32592970867630905,5898.286735741565
0.64,0.9484050171769419,5906.2588428230565
0.644,1.355393122951262,5902.893484905631
0.648,1.5050653796751357,5900.2775834691765
0.652,1.411247420331898,5897.755853482525
0.656,1.132472190109769,5896.014546569931
0.66,0.7502819181122278,5893.705023370203
0.664,0.3451838993798001,5898.561989772507
0.668,-0.021145108338020115,5899.497046738076
0.672,-0.3121450139413927,5901.447515688735
0.676,-0.5117863496567007,5897.335489131758
0.68,-0.6151675900332272,5899.832352061602
0.684,-0.6214534397263485,5906.286946121446
0.6880000000000001,-0.5324751115158738,5889.860206288557
0.6920000000000001,-0.35537902268469646,5895.97220280932
0.6960000000000001,-0.10567811246184453,5900.656304693726
0.7000000000000001,0.19177813868081434,5896.235935282617
0.704,0.5043488899216988,5887.802945030629
0.708,0.7951011430305183,5892.957633489484
0.712,1.0279169243675297,5895.692890022786
0.716,1.174011510041,5897.245613921608
0.72,1.2187134442704142,5897.260260906093
0.724,1.1659878763409692,5897.1174097886405
0.728,1.0381510894433676,5893.051718644635
0.732,0.8701334629355874,5904.179261450551
0.736,0.7001116703244088,5897.009385390731
0.74,0.5597093553774436,5902.049922039107
0.744,0.4669725293320781,5889.196264865915
0.748,0.4243320766817683,5903.586863810604
0.752,0.42200743044089534,5904.331184960731
0.756,0.44533650876827574,5893.0025425823205
0.76,0.48302775022723243,5908.017980879644
0.764,0.532701945093461,5899.000694577934
0.768,0.600926503924204,5890.589809492273
0.772,0.6976007912129509,5889.159373848637
0.776,0.8276708356498926,5904.842507267636
0.78,0.9844918189754701,5903.8180704964125
0.784,1.148008400982498,5892.316285721389
0.788,1.2884329299167854,5896.690717334219
0.792,1.3738290136851343,5906.180970521085
0.796,1.3789759757329627,5900.635154257711
0.8,1.2931324122210421,5898.450088285435
0.804,1.1249127058269281,5910.413953261267
0.808,0.9027080188200557,5891.001177294484
0.812,0.6694463354381767,5891.466164420368
0.8160000000000001,0.4719989668788193,5892.038019952046
0.8200000000000001,0.3479816515172621,5894.334588855852
0.8240000000000001,0.31444297822152983,5894.647813020561
0.8280000000000001,0.362524498229837,5898.868676964465
0.8320000000000001,0.4597448804657065,5906.81516783085
0.836,0.5588036744109333,5894.697337080473
0.84,0.6103267851277094,5902.172834062377
0.844,0.5765930329750207,5887.252793935177
0.848,0.44296667844210197,5902.7802178963575
0.852,0.22387075631808204,5907.415998106857
0.856,-0.038504948403925494,5909.643584958212
0.86,-0.28282242035205524,5903.543150635631
0.864,-0.44347575780038256,5901.429135556423
0.868,-0.4691671805000875,5892.530423614053
0.872,-0.3400484339094376,5898.527072862955
0.876,-0.07687678553164672,5895.54626960344
0.88,0.2620609008760571,5897.825538546493
0.884,0.5954909548680057,5893.629617279484
0.888,0.8403903169274167,5892.52521273794
0.892,0.9339228778878883,5902.179682673922
0.896,0.8502954300804065,5903.584526014556
0.9,0.6075075753581801,5897.219310117952
0.904,0.2612420645390987,5890.281220213001
0.908,-0.11267142619695188,5887.55671720229
0.912,-0.44115539222206906,5908.604727049098
0.916,-0.6735094002431743,5907.479307738769
0.92,-0.7906346707036801,5899.3405342556025
0.924,-0.8017384560416493,5890.533159857964
0.928,-0.7318362418403462,5901.226609604383
0.932,-0.6066922976407677,5906.340131585332
0.936,-0.4420840985141107,5900.670645237337
0.94,-0.241285973646738,5900.846946630582
0.944,6.689385480725235e-05,5895.838579969698
0.948,0.2857601566564037,5902.156748399064
0.952,0.6110703225486702,5898.5980711522025
0.956,0.9565674261749374,5888.278023606837
0.96,1.284513092285803,5901.445085775389
0.964,1.540317474212195,5894.954682530642
0.968,1.6621151534840644,5899.328612585727
0.972,1.5984722056188507,5902.668652768246
0.976,1.3289771702946862,5898.788545217398
0.98,0.8788314084377098,5893.400552335535
0.984,0.3192882203322342,5900.949113346097
0.988,-0.2487608218481293,5904.06684731855
0.992,-0.7228461430075844,5897.647324461446
0.996,-1.0274553891033982,5894.7402927931225
1.0,-1.1315881191309531,5897.859993599828
1.004,-1.0493415132410888,5900.897099866229
1.008,-0.8255566135106587,5893.204689059298
1.012,-0.5149838453788199,5890.784719378355
1.016,-0.16505370028552724,5896.896943929683
1.02,0.19127124492278055,5902.066926245605
1.024,0.5321755816700978,5893.961914307658
1.028,0.8378174117061096,5891.809472419943
1.032,1.0817025405351197,5895.76715922601
1.036,1.227489646096085,5903.221656628843
1.04,1.2332171884711556,5899.675055624168
1.044,1.0626652237433445,5896.698390908528
1.048,0.7014269349840457,5901.530079043001
1.052,0.17199976381131693,5897.307892308446
1.056,-0.46027893002848236,5901.013766419234
1.06,-1.0964027811229675,5898.714730248198
1.064,-1.6268318871647756,5905.436995394296
1.068,-1.9604562937778518,5905.198848861631
1.072,-2.0488848726554574,5895.35236867642
1.076,-1.897972129986609,5901.016891889909
1.08,-1.5634782941629202,5891.016962510266
1.084,-1.1332219187473866,5894.35257903874
1.088,-0.7022620032372667,5892.832602701751
1.092,-0.3493372780159538,5897.030678008016
1.096,-0.12171025628606216,5898.930517951103
1.1,-0.03208573250613535,5892.402641489961
1.104,-0.06647549483572429,5900.526491250283
1.108,-0.1976079469442745,5891.636330389404
1.112,-0.396707413304901,5906.491522523963
1.116,-0.6383448221530478,5893.46136106931
1.12,-0.8978131821953774,5889.775718357374
1.124,-1.145179411889923,5890.527994312352
1.128,-1.3418964785892202,5897.913990034577
1.132,-1.444089802201003,5900.200473971074
1.136,-1.4126668880274276,5895.097070513265
1.14,-1.2260895938008844,5893.825883553646
1.144,-0.88941298831842,5899.766087366658
1.148,-0.4347745779578481,5896.974912118392
1.152,0.08713731733138061,5893.161943125858
1.156,0.6207823180416903,5896.272193823762
1.16,1.1183803697830537,5894.936823094449
1.164,1.545636886520683,5894.078465255896
1.168,1.8785947947065442,5901.804708784538
1.172,2.0954473243199057,5900.817837073136
1.176,2.1709876473638,5907.450635118811
1.18,2.079655431946938,5898.356066286378
1.184,1.8068237225399562,5896.628603598358
1.188,1.3620787272647976,5898.829289312105
1.192,0.7867891138458158,5893.991800560764
1.196,0.1511014735325895,5894.120626166688
1.2,-0.4597731696825711,5895.188532012303
1.204,-0.9655247899186078,5894.266128075629
1.208,-1.3096757487445152,5886.118945285328
1.212,-1.4707136595489694,5895.563582321189
1.216,-1.4625618207174675,5899.590264070625
1.22,-1.3263020786091344,5902.10232660372
1.224,-1.1175430701062266,5890.125275447163
1.228,-0.8931426356641219,5892.478065367284
1.232,-0.6993707633549123,5887.596609201698
1.236,-0.5631986853023082,5894.426268061354
1.24,-0.4885115695828661,5894.490311104658
1.244,-0.4583565348065915,5895.268533573159
1.248,-0.44320936142707695,5895.3964844699085
1.252,-0.4136957748511063,5908.031910888758
1.256,-0.35382536517241475,5898.087199448678
1.26,-0.26932741327499965,5903.274516521373
1.264,-0.18723464825884178,5909.5937512096
1.268,-0.14646473313012123,5897.73231045876
1.272,-0.18244012130712303,5889.512177746868
1.276,-0.31095793965885615,5899.560501995436
1.28,-0.5174137691913594,5898.608431390926
1.284,-0.7563840034226953,5889.980638561226
1.288,-0.9631347567862315,5885.461503657813
1.292,-1.0736093536934337,5899.769903911272
1.296,-1.0449495567429354,5898.645740448675
1.3,-0.8677574947547314,5900.682013565384
1.304,-0.5656268204335467,5900.140397877784
1.308,-0.18430267648800366,5900.748679803343
1.312,0.22272923897246744,5897.771690562897
1.316,0.6058973745989049,5898.69312233184
1.32,0.9257828280338284,5903.003347250187
1.324,1.1546430116177486,5891.160849085865
1.328,1.2752454448130883,5895.672695740359
1.332,1.2789288999689739,5902.654069211756
1.336,1.1643150666398476,5901.4916357351485
1.34,0.9376840145893465,5897.539755190008
1.344,0.6155530132264926,5896.3856722399
1.348,0.22873741656780613,5887.656715736939
1.352,-0.17503875251819037,5899.140399079477
1.356,-0.5343717159328595,5902.262314295839
1.36,-0.7858706749425267,5901.397569815864
1.364,-0.8818724567078142,5894.921965817451
1.368,-0.8068374110345204,5897.230426874833
1.372,-0.5842323505250967,5888.913578145357
1.376,-0.2696004469312278,5896.75904726897
1.38,0.0682160391874328,5903.3974674277015
1.384,0.37028234239108826,5893.810297239834
1.388,0.6055617849048739,5903.651984795253
1.392,0.7761639846993067,5905.269005498919
1.396,0.9081496942305851,5901.080686608303
1.4,1.0328530093479544,5900.8996014181575
1.404,1.1675225179365942,5891.43700352936
1.408,1.3034769610487535,5894.913051614721
1.412,1.4060239321353172,5892.297721709483
1.416,1.425410166756419,5890.716952927166
1.42,1.3141642748407558,5893.495124766359
1.424,1.044445466501575,5886.68832587486
1.428,0.6195132697145271,5894.909069805527
1.432,0.07589156250626805,5900.921864487632
1.436,-0.5236976408898885,5905.429510936922
1.44,-1.1037405572842778,5898.028632590379
1.444,-1.591733229547571,5891.472739107431
1.448,-1.9325442459250324,5897.84457315567
1.452,-2.0979424514353946,5895.491823265668
1.456,-2.0889441329611684,5900.598206180239
1.46,-1.9307865849610983,5894.60901077517
1.464,-1.6629407029271892,5900.058563833733
1.468,-1.32819711281272,5881.733790036412
1.472,-0.9645863256363885,5895.901396621826
1.476,-0.6020613181371971,5887.322099675693
1.48,-0.263569217125117,5894.668566960646
1.484,0.03177403395692979,5892.6854796086445
1.488,0.26660940846607334,5895.551215027827
1.492,0.4267832777001368,5900.566782459621
1.496,0.5062822500585205,5894.739287079698
1.5,0.5129000229020535,5898.556742723218
1.504,0.4706672986768937,5899.361827876568
1.508,0.41619184816847016,5897.623127508415
1.512,0.3891124901734334,5891.576691641487
1.516,0.4202455685339863,5903.005379221526
1.52,0.522419382990538,5896.988575645723
1.524,0.6873903524351056,5900.128354408835
1.528,0.8889786807054145,5899.595636560684
1.532,1.0900303219716858,5897.398091652715
1.536,1.2502115410420271,5886.717967144765
1.54,1.332630064484439,5894.791614650252
1.544,1.3088331926119054,5893.737822277291
1.548,1.1627461338086202,5896.106519254559
1.552,0.8939123553697809,5903.538967416923
1.556,0.5194487611755136,5901.341397965416
1.56,0.07362305929584988,5906.961834249225
1.564,-0.39564088452112295,5901.547460753764
1.568,-0.8332039797950027,5897.59011731282
1.572,-1.1850642832420422,5898.662967391317
1.576,-1.4067462901873629,5897.971662200262
1.58,-1.4697132226208345,5902.53063870882
1.584,-1.3646793041652425,5893.998410433865
1.588,-1.1018153802291497,5892.236769324891
1.592,-0.7083330484293092,5909.950709348802
1.596,-0.22396070880086114,5900.525667470343
1.6,0.3050342347498306,5897.741542408833
1.604,0.8321779650313019,5901.6579048948615
1.608,1.3160921071384541,5891.395546246331
1.612,1.7238865065701672,5896.929551691999
1.616,2.0327317423010074,5886.960714112891
1.62,2.230159032702842,5897.210839379073
1.624,2.3135781093737724,5903.909874735215
1.628,2.28954240778228,5899.415036346813
1.632,2.1731335320446346,5895.224122691813
1.636,1.9869311430942542,5901.529154131982
1.64,1.7582680014235397,5895.801536075421
1.644,1.5144216932353713,5905.172380064576
1.648,1.2777086792415384,5886.981417738676
1.652,1.0634208458407683,5887.493622852097
1.656,0.8813904813064584,5885.476704486349
1.66,0.7385648489705686,5896.753928483384
1.664,0.6389860610649565,5905.455387140848
1.668,0.5802835838448315,5893.522719818479
1.672,0.5496070990691545,5901.202011279591
1.676,0.5231297524009526,5897.743175401142
1.68,0.47109776539054865,5896.42824272796
1.684,0.3673982629122204,5896.270568893406
1.688,0.2005061996461167,5894.626116616342
1.692,-0.0187072125529348,5895.8422137425
1.696,-0.2566887400987804,5896.261320474837
1.7,-0.4659519554074239,5898.397270855391
1.704,-0.6001340037942222,5897.999550382036
1.708,-0.6299133372400961,5897.000458007653
1.712,-0.5543168511039843,5894.167036426722
1.716,-0.4037490817205361,5897.958494058991
1.72,-0.23352712124589997,5895.147075102326
1.724,-0.10934454291356303,5903.118095156489
1.728,-0.08858119027511487,5895.262093630877
1.732,-0.2028140257365295,5885.913579162054
1.736,-0.446559523077297,5899.335687989342
1.74,-0.7754846056259735,5895.718768901875
1.744,-1.1149008804914138,5899.711805844696
1.748,-1.377003143855915,5889.676594148028
1.752,-1.483268883344232,5902.270138927346
1.756,-1.386627790814319,5907.353269804553
1.76,-1.0868724708676367,5899.710078344907
1.764,-0.63357999657969,5896.5102628227005
1.768,-0.11438382229526439,5886.116240095079
1.772,0.3682215365713958,5906.055412542123
1.776,0.7237654641867313,5889.644889828945
1.78,0.8951319247411904,5891.54136870757
1.784,0.8676338043361251,5898.612515953675
1.788,0.6647250478073414,5898.101905919978
1.792,0.3351651516616727,5892.232084865054
1.796,-0.06094204008719733,5894.9323654696855
1.8,-0.4622037585631882,5899.766543221047
1.804,-0.8119339449020508,5895.716154025723
1.808,-1.0628881805281762,5894.165125231519
1.812,-1.1826920428316303,5897.470988534774
1.816,-1.1590090648834797,5901.657705086652
1.82,-1.0015067369857102,5896.629575937298
1.824,-0.7384394541759207,5901.22493893669
