时间(s),电压(V),幅值(高频80K)
0.0,6.326574962261102,5904.622150007032
0.004,4.3909883945981045,5901.348014118038
0.008,2.6246771795438004,5903.417882057729
0.012,1.1745609024124855,5906.541730724634
0.016,0.13595689418029294,5901.616125210999
0.02,-0.4586505058638786,5898.421853164247
0.024,-0.6389688361332632,5903.168304278153
0.028,-0.48622716922584147,5908.208801171464
0.032,-0.11603199937145117,5897.795260388592
0.036,0.3416181625295065,5900.669887375083
0.04,0.7624635973169767,5900.35229086579
0.044,1.0462168883673906,5901.701560220919
0.048,1.1306054456252537,5899.862267515069
0.052,0.9985874316385684,5897.716797127434
0.056,0.6770707262316913,5890.075352286813
0.06,0.22793733189070403,5908.00663836996
0.064,-0.26556855835068205,5892.842792675133
0.068,-0.7139557699202144,5902.6484652375175
0.072,-1.036629796696888,5901.6589086295535
0.076,-1.1762652288693962,5901.585855580087
0.08,-1.1101344496388132,5891.179151820487
0.084,-0.8548887020321276,5905.31322442794
0.088,-0.46267838814614537,5901.212969390865
0.092,-0.009401611987674346,5898.486851949756
0.096,0.4221970184551134,5901.166135010014
0.1,0.7611126921567712,5892.296008568527
0.104,0.9639489950750046,5899.088107134443
0.108,1.0227762733664056,5899.037798661736
0.112,0.9611487515581458,5900.215215783224
0.116,0.8193926340551254,5906.974072840958
0.12,0.6361874457363972,5899.82932286959
0.124,0.4357516963662462,5905.719350154363
0.128,0.2261682689248274,5897.615970834666
0.132,0.007119404437951284,5902.727126983407
0.136,-0.21976720335604757,5897.389595825883
0.14,-0.44434178931803653,5906.329459002306
0.144,-0.6474876865350476,5898.011775204724
0.148,-0.8055783652442056,5910.372701220747
0.152,-0.8973550223181751,5898.942709932519
0.156,-0.9108327041257073,5897.011703206666
0.16,-0.8477960606289643,5898.049010664895
0.164,-0.7236711470314758,5895.635178065989
0.168,-0.5622730904981434,5898.274729607135
0.172,-0.3874778934183517,5891.977159455032
0.176,-0.21533714202948753,5895.052034732443
0.18,-0.049897470546452896,5897.085570853304
0.184,0.11546617124095297,5903.459479287115
0.188,0.29163574662326563,5895.20140465952
0.192,0.48509241586905283,5895.834068466885
0.196,0.6911430628638061,5897.966835943076
0.2,0.8921962364361088,5898.41906585554
0.204,1.0612834135211744,5900.874219769416
0.208,1.1683689620196793,5898.787006828876
0.212,1.187132780516318,5897.762452764915
0.216,1.101799628261243,5904.9571368208335
0.22,0.9137702578620667,5908.203177074928
0.224,0.6459320296677374,5900.168536821957
0.228,0.34167800047782243,5898.94162188144
0.232,0.05731495114846263,5897.421095293669
0.236,-0.15068511558315,5893.963543954439
0.24,-0.23989115998588628,5897.285438198335
0.244,-0.1932414779067104,5907.416848595212
0.248,-0.024408468950496913,5901.081383215899
0.252,0.22402787074071168,5898.490428483628
0.256,0.48978545583223315,5900.580478105706
0.26,0.706694605864155,5897.592636952028
0.264,0.8237062497113827,5910.936624802109
0.268,0.8201664797662516,5895.835776562375
0.272,0.7099316021471181,5893.161253998872
0.276,0.5319571326567774,5897.105608716319
0.28,0.33275389707602376,5903.056513749974
0.284,0.150169570723246,5892.335695604635
0.288,0.005097449559218828,5904.872363562323
0.292,-0.09851231070389509,5893.988617424391
0.296,-0.1687857226919096,5894.611751841139
0.3,-0.2194790414336367,5895.889685336539
0.304,-0.2636508907638631,5893.431997375355
0.308,-0.3085035466670887,5890.778593012288
0.312,-0.35260626579241944,5898.64589127369
0.316,-0.38651363373850145,5902.221661284873
0.32,-0.3969215681611606,5910.617755557878
0.324,-0.37330996657824317,5890.0194700125785
0.328,-0.31473174454190483,5903.541309826407
0.332,-0.2337218387692143,5891.72988502419
0.336,-0.1552944765509775,5893.162769857537
0.34,-0.11129740732274741,5898.405772500064
0.344,-0.13211043039159331,5904.211019738144
0.348,-0.2380568543878389,5898.821915100862
0.352,-0.43291592621735375,5899.114036051075
0.356,-0.7017270474258986,5895.020157515654
0.36,-1.0135984441987576,5901.307126875495
0.364,-1.3278988897023216,5910.281205527844
0.368,-1.601154705462669,5900.504922825324
0.372,-1.792980947116132,5908.494251468939
0.376,-1.8708048475350207,5899.282127750381
0.38,-1.8133633249293393,5897.189085809933
0.384,-1.612442126074065,5901.214310540979
0.388,-1.2726794791222602,5895.214127577248
0.392,-0.8106956618141619,5904.181034921163
0.396,-0.2554541574584367,5895.324614109264
0.4,0.3499349243417497,5905.970019424066
0.404,0.947600823635897,5902.515966003288
0.408,1.469204937438538,5901.072293326452
0.412,1.8467062595477166,5902.143876673904
0.416,2.0272313268556132,5894.460938463921
0.42,1.9868355211695963,5907.871407440067
0.424,1.7378391648807143,5893.4147627150605
0.428,1.3266566432819265,5892.529343295367
0.432,0.8223395107171971,5905.91268692857
0.436,0.29921414512667255,5901.888388759909
0.44,-0.18104247841132703,5901.130437454294
0.444,-0.5823130782488013,5899.361861621623
0.448,-0.8977750991235871,5912.571712383992
0.452,-1.1431974437283627,5894.554274066327
0.456,-1.3424455398056923,5894.421259212971
0.46,-1.511274494041945,5902.616610999941
0.464,-1.646592442535262,5899.737585387525
0.468,-1.7263037898500364,5889.16584247232
0.472,-1.7201915599418671,5900.444569627151
0.476,-1.6069359969694343,5894.132446616356
0.48,-1.3889961875123276,5897.1341814378375
0.484,-1.0978067982943296,5889.168334013905
0.488,-0.7864197853671736,5902.03078268301
0.492,-0.5128932216656955,5901.004961411974
0.496,-0.3221233846297272,5904.953552421603
0.5,-0.23417563900254248,5899.606710823505
0.504,-0.24343384245548844,5897.528898736664
0.508,-0.3271770100264258,5900.569041149452
0.512,-0.45777429028654704,5904.361539115587
0.516,-0.6121503597638636,5897.115359139508
0.52,-0.7753576025150559,5899.974201932959
0.524,-0.9390784679157721,5910.600016259483
0.528,-1.097837178739505,5901.241466876838
0.532,-1.2452768363572135,5898.439951442338
0.536,-1.371522841873535,5900.478429047696
0.54,-1.4617934281284144,5890.272851615817
0.544,-1.4964719768100623,5897.187508906511
0.548,-1.4533799316784217,5899.303968078749
0.552,-1.313136501591812,5899.488343478831
0.556,-1.0675355953674104,5897.882493222735
0.56,-0.7286934603783987,5908.76878988143
0.5640000000000001,-0.33438245315380083,5897.554395866907
0.5680000000000001,0.055517969586550045,5896.78822479794
0.5720000000000001,0.37356887790651666,5897.461193650886
0.5760000000000001,0.5664824477173134,5911.76726898266
0.58,0.6145892922401861,5898.132954602423
0.584,0.5392215606743911,5889.827798052858
0.588,0.39433969558939247,5892.409965518139
0.592,0.24712784260513926,5903.838101644409
0.596,0.15684824365806596,5888.168018013361
0.6,0.15994298908186894,5902.207192726372
0.604,0.26450890308828817,5894.73882201695
0.608,0.4525416520825547,5888.3287873114205
0.612,0.6866492119449974,5892.067986581854
0.616,0.9193797044356405,5898.396740111185
0.62,1.1048049572476044,5889.415493718228
0.624,1.2109118132755068,5892.483109744189
0.628,1.2288958946096407,5908.747408238473
0.632,1.1749047590498523,5894.587646175844
0.636,1.0825673817222004,5887.411435901765
0.64,0.9892484640876523,5892.152334824551
0.644,0.9223541552518165,5898.670869510533
0.648,0.8918279172060954,5896.401763339824
0.652,0.8913946806146115,5889.870755895328
0.656,0.9067190958180351,5901.554055595831
0.66,0.9259362126400773,5911.172719052114
0.664,0.947520301575155,5900.206424529957
0.668,0.9815807551620966,5908.638330911714
0.672,1.0433301153484835,5892.176291644647
0.676,1.1415299766830131,5898.312677985858
0.68,1.2681858238789296,5897.487724056945
0.684,1.395679453819944,5899.261868909049
0.6880000000000001,1.4834969332555699,5899.029898817516
0.6920000000000001,1.4916343626354562,5910.504132619321
0.6960000000000001,1.3946980953804093,5896.7742779906575
0.7000000000000001,1.190793501611064,5896.732469480149
0.704,0.9021282274876774,5894.535390329156
0.708,0.5682047089448795,5903.442794692524
0.712,0.235289098741702,5906.470520641309
0.716,-0.05372713068556167,5900.3176767423365
0.72,-0.26655152035180785,5911.22149884072
0.724,-0.38552723079578566,5899.8514258187815
0.728,-0.40946226794898183,5897.508455842351
0.732,-0.353709872930423,5905.311108303673
0.736,-0.24764643539160708,5896.133703792535
0.74,-0.12849874353501445,5891.669454443835
0.744,-0.03210246915296287,5896.0025233034585
0.748,0.01674929193799221,5894.162791101221
0.752,0.01096643424497035,5898.0703503604855
0.756,-0.0376682912745462,5903.983793718955
0.76,-0.10349600719133237,5900.87503666841
0.764,-0.15666585494228347,5894.439661240638
0.768,-0.17415782918973124,5893.202791732582
0.772,-0.1481513392657959,5897.793672913086
0.776,-0.08883902831726835,5902.751365106788
0.78,-0.020975079214257474,5907.192284512097
0.784,0.024481344482318857,5904.675516969851
0.788,0.0208778574204699,5886.828908838803
0.792,-0.04502927062409992,5899.491972224158
0.796,-0.1688772020561968,5896.843601746267
0.8,-0.33119385381159255,5893.147200825366
0.804,-0.5053364362417834,5896.075734769314
0.808,-0.6671427469364116,5891.539096464965
0.812,-0.8024059756229942,5889.019808002797
0.8160000000000001,-0.9100059270252719,5899.153334639516
0.8200000000000001,-1.0003773778432128,5899.3429667095415
0.8240000000000001,-1.0901262598184969,5898.282397851298
0.8280000000000001,-1.1942592127555625,5895.418677750593
0.8320000000000001,-1.317931359604262,5889.551193572521
0.836,-1.4500306597489898,5900.389672705584
0.84,-1.561377240448061,5890.153083332493
0.844,-1.6101250003835366,5902.0497638354445
0.848,-1.5550281196970743,5901.68452853386
0.852,-1.3735046907030515,5901.369298439215
0.856,-1.0774487691347554,5898.742073131762
0.86,-0.7182390267210378,5903.087580277412
0.864,-0.37565292496813124,5895.195663270919
0.868,-0.13274409999531092,5897.753177603415
0.872,-0.046106564752796036,5901.922510433883
0.876,-0.1239047491662865,5892.200701393738
0.88,-0.32107662070767323,5903.018925254494
0.884,-0.5540557627878824,5899.130668157392
0.888,-0.7294501865003233,5897.246903014438
0.892,-0.7753783291547737,5897.261887306072
0.896,-0.6631919570351168,5898.331369482191
0.9,-0.4122441216429068,5899.822023000827
0.904,-0.07871623095676232,5900.695963558376
0.908,0.2640669541930228,5899.438778223844
0.912,0.5456568860588387,5904.734094325662
0.916,0.714252380235401,5901.716533275767
0.92,0.7471222431756201,5894.288972692786
0.924,0.6552259159988184,5895.782046327964
0.928,0.48053616147511397,5901.822344591719
0.932,0.28471016341713185,5897.731600032322
0.936,0.13055522032974065,5897.965754056375
0.94,0.06196985216017746,5892.272043335534
0.944,0.09057593515886764,5899.641689476099
0.948,0.19530993519739795,5895.994014797105
0.952,0.3349325039715242,5892.26456471623
0.956,0.46644520882034524,5899.165713930676
0.96,0.5596536280510223,5903.07424659635
0.964,0.6016572763149024,5894.9406613011415
0.968,0.5919738857093264,5901.217439807745
0.972,0.534010444747957,5895.196211287693
0.976,0.4291203411774289,5900.542907759125
0.98,0.27693972238759335,5896.528732146335
0.984,0.08193212556373475,5902.491265318544
0.988,-0.13803185367769005,5897.9378997818885
0.992,-0.3477535376010999,5901.46168446476
0.996,-0.5006010491564086,5897.937188807451
1.0,-0.5539823406017795,5902.785940167308
1.004,-0.4882877843269602,5895.842677302502
1.008,-0.32051936961139255,5893.514482402346
1.012,-0.10566470023193582,5899.251457257823
1.016,0.07605319047950072,5905.815970819923
1.02,0.14213479132966672,5898.214443354273
1.024,0.03305696950967474,5904.997465259104
1.028,-0.2687786358168713,5902.574840262141
1.032,-0.7323883282433569,5898.277201102521
1.036,-1.2850998552956332,5894.662888625774
1.04,-1.8293672969715191,5896.079821488999
1.044,-2.2633702666091224,5898.249821468938
1.048,-2.500406489845202,5893.8782242518855
1.052,-2.4848766088019594,5886.942570973039
1.056,-2.203692770501559,5900.925853924464
1.06,-1.690612981136391,5894.32984486478
1.064,-1.0202137954149855,5899.8299384745
1.068,-0.29076929648618377,5897.197298770222
1.072,0.3995680783388539,5892.63692559707
1.076,0.9751405989949111,5905.029236475984
1.08,1.3962594253052492,5901.650170497682
1.084,1.6605697481097281,5900.820493908014
1.088,1.7938523231643957,5888.690521527873
1.092,1.8351426533220208,5899.7534031124615
1.096,1.8221529297280619,5895.454883026633
1.1,1.7814268182533946,5904.558883227604
1.104,1.7245864091775138,5899.154258778385
1.108,1.6497444768190335,5889.812283142113
1.112,1.546453606852981,5893.94347053493
1.116,1.402436836688928,5902.69944992298
1.12,1.210129403383352,5898.839204414654
1.124,0.9711388968780685,5901.605143488872
1.128,0.6973944265473416,5902.027760317222
1.132,0.4087909890287299,5899.114828165551
1.136,0.12830750562519125,5899.658922668407
1.14,-0.12354387715624934,5901.270639702636
1.144,-0.33303884370404896,5900.735964631821
1.148,-0.49504582571484795,5892.00420971236
1.152,-0.6118630266313838,5895.560289904228
1.156,-0.6898209406181139,5902.666233856441
1.16,-0.7355560462932116,5890.276872874062
1.164,-0.7538369806807605,5900.348834586249
1.168,-0.7473880812541905,5896.063360317774
1.172,-0.7176771588568082,5896.109717247633
1.176,-0.6653911317589587,5898.959349276518
1.18,-0.5902534745081602,5900.669886531444
1.184,-0.4910040803109448,5894.277008829881
1.188,-0.3667024972763051,5896.627856474072
1.192,-0.21944779287362018,5900.784831729434
1.196,-0.05692370400997952,5897.401774469375
1.2,0.10740566356425099,5891.148449738404
1.204,0.25750158475418883,5900.28898725697
1.208,0.38052912609973116,5894.67468121082
1.212,0.4727631839261536,5888.06292512038
1.216,0.542431191358127,5898.840976335966
1.22,0.6070517915393209,5907.119598909213
1.224,0.685298048055042,5889.315557602966
1.228,0.7865559487012186,5895.7616233743865
1.232,0.9031101613940707,5898.073601237375
1.236,1.00888319035312,5893.851842169323
1.24,1.0656013328392089,5902.955879013719
1.244,1.0344279762222626,5894.7486333591705
1.248,0.8899558562623396,5903.830225316057
1.252,0.6331153678530105,5895.395342417768
1.256,0.29871533863065597,5896.395415427006
1.26,-0.046945937949451275,5900.940257066919
1.264,-0.32044663910055443,5898.065176996184
1.268,-0.4445201956421136,5891.556509435824
1.272,-0.37240370498658587,5891.65738801869
1.276,-0.10398264236481902,5904.53090470768
1.28,0.31254708603686315,5897.285985600919
1.284,0.7938634877665335,5900.718835574032
1.288,1.244229976815736,5896.330137168544
1.292,1.5796354624139515,5893.918071280329
1.296,1.74617370095269,5898.430054253081
1.3,1.7288988493765882,5892.062762788489
1.304,1.5510768837413236,5889.224901925859
1.308,1.2658477671229436,5893.343111999047
1.312,0.9425660078271867,5891.565057082301
1.316,0.650030781668227,5898.536812253137
1.32,0.44015180090775397,5896.99970764978
1.324,0.3372706186567947,5900.349424217197
1.328,0.3371645458912181,5889.806568801373
1.332,0.41517533853607697,5901.9984476125965
1.336,0.5383936654429186,5895.906339257868
1.34,0.6756581133465798,5894.607465700803
1.344,0.8016281127587345,5906.438482078003
1.348,0.8955199454740612,5902.550012149271
1.352,0.9384699993892651,5902.474610688609
1.356,0.913769768589784,5893.260310954128
1.36,0.8114369130297407,5901.066670272765
1.364,0.6347202394476343,5903.7908105367405
1.368,0.4038825991962044,5891.826444992184
1.372,0.15384903597497535,5891.848764358302
1.376,-0.07384587824695686,5901.120221764414
1.38,-0.24127151729494078,5902.300286278617
1.384,-0.3228177501305967,5897.777042026077
1.388,-0.3106607319065734,5901.253945486365
1.392,-0.21679024931212923,5898.872827403166
1.396,-0.07157200029241494,5903.9821232364
1.4,0.08153319745426629,5889.426162713422
1.404,0.1949653783506427,5898.052894628248
1.408,0.22818160837968368,5903.121891056593
1.412,0.157990620162021,5905.545035809621
1.416,-0.014933200881862448,5907.617958963155
1.42,-0.2653756000503982,5891.109291836719
1.424,-0.5491925247167593,5900.235278922456
1.428,-0.8137269689517291,5899.241701062381
1.432,-1.0097358146619435,5892.103653182102
1.436,-1.1013366705203937,5898.432140601903
1.44,-1.0723257818824246,5894.459918541272
1.444,-0.9289154655090684,5898.693838442209
1.448,-0.6989128277010808,5893.854172097195
1.452,-0.4269804708195724,5899.2935765197735
1.456,-0.16649159841792405,5895.91920725423
1.46,0.030148015806098806,5886.691841695119
1.464,0.12062570549452167,5890.794589784354
1.468,0.0803455946151352,5894.531259117875
1.472,-0.09119661818831365,5897.352092565481
1.476,-0.3653623039268229,5898.015367098153
1.48,-0.6829620471930601,5894.787041961528
1.484,-0.9608374097134613,5905.3241032418455
1.488,-1.1092904265593033,5897.192838801052
1.492,-1.0576425855656633,5894.428926305033
1.496,-0.7791392195865999,5891.085285867169
1.5,-0.3044757059283139,5902.071702977699
1.504,0.28279752369099004,5891.481808933645
1.508,0.8679561010027066,5903.922115774526
1.512,1.3357554821475814,5904.106998719523
1.516,1.5991814941362352,5894.272643363703
1.52,1.6173164411596064,5893.672805046938
1.524,1.3981627447967444,5897.645330901829
1.528,0.9883034081174288,5896.200868493102
1.532,0.4563008421121382,5900.11080113919
1.536,-0.12211075532587162,5897.019514091255
1.54,-0.6725063467142367,5897.078364497255
1.544,-1.1249643591886838,5900.564139981359
1.548,-1.4168687543710055,5900.145111375032
1.552,-1.5001352672589041,5900.224451650851
1.556,-1.353696859631241,5897.146757171531
1.56,-0.9963706622394027,5892.627435019558
1.564,-0.49167352396789143,5904.380150002391
1.568,0.061965358035023704,5889.790174178597
1.572,0.5552289877865448,5906.794377816908
1.576,0.898105795391742,5899.47869755284
1.58,1.0446809066485268,5887.766350375027
1.584,1.0037040647819697,5893.901479389637
1.588,0.8326827740888092,5894.846912202563
1.592,0.619118959167689,5903.260745304394
1.596,0.4553861596561093,5891.549738737412
1.6,0.41438069387490734,5899.722419349934
1.604,0.5321990224979756,5892.021114634377
1.608,0.8014289153242037,5899.629811171506
1.612,1.175148651641513,5901.624888629081
1.616,1.5793824287230391,5902.981754359348
1.62,1.9307652318425308,5899.048678779851
1.624,2.1552647442208905,5894.552559942179
1.628,2.2031133220557724,5900.295434996685
1.632,2.0561029621056206,5888.29653819634
1.636,1.7264686441200516,5890.724168939094
1.64,1.24999422564696,5888.704402143658
1.644,0.6772550706106015,5894.055930108591
1.648,0.06554328877938789,5889.758338923046
1.652,-0.5278593523187036,5888.6984665231785
1.656,-1.05108267303681,5905.890305488765
1.66,-1.4618547652572007,5903.177399379682
1.664,-1.7306792236369384,5896.677820019333
1.668,-1.8427925368747968,5896.113605643031
1.672,-1.798058348056129,5901.363684872995
1.676,-1.6082373124638374,5901.523028144849
1.68,-1.292346212396879,5897.297820294722
1.684,-0.8722390541346227,5892.021665002623
1.688,-0.3711315317986231,5894.67342752333
1.692,0.1836185269180084,5892.678230829131
1.696,0.7553713241009069,5898.951824132119
1.7,1.2949838093694406,5894.093222412414
1.704,1.7432412919037146,5894.168759441296
1.708,2.0399293987071836,5902.796642702652
1.712,2.1372821624279954,5887.579290413418
1.716,2.013062870497164,5900.030219110742
1.72,1.6781699172565618,5908.935823136514
1.724,1.1759799348639572,5897.708513881701
1.728,0.5741291032184525,5889.886147325587
1.732,-0.04839276016781264,5898.888918887795
1.736,-0.615892987237237,5892.126783639529
1.74,-1.0699002745315285,5894.106115657485
1.744,-1.3795420580954183,5889.16674004924
1.748,-1.5453414421358724,5897.383837798065
1.752,-1.5948628676467917,5901.364546866621
1.756,-1.5713623806715913,5901.487304558438
1.76,-1.5189734066369192,5894.04257966214
1.764,-1.469165222214699,5890.223121776994
1.768,-1.4330854649390121,5890.393180448013
1.772,-1.4025544300849873,5899.042234016938
1.776,-1.3589959639937141,5899.901419706585
1.78,-1.2859631456652147,5892.707124970561
1.784,-1.1792391092585612,5905.619335427377
1.788,-1.0496823136128728,5896.425208193387
1.792,-0.9173091474105342,5902.505233040415
1.796,-0.7991724735933405,5889.671301235592
1.8,-0.6969662075238015,5891.78544021409
1.804,-0.5912723656240738,5895.687517585452
1.808,-0.44671983890160855,5892.95045966168
1.812,-0.22697274074359822,5895.502543359756
1.816,0.08654108841933887,5892.236822907777
1.82,0.4803184735927295,5896.248702350107
