时间(s),电压(V),幅值(高频80K)
0.0,0.1290945239402723,5897.281960304829
0.004,0.42461431315632076,5899.694669252537
0.008,0.6993932200302646,5898.050125473668
0.012,0.9292102322236852,5900.880700171918
0.016,1.090899967301155,5899.952604190445
0.02,1.1643660227501698,5902.09384338006
0.024,1.136551397770505,5899.119047937618
0.028,1.0056935345248603,5893.129461299687
0.032,0.7828797758893989,5893.133299229894
0.036,0.4894534691251897,5897.760282001271
0.04,0.1518187250655633,5889.250446710311
0.044,-0.20298302956845546,5904.09125194108
0.048,-0.5483938087983139,5905.103859111634
0.052,-0.856696436261634,5904.125015309834
0.056,-1.0979528915360406,5890.684083706014
0.06,-1.2425544717203603,5905.618340111421
0.064,-1.2671765326518734,5896.889792440396
0.068,-1.1611598896786808,5893.067202114676
0.072,-0.930433035900798,5903.579705454098
0.076,-0.5979600181792356,5898.991732195087
0.08,-0.20096194748604385,5897.691011172844
0.084,0.21466384000308406,5895.573152403109
0.088,0.6017675676125963,5900.753288976622
0.092,0.9190542241765758,5894.891358593797
0.096,1.1357763232761415,5902.125610687059
0.1,1.2340173079299974,5900.492286100764
0.104,1.2102862422456984,5903.160512950924
0.108,1.0772617042982648,5901.905521544999
0.112,0.8643243274210433,5896.6275876270165
0.116,0.6147429678665927,5894.491078352431
0.12,0.37868291632383777,5894.440224346329
0.124,0.2031138902352177,5901.5772071096335
0.128,0.12096626756400321,5893.489439444506
0.132,0.14247276318863822,5893.728099067744
0.136,0.2516388731555573,5909.433142577009
0.14,0.409812150886869,5895.523900347329
0.144,0.5662163109930838,5897.020978304786
0.148,0.6727009834201194,5905.275818557922
0.152,0.6979547363902912,5897.547384465395
0.156,0.636280338997768,5907.41539197814
0.16,0.508183974151517,5904.211073861034
0.164,0.3531154050247469,5902.147943791542
0.168,0.2167209488598435,5899.7226553351775
0.172,0.1358048236246074,5898.09444833169
0.176,0.1250964310546133,5885.66832924442
0.18,0.17069342616251978,5907.071184103009
0.184,0.23384279274417574,5891.659732740631
0.188,0.26475813247338464,5901.820217716764
0.192,0.22134213734492514,5901.082726469314
0.196,0.08528185294049963,5902.996805190221
0.2,-0.13040958532287308,5897.456095264489
0.204,-0.38455228408938313,5906.709272147699
0.208,-0.6203990406324662,5901.300728294656
0.212,-0.78355282307791,5900.0081748835855
0.216,-0.8385318666387802,5892.863451410487
0.22,-0.7769931849908845,5895.325614112408
0.224,-0.6142963774984923,5899.2078606609175
0.228,-0.3773021566925556,5907.271400551783
0.232,-0.09108325372236507,5901.57837655383
0.236,0.22790945816362806,5910.241890557951
0.24,0.5696542093167726,5899.163536086721
0.244,0.9225281752485257,5902.582655563379
0.248,1.2651661217660595,5894.044490665752
0.252,1.562981009590045,5904.053225228649
0.256,1.7716514362599536,5898.896730746193
0.26,1.8469742641193043,5897.1094412259
0.264,1.7576718358804395,5902.165103836523
0.268,1.4963994029287917,5897.834925487205
0.272,1.085223072643435,5898.256707786812
0.276,0.5742014704190864,5900.983301510232
0.28,0.033596261625353514,5897.104181252553
0.284,-0.45899859971074713,5898.586497608047
0.288,-0.834779498201488,5901.873617328566
0.292,-1.0498890542750343,5902.330104938846
0.296,-1.0967747513652166,5903.321094637085
0.3,-1.006150482455648,5901.811859523654
0.304,-0.8379381090791593,5904.431910014749
0.308,-0.6637893556149735,5902.013685625831
0.312,-0.5469459640905637,5903.124671770095
0.316,-0.5258198491345605,5895.099128478264
0.32,-0.6055991531191139,5902.911542397408
0.324,-0.7588060553870627,5899.728717764097
0.328,-0.9332985613324237,5907.955673172084
0.332,-1.0656160998332143,5897.092572580414
0.336,-1.0974817844458746,5900.058832160623
0.34,-0.9923039211165442,5905.036858054567
0.344,-0.7472862477161629,5907.181523384709
0.348,-0.39696190103522117,5895.552145430525
0.352,-0.0062432473326637546,5903.925832916218
0.356,0.3455806117833954,5907.910341153352
0.36,0.5856008241046542,5901.5589482134255
0.364,0.6670393052588847,5897.951330780268
0.368,0.5823753172806907,5902.867098790466
0.372,0.3658904498343921,5909.924290941655
0.376,0.08464767601946646,5894.24927792482
0.38,-0.17949051344288577,5900.617485312399
0.384,-0.35139994073967684,5896.24501455178
0.388,-0.3815417657711604,5896.107023367278
0.392,-0.25710091379340483,5899.177792450171
0.396,-0.003127423978603572,5893.519593734867
0.4,0.32555868356782486,5897.2874855147365
0.404,0.65901862667225,5896.402879862031
0.408,0.9299689974710685,5897.923951860175
0.412,1.0904416672422403,5901.612684439581
0.416,1.1223816403409228,5897.468244916323
0.42,1.038442893354476,5907.099969599644
0.424,0.8730311331248838,5898.092659288565
0.428,0.6679981830464081,5901.292110007344
0.432,0.459436420663826,5893.4229315572775
0.436,0.27053796796333623,5897.752029254455
0.44,0.11155285013014686,5910.891169073024
0.444,-0.015961823616127545,5903.018553527262
0.448,-0.1145904971243738,5898.939120972073
0.452,-0.18817350633798624,5909.73105425014
0.456,-0.23966627700514356,5906.400439390789
0.46,-0.2680664921471428,5894.633878736173
0.464,-0.2648701677152691,5894.15879728585
0.468,-0.21335587262318592,5908.589989124841
0.472,-0.09410950763917385,5904.162390961254
0.476,0.10378161520644337,5900.233709961535
0.48,0.37170692660298676,5905.794400222229
0.484,0.6781762940950778,5896.751777759371
0.488,0.9764624777253748,5902.387713521004
0.492,1.2196261144223965,5890.182582711185
0.496,1.375038207726187,5899.824432153032
0.5,1.4315790691228683,5901.194363657011
0.504,1.3973023451771447,5896.30512241739
0.508,1.2901951016253803,5896.017700304494
0.512,1.1273997503740887,5901.303069519617
0.516,0.9180651502508218,5900.160800969301
0.52,0.6626281353860027,5895.774563645541
0.524,0.3582390122524921,5898.555786812699
0.528,0.007271882176662239,5901.629637320454
0.532,-0.37564811655701635,5895.987215912602
0.536,-0.7619566949925843,5897.145309719942
0.54,-1.113866898395216,5888.114923544985
0.544,-1.393354934990712,5899.036812014284
0.548,-1.5716109087912304,5893.360042782338
0.552,-1.6354886743409054,5903.87226554339
0.556,-1.588818794137872,5899.052038456406
0.56,-1.4481940561170632,5895.298714880439
0.5640000000000001,-1.2353190780875394,5895.262888998194
0.5680000000000001,-0.9701814390352759,5894.378144982255
0.5720000000000001,-0.6686586143103456,5904.383172590816
0.5760000000000001,-0.34466764827765534,5894.023790706709
0.58,-0.013905627068405037,5899.077763639167
0.584,0.3040845439923784,5902.608211515843
0.588,0.5871781310142087,5898.435309942217
0.592,0.8148660348168566,5890.043656757012
0.596,0.9733949024004365,5894.633224853046
0.6,1.0595828392908588,5899.969573833789
0.604,1.0821378764812477,5904.510418830176
0.608,1.0604321358091502,5901.735671040429
0.612,1.020767451793009,5893.290089943345
0.616,0.9899903086153873,5897.487857200823
0.62,0.9873245991219779,5895.454220276922
0.624,1.017170359007434,5905.1160361813945
0.628,1.06631758618937,5894.419507873863
0.632,1.1073908701931243,5893.906363253127
0.636,1.1074887877504225,5895.650836412461
0.64,1.038808472383842,5894.1010438359135
0.644,0.8875484678372204,5895.993832403372
0.648,0.6585087337703542,5900.283139716727
0.652,0.37464929623863785,5896.130713529192
0.656,0.0722016738599188,5898.787143318235
0.66,-0.2074215689300946,5898.460747513173
0.664,-0.42679798970217153,5896.962564579051
0.668,-0.559642685037204,5898.935118491823
0.672,-0.5933144002113748,5897.015229942529
0.676,-0.5265291173939781,5896.643935325426
0.68,-0.3648876262689361,5901.953203202846
0.684,-0.1179127699081934,5900.777478867999
0.6880000000000001,0.20002805785158354,5905.463804142877
0.6920000000000001,0.5657299739942423,5897.949202717435
0.6960000000000001,0.9439104977803975,5896.092828739433
0.7000000000000001,1.288731842216396,5898.6607094665
0.704,1.55106019266006,5899.705269015438
0.708,1.6888115679468565,5899.326224488895
0.712,1.6762010488645416,5898.026809242197
0.716,1.508693719211486,5899.748701620113
0.72,1.2028587152742234,5901.13799059573
0.724,0.7925773225391366,5896.945082933178
0.728,0.3236630268562735,5897.953693713858
0.732,-0.15210470090085118,5904.312837480014
0.736,-0.5835350652949233,5889.669438115838
0.74,-0.926867210988706,5897.445186459363
0.744,-1.1516868101876874,5894.667940527247
0.748,-1.2445085304391845,5895.590807973915
0.752,-1.2093151543682559,5911.675303469599
0.756,-1.0653166056621464,5889.372113516144
0.76,-0.8430600484796056,5906.204499630075
0.764,-0.580416173879735,5892.78036294603
0.768,-0.3191678648275373,5896.921133402352
0.772,-0.10112143455304906,5899.6092034450185
0.776,0.03810210450783273,5902.620890320531
0.78,0.07732903007777345,5897.724617951916
0.784,0.01645568513732311,5900.152127388925
0.788,-0.12310101045282634,5899.6664265943655
0.792,-0.305561318650616,5902.521104553999
0.796,-0.49269137463213486,5899.326285812261
0.8,-0.6553235320172267,5890.449934205565
0.804,-0.7801077778723362,5901.813225767866
0.808,-0.870049922513078,5904.10174762534
0.812,-0.9403210884158366,5897.924216505476
0.8160000000000001,-1.0117461059934345,5897.71462922025
0.8200000000000001,-1.103601766732759,5898.757592655498
0.8240000000000001,-1.2267668487707744,5890.194567503926
0.8280000000000001,-1.378699254133828,5896.019818096416
0.8320000000000001,-1.5422367472530132,5893.805563006138
0.836,-1.6894914436300352,5894.985444565443
0.84,-1.7899139630148486,5898.802847735481
0.844,-1.819262927016341,5903.423619565345
0.848,-1.7655568216313298,5894.234652016694
0.852,-1.6298599870593853,5910.374624648395
0.856,-1.4228995589677769,5900.492242071739
0.86,-1.1608332384754254,5899.423112887684
0.864,-0.8633162897750885,5891.123219094579
0.868,-0.5544716125438739,5906.134398684891
0.872,-0.26428025069330413,5904.056220768475
0.876,-0.026621323830952528,5896.899608144049
0.88,0.1280184604134986,5904.256559155162
0.884,0.1831636062276396,5900.36851511276
0.888,0.14488738201083054,5898.935206172979
0.892,0.04267507738660227,5899.350994230336
0.896,-0.0795420739471211,5899.687814744191
0.9,-0.17928777973003973,5899.429914133811
0.904,-0.2316831963736797,5897.006299915158
0.908,-0.23865349884008275,5897.935500812129
0.912,-0.22701614414372645,5893.955133704806
0.916,-0.23613059723842672,5900.626861239335
0.92,-0.3002919562522049,5899.016420230984
0.924,-0.4331490257065593,5891.14674006683
0.928,-0.6200743458593502,5903.508198200907
0.932,-0.8206821674472615,5893.717704500059
0.936,-0.9800472344450809,5895.00424093129
0.94,-1.0450183402578614,5893.855613313322
0.944,-0.9808375122592303,5903.910358651732
0.948,-0.782573560330618,5896.127087076619
0.952,-0.4768195374403039,5900.923100997617
0.956,-0.11290293027394925,5905.872783793787
0.96,0.25208920250040573,5898.928334466021
0.964,0.5675777961016049,5902.138112082499
0.968,0.7978473758322361,5895.811468540595
0.972,0.9234465213095466,5890.25180075005
0.976,0.9382149177161831,5897.627416961563
0.98,0.8458512783178243,5903.665083882836
0.984,0.6586777854377956,5896.9929477920095
0.988,0.3983344737270412,5891.809519606691
0.992,0.09571621355280124,5898.287394274552
0.996,-0.21231102629074106,5899.958639809457
1.0,-0.4891402109698762,5897.171717815887
1.004,-0.7048813881823222,5900.391648034811
1.008,-0.840673451645264,5905.629237628691
1.012,-0.8907265253013399,5900.994563266313
1.016,-0.8632315214992671,5882.814882833104
1.02,-0.7804558208976256,5891.907976741756
1.024,-0.6769098149042853,5895.797497314366
1.028,-0.5940826113802766,5901.555962517762
1.032,-0.5714257293609587,5899.61798104261
1.036,-0.6355782227743606,5907.715957653839
1.04,-0.7919027089373787,5898.04359774211
1.044,-1.0222962086852685,5894.265664454827
1.048,-1.2902800441257252,5906.061339645419
1.052,-1.550656247182744,5891.395043515317
1.056,-1.7596116186696267,5899.123891806321
1.06,-1.8825770035664382,5903.825422489419
1.064,-1.8991909147596322,5898.078101499117
1.068,-1.8055355747573294,5890.820883710039
1.072,-1.6136066124480386,5896.199702998398
1.076,-1.347916515979568,5896.303671149658
1.08,-1.0398646135959422,5892.228300216808
1.084,-0.7215165415464451,5895.874955358893
1.088,-0.42063737790933,5899.62304239909
1.092,-0.15787269614365465,5889.743321312953
1.096,0.054284252696957504,5895.481613997899
1.1,0.21158266874950685,5895.885051470818
1.104,0.31754321710842337,5903.921553483473
1.108,0.3821152930361744,5904.277160973699
1.112,0.4188867992679796,5895.287036261863
1.116,0.440714576565336,5902.829032118126
1.12,0.4547724735459687,5894.250332520397
1.124,0.45907809851434545,5896.008993970103
1.128,0.4424645399011936,5898.546273726232
1.132,0.38853907562912554,5891.309747250352
1.136,0.28230224879789884,5899.783540620079
1.14,0.11683358550918096,5900.696520714986
1.144,-0.10261403704544937,5899.935761478598
1.148,-0.35863433286276053,5898.047631455408
1.152,-0.6254572211573257,5897.273179806676
1.156,-0.8744435373851809,5893.733422286082
1.16,-1.0788201634552812,5897.896686312397
1.164,-1.2164947512263589,5890.917734594883
1.168,-1.2715740570016578,5905.397491679511
1.172,-1.235891391635297,5901.193158541483
1.176,-1.1111217541970564,5894.916039170144
1.18,-0.9107786779091896,5900.136954376405
1.184,-0.6605718064434689,5897.543645977574
1.188,-0.3958416275976462,5891.832617144417
1.192,-0.15591603407034543,5890.303049535189
1.196,0.023511078521374257,5907.318391918348
1.2,0.11820011294173087,5898.007829521948
1.204,0.1215756941915238,5891.2301186810655
1.208,0.04773750503425196,5895.642170808354
1.212,-0.07009500692768748,5893.762680227722
1.216,-0.1865915229347511,5891.959266375837
1.22,-0.2562857764089031,5900.525892316811
1.224,-0.24763038153250708,5899.373649739548
1.228,-0.15421653118758033,5899.334743899656
1.232,0.001481408696099527,5901.824306309043
1.236,0.173769854508096,5893.743912339238
1.24,0.30734629812746334,5897.373844262273
1.244,0.3547178110813117,5895.239487831005
1.248,0.2917342108338219,5897.963520751291
1.252,0.1256624252109989,5889.7924292639655
1.256,-0.10733491198490726,5904.497781080118
1.26,-0.35432222746985254,5899.697091255307
1.264,-0.562483999326689,5896.006668331342
1.268,-0.6943888638454094,5897.185782316284
1.272,-0.7365933482388355,5898.224395151363
1.276,-0.6997829398609203,5895.180744995437
1.28,-0.6116960924772387,5901.649873160744
1.284,-0.5057093910621958,5904.621570150985
1.288,-0.4085388128271352,5903.319615922463
1.292,-0.3306593864440544,5897.731087878373
1.296,-0.26248922475373954,5903.595042432034
1.3,-0.17769054806882298,5895.613992538255
1.304,-0.04258720604894553,5895.441919518491
1.308,0.17126025671846934,5897.14908604462
1.312,0.4752411899565844,5899.436713849841
1.316,0.8564846644764735,5895.307778179833
1.32,1.2779040884274009,5898.065246233856
1.324,1.6858350470692895,5897.971985001425
1.328,2.022896463712916,5895.022538658806
1.332,2.241959932283884,5899.951720994709
1.336,2.3171417160995884,5895.374478318563
1.34,2.249026704313367,5889.365872977892
1.344,2.062936663203547,5895.0407239760325
1.348,1.800767080897227,5895.855085884974
1.352,1.5088640145256653,5896.934704980806
1.356,1.225919047687897,5904.983110429799
1.36,0.9748088655336822,5890.3437913934295
1.364,0.7605421638837936,5903.018278266165
1.368,0.5741523313903375,5890.265544695602
1.372,0.40075058415820725,5894.202143465405
1.376,0.22912961630359138,5895.709602743529
1.38,0.05963356587647827,5893.261407480416
1.384,-0.0931334832621761,5902.339455590432
1.388,-0.2044485964797546,5904.696469616489
1.392,-0.2487498383043529,5894.267665090135
1.396,-0.20971632590865938,5887.412591884081
1.4,-0.08684270501722938,5894.272518061355
1.404,0.10355555801935014,5898.167379381823
1.408,0.33219364084660186,5891.608455871107
1.412,0.5629783443042182,5907.1920940142245
1.416,0.75892339087759,5893.108960709418
1.42,0.8868870188868788,5896.689101654762
1.424,0.9217727927197875,5903.005455925023
1.428,0.850657913610539,5900.627401404803
1.432,0.6759233914789275,5895.183507807563
1.436,0.41590738965306834,5892.332333383724
1.44,0.10248753453522313,5898.480453955717
1.444,-0.22388294361985395,5903.182978460091
1.448,-0.520614250277801,5899.69150677653
1.452,-0.7495665892631707,5898.764300521629
1.456,-0.8822713622999088,5892.268907321163
1.46,-0.9026382501125311,5893.849414898138
1.464,-0.8072544040293839,5895.498678075067
1.468,-0.6047224073696629,5896.778976025844
1.472,-0.3155944271869498,5891.442319694221
1.476,0.026992210328115135,5897.56414247187
1.48,0.3778535805039312,5896.656292625669
1.484,0.6841714511349307,5906.143056638956
1.488,0.8950308158821053,5904.661492729691
1.492,0.9741100921583556,5888.517258971332
1.496,0.9105805712029645,5898.802519576472
1.5,0.7229299580712291,5902.390280314569
1.504,0.4535249510455455,5896.109824927371
1.508,0.15622892174290243,5888.0230597037935
1.512,-0.11798458135919918,5896.927937501104
1.516,-0.332860925717371,5901.064554803851
1.52,-0.47325746327044593,5901.319285977589
1.524,-0.5446968087937689,5891.321653102408
1.528,-0.5665373010272695,5904.362005305927
1.532,-0.5617765275557891,5890.052949811893
1.536,-0.5477988692949578,5894.783552872528
1.54,-0.531029169601914,5898.186872283937
1.544,-0.5062014453346702,5903.386571855325
1.548,-0.45988044805293216,5908.043411166546
1.552,-0.37738978154744035,5895.951934568526
1.556,-0.2509844940349767,5894.787404859493
1.56,-0.0857505949617374,5901.799703444569
1.564,0.09963614948600402,5904.495133006438
1.568,0.27740745108567666,5897.937539282543
1.572,0.417965468489575,5891.190390091938
1.576,0.496940042229874,5896.226548105568
1.58,0.5005912895884643,5897.932914829912
1.584,0.42976561101422134,5896.529097412851
1.588,0.30255373644911276,5903.960063667696
1.592,0.15435754930722825,5901.079332260391
1.596,0.03340549923282144,5903.957146724324
1.6,-0.009155051465728668,5894.964818343013
1.604,0.06662576769687022,5894.040433206453
1.608,0.27493721137424193,5904.828376401592
1.612,0.5951046059588959,5896.85890045456
1.616,0.9731626947649277,5889.955161080016
1.62,1.3346998688819447,5894.9404104323685
1.624,1.6042830407208972,5891.5402291132095
1.628,1.7250339624284892,5891.013646501467
1.632,1.6733654004282827,5899.018571022516
1.636,1.465334534638875,5896.067682146972
1.64,1.1522499732038536,5902.2058066342925
1.644,0.8059477924911781,5893.925117491132
1.648,0.4981038586991135,5894.050586408219
1.652,0.28067821578314234,5901.367380408144
1.656,0.17449698232664862,5899.3837667587895
1.66,0.1697808691073753,5895.889158648392
1.664,0.23723214053404112,5893.7960860637
1.668,0.34375747959059527,5898.679721073652
1.672,0.4655508972324617,5899.6582201040965
1.676,0.5935121024612615,5895.077689584313
1.68,0.7302156123649453,5900.89605823543
1.684,0.8814775189089004,5892.9966247960565
1.688,1.0472041330047033,5901.127676625998
1.692,1.2154568397399876,5892.560424114548
1.696,1.361722785670246,5891.106807856812
1.7,1.453565649005668,5894.927509828393
1.704,1.4594415906540636,5898.876572829508
1.708,1.3590408119831332,5899.386890767656
1.712,1.1513781307232764,5889.472393440373
1.716,0.8573537351634785,5897.095838920286
1.72,0.5159160642091687,5898.401782166034
1.724,0.1754553841273166,5893.699397351407
1.728,-0.11693282029970899,5891.308342194475
1.732,-0.3255945212115251,5890.969591033354
1.736,-0.4332399469531456,5901.744811196193
1.74,-0.44279967239007945,5894.7753503981085
1.744,-0.373966023729892,5903.839985268784
1.748,-0.25568867318177296,5900.321905342199
1.752,-0.11716565967440287,5900.774802661217
1.756,0.01897367086629023,5901.345310470908
1.76,0.13786041526219373,5909.937193176275
1.764,0.2276369238255577,5894.700161398093
1.768,0.27300797246169906,5896.376943525084
1.772,0.25335376283121164,5900.858338146725
1.776,0.14873186231514293,5895.262529823255
1.78,-0.04876851649112251,5889.773006412115
1.784,-0.325121554455455,5885.676898341033
1.788,-0.6424861405846107,5886.99840111159
1.792,-0.9478231290636704,5896.8036325325775
1.796,-1.189189328190362,5890.158074384503
1.8,-1.3329507010545971,5898.48679105974
1.804,-1.374227235663257,5901.304034763175
1.808,-1.3357488609968813,5898.227580189
1.812,-1.2558851369936395,5886.531105467995
1.816,-1.1717733719162664,5901.600160802147
1.82,-1.1052774089608555,5905.331026537634
