时间(s),电压(V),幅值(高频80K)
0.0,-0.018570596911761786,5900.026291092186
0.004,0.29478435405940306,5893.032688096704
0.008,0.5055015340511765,5906.258643324244
0.012,0.5479062560030101,5898.489441591912
0.016,0.40029693421572626,5891.869133958159
0.02,0.09040569313003378,5900.307550560453
0.024,-0.3118174773176217,5894.59674827048
0.028,-0.7112931493454951,5895.875904439138
0.032,-1.010185778445427,5896.360662881795
0.036,-1.1301608649557209,5902.047696403914
0.04,-1.029256858084527,5898.520210941575
0.044,-0.7100249327784751,5900.540279341874
0.048,-0.21876961079457882,5902.118197151797
0.052,0.36229574064914666,5903.410315869074
0.056,0.9287278631153144,5893.382912010002
0.06,1.3731938278201183,5897.254259330549
0.064,1.6088882012675034,5898.151012103824
0.068,1.591666601414229,5897.843470845766
0.072,1.3330044543578552,5903.161625221452
0.076,0.8978746263052317,5893.882031227896
0.08,0.3875540040756169,5899.8369574877615
0.084,-0.08670736902408416,5899.070538579284
0.088,-0.43091401295244425,5904.088841353581
0.092,-0.5896810747931943,5906.661388773985
0.096,-0.5572958181723897,5905.526915675549
0.1,-0.3754521229703937,5898.241945179737
0.104,-0.1170144625180226,5903.868346736069
0.108,0.13951970708931852,5895.652778427998
0.112,0.3349666062468087,5901.455038446594
0.116,0.4439741566453029,5909.417456279959
0.12,0.4752488338432883,5898.236106184244
0.124,0.46075498687349364,5891.48258344692
0.128,0.44054095224783746,5903.029104967424
0.132,0.4488832598698751,5898.121993508189
0.136,0.5048940306679075,5900.794916363888
0.14,0.6087231535364636,5900.24958197509
0.144,0.7429174727284168,5894.481265199723
0.148,0.877208489831859,5898.611125718875
0.152,0.97481509590713,5909.877605826617
0.156,0.9994890451938386,5902.522512662255
0.16,0.9236767155331133,5893.714998739987
0.164,0.7375844238387855,5898.575330337328
0.168,0.4564403901721166,5891.229415614952
0.172,0.12128240783321266,5903.4540219096325
0.176,-0.209846770889905,5895.622090248773
0.18,-0.4786455695686196,5902.993292289191
0.184,-0.6453350442164791,5907.518637080527
0.188,-0.7025895935042272,5902.762087486712
0.192,-0.6793988693713537,5901.2502750985495
0.196,-0.6324972985830625,5897.921399205724
0.2,-0.6268749910100249,5898.503737923175
0.204,-0.7113955847853778,5904.3082178872255
0.208,-0.8986888515859888,5888.735910777657
0.212,-1.1578573417418074,5899.02817216675
0.216,-1.423611795968895,5907.8517502935465
0.22,-1.6186921384199944,5907.655046076523
0.224,-1.681453583437619,5899.351448552136
0.228,-1.589042859064504,5902.593332446073
0.232,-1.3682291557453685,5900.507431410752
0.236,-1.0897833112894546,5891.849074076895
0.24,-0.8475661590219239,5900.840617165126
0.244,-0.7290045259871779,5905.8035675000365
0.248,-0.7872046617974036,5899.303162381719
0.252,-1.0243063732662165,5892.908835058546
0.256,-1.3908470378623712,5895.358054527203
0.26,-1.7997108743554577,5894.036023884717
0.264,-2.1487870729927288,5902.526152654616
0.268,-2.3451140576016294,5900.5200536618095
0.272,-2.324695563598942,5898.159615994939
0.276,-2.0647114095675327,5905.93666247381
0.28,-1.586812316241171,5899.838442529166
0.284,-0.9516166677369462,5896.243402058148
0.288,-0.24639742712436966,5910.570393828848
0.292,0.4303620875653794,5901.145545024876
0.296,0.9840096789249696,5899.732207356534
0.3,1.336745909251939,5895.719643774011
0.304,1.4387745619635854,5900.15511584424
0.308,1.2776659177350442,5896.951637204716
0.312,0.8840845848930201,5895.347707785864
0.316,0.3300945192649792,5904.7391886754185
0.32,-0.2830405165839938,5888.512277402478
0.324,-0.8465246830331621,5902.186157952268
0.328,-1.26918868436032,5906.3083623797165
0.332,-1.498042208919327,5908.4687807989785
0.336,-1.5280017329307292,5892.620185699616
0.34,-1.398651154022098,5903.953343205084
0.344,-1.1797403405026623,5901.540878623793
0.348,-0.9497440760258511,5903.795241066499
0.352,-0.7735158016278111,5895.585731983995
0.356,-0.6858517252885333,5890.548796220723
0.36,-0.6863838607544814,5896.4802198519765
0.364,-0.7468416381820638,5900.85547471951
0.368,-0.8261630058846529,5896.501237465195
0.372,-0.8858197945612765,5900.564019305473
0.376,-0.8991389477328019,5902.595482924749
0.38,-0.8528987642384007,5907.5171335367
0.384,-0.7436357198673528,5903.871538486783
0.388,-0.5725945515052482,5900.203666954939
0.392,-0.34222281398439586,5899.056781544096
0.396,-0.05518792370005815,5912.0837599202105
0.4,0.2843808462810126,5901.083364574502
0.404,0.6678730698129793,5895.89798453194
0.408,1.077663290336314,5902.606159196091
0.412,1.482157191856444,5900.92728574445
0.416,1.8334929196046452,5902.716878885693
0.42,2.072027844565484,5905.514388243249
0.424,2.139546474430539,5905.258453513631
0.428,1.9981077233669153,5901.807316556552
0.432,1.6469830976449966,5887.976950465961
0.436,1.1296594789094494,5907.557471101928
0.44,0.527019148235082,5907.730121328843
0.444,-0.060992371057492556,5894.617274404183
0.448,-0.5383472712324581,5911.378506775201
0.452,-0.8330374930745339,5900.810383374471
0.456,-0.9094110312567755,5897.95366915588
0.46,-0.7713741238061189,5904.718533611019
0.464,-0.4577090522657323,5897.099387060569
0.468,-0.03221116283262818,5900.237480524462
0.472,0.42844325900608493,5893.635806373175
0.476,0.8473163926520112,5904.416368806412
0.48,1.1598397888683412,5888.479660252484
0.484,1.3257141731653652,5891.1197048547465
0.488,1.3375910913765938,5896.503207304923
0.492,1.223072662869531,5905.019467202913
0.496,1.0380642683314298,5897.418629404516
0.5,0.852652788815818,5903.004989341825
0.504,0.7332643511256667,5903.34038624025
0.508,0.7256209066715051,5897.311636746249
0.512,0.8424267495816177,5902.508090482464
0.516,1.058996557147634,5903.160074818093
0.52,1.319235814252656,5896.311458158397
0.524,1.551962206394504,5903.838710448481
0.528,1.693094497299135,5899.010268890269
0.532,1.705381159862318,5902.85513036333
0.536,1.587465866435842,5903.7486206022
0.54,1.3687408880783527,5905.752392090641
0.544,1.092931597106628,5900.128324395108
0.548,0.7983256295009138,5902.534085715629
0.552,0.5040894903608932,5903.684478533139
0.556,0.20952065991164096,5897.019533373406
0.56,-0.09326433178048563,5901.281109832718
0.5640000000000001,-0.40020462725810435,5895.37698287379
0.5680000000000001,-0.6810458948213337,5893.3504003960525
0.5720000000000001,-0.8794935714902493,5902.067193954515
0.5760000000000001,-0.9301490391819169,5897.826498946182
0.58,-0.7859582571354374,5901.713164990151
0.584,-0.4443807677706156,5894.108948053479
0.588,0.039398749452262224,5895.115921660364
0.592,0.5590145302396532,5905.936763354033
0.596,0.982956541581681,5895.937481901176
0.6,1.1928128311889117,5901.993756388624
0.604,1.1211933709926505,5894.378139650423
0.608,0.7754761187311967,5894.375824040577
0.612,0.2378594674882557,5899.558430478651
0.616,-0.35874384953528243,5901.490248773945
0.62,-0.870094909384817,5895.630550567983
0.624,-1.181478898786964,5891.33647714177
0.628,-1.2371502034200959,5899.051480329032
0.632,-1.050804086075285,5902.143330887065
0.636,-0.6964909923796716,5899.881033688251
0.64,-0.28516135535174664,5900.616049968664
0.644,0.06551032379850287,5896.23603373649
0.648,0.2608407423003738,5896.516396869131
0.652,0.2524312506893896,5903.991624477087
0.656,0.05001557238596255,5908.6836749353415
0.66,-0.2815358100777713,5906.160887420844
0.664,-0.6401480220288943,5900.92557903906
0.668,-0.9150500880435791,5898.800517853349
0.672,-1.0176650304419907,5896.601586312945
0.676,-0.9055048439429448,5906.550797875603
0.68,-0.5922184208074568,5897.998615676077
0.684,-0.14213894654584194,5894.805987423472
0.6880000000000001,0.347251864207796,5898.658535426247
0.6920000000000001,0.7689799436422105,5904.844776057101
0.6960000000000001,1.0303803602059196,5894.650134047111
0.7000000000000001,1.0720088336865685,5904.977636296905
0.704,0.8780033649928485,5896.825679553275
0.708,0.47672573464613616,5896.422766727231
0.712,-0.06658938375614872,5897.458727159756
0.716,-0.6622530499831919,5899.544115563523
0.72,-1.211551750793639,5896.358507967472
0.724,-1.6239051713892614,5900.590820841363
0.728,-1.8335731996521898,5899.123609070784
0.732,-1.8123287316424037,5897.290429349768
0.736,-1.5745659442946753,5903.13169026948
0.74,-1.173042872802076,5898.836695877612
0.744,-0.6859769495818289,5902.394162986878
0.748,-0.19882269843264386,5907.737574012943
0.752,0.214286863545801,5891.726810530439
0.756,0.5047756350960174,5895.1659490477405
0.76,0.6566026995535861,5902.493085222255
0.764,0.6847856784414524,5897.458726913425
0.768,0.6259775599008037,5902.094498878881
0.772,0.5240785647962025,5901.705001603144
0.776,0.4163052064401215,5895.79340932319
0.78,0.3253722988273573,5891.929253846432
0.784,0.26068956057427056,5898.771171381791
0.788,0.2270747705544775,5897.948451151648
0.792,0.23543165882162395,5906.731947473697
0.796,0.3082486905177199,5897.7041120469
0.8,0.4752686134688813,5895.1500623245365
0.804,0.7603491425144911,5895.146277464224
0.808,1.1656638641718384,5894.113547212217
0.812,1.660712877710925,5896.803640238061
0.8160000000000001,2.181337677783071,5890.487962426604
0.8200000000000001,2.6403538928185797,5900.283224980315
0.8240000000000001,2.947521190453148,5898.739399797289
0.8280000000000001,3.03262813708529,5898.353186068996
0.8320000000000001,2.863607247029293,5908.133234495841
0.836,2.453906891205169,5908.100332914961
0.84,1.8582688523883355,5903.079521889949
0.844,1.1599559067554053,5896.852644817958
0.848,0.45382645217730855,5901.398108521713
0.852,-0.17063970008865648,5907.943487355095
0.856,-0.6432565182517268,5907.276553473615
0.86,-0.922183086456512,5894.284881852004
0.864,-0.9974805313863566,5902.585922368711
0.868,-0.8894302985514826,5897.046858639691
0.872,-0.6426583966149313,5908.159511280793
0.876,-0.3175602119776016,5897.934272171679
0.88,0.019743077965030838,5904.1480005976655
0.884,0.308069569482587,5901.1156968266605
0.888,0.5012800078974152,5896.282244596587
0.892,0.5759824147467949,5898.119682650426
0.896,0.5349003769226395,5902.255636409298
0.9,0.40446615734960206,5894.64547656825
0.904,0.2264221233744495,5896.120727997047
0.908,0.04559642466655823,5896.380878275792
0.912,-0.10170701949755646,5908.622565535037
0.916,-0.19453878333156988,5900.09207475821
0.92,-0.22804921886590673,5897.799426435182
0.924,-0.20968394090701836,5906.859126086399
0.928,-0.15347520622008617,5900.627998544402
0.932,-0.0749611589033195,5904.911825171046
0.936,0.011418066220704012,5891.274876105142
0.94,0.09215930639327571,5901.584061457947
0.944,0.15356968040339883,5895.149175604975
0.948,0.1822156755672214,5901.522740834117
0.952,0.1677987817187298,5905.680248659201
0.956,0.1067706116339646,5901.549203418634
0.96,0.004042583493877377,5891.566524269791
0.964,-0.12859486471211273,5898.732073708325
0.968,-0.2765319429283716,5905.164694504846
0.972,-0.4268094822240307,5895.8565295375165
0.976,-0.5715280798392617,5899.428210563196
0.98,-0.7101125912035877,5895.009947964859
0.984,-0.8507430780340122,5902.101736207699
0.988,-1.0103538130939655,5906.242251603311
0.992,-1.2116398105986008,5898.432864135475
0.996,-1.4759900136406736,5901.07189516464
1.0,-1.8136048000625322,5893.6181868671465
1.004,-2.2146026567503188,5897.4702983371935
1.008,-2.645212670087025,5906.899841843883
1.012,-3.050936449361308,5904.480491800895
1.016,-3.3660545185864117,5902.903459480379
1.02,-3.5275571881746393,5904.362009634918
1.024,-3.490797121525507,5899.717893754387
1.028,-3.2431097359777046,5899.070106626723
1.032,-2.811149336161344,5913.237854187483
1.036,-2.2587471776259664,5898.124509965838
1.04,-1.6744840720865437,5900.649877668574
1.044,-1.1512443980471352,5900.632025263296
1.048,-0.7631404854416449,5896.753999245811
1.052,-0.5469519983906048,5898.584555484537
1.056,-0.49423243484212154,5894.228573143723
1.06,-0.5568067577071458,5900.64996845891
1.064,-0.6640498694825011,5897.872515599939
1.068,-0.7463777928058906,5911.494747919392
1.072,-0.7568345850773931,5902.400472678252
1.076,-0.6828830210182388,5895.844734018604
1.08,-0.5445151071032548,5896.662520992435
1.084,-0.3812366879701849,5904.545034971104
1.088,-0.23513219108271868,5901.78299248426
1.092,-0.13691438548969825,5895.151567995751
1.096,-0.09837475655798243,5898.754642301625
1.1,-0.11182644848124446,5898.446032174616
1.104,-0.15579559889562264,5899.097605228077
1.108,-0.2048230599620689,5899.780460710799
1.112,-0.23960607776378298,5887.026813937213
1.116,-0.25332291123070316,5910.58558772864
1.12,-0.2516053716234841,5896.352583214819
1.124,-0.24654580790784858,5895.513328065042
1.128,-0.24827138165761256,5897.12682440373
1.132,-0.25949627978813905,5893.864954539666
1.136,-0.2768802593002839,5898.962234461823
1.14,-0.2978366394587761,5900.356694680065
1.144,-0.32668043297616833,5899.001334813912
1.148,-0.3741941328758994,5904.28993078504
1.152,-0.4497989783991905,5897.8708916054175
1.156,-0.5512811784356171,5905.361514101927
1.16,-0.658977869563927,5898.783769900708
1.164,-0.7384548641975917,5891.790105873794
1.168,-0.7507855512523584,5900.384550083365
1.172,-0.6660098927337814,5904.638326007777
1.176,-0.47458133402445285,5900.629463535273
1.18,-0.19303159041307935,5905.841717550219
1.184,0.13759856954924912,5896.520923049036
1.188,0.45989874203958436,5897.674834426362
1.192,0.7126303908906373,5903.132634798748
1.196,0.8445708264923811,5899.19828032722
1.2,0.8262302228773047,5897.0533835429615
1.204,0.6565531994761863,5890.717577426339
1.208,0.3631819847078657,5892.633958289019
1.212,-0.0033716033209804414,5902.6589638039
1.216,-0.3798945696995444,5901.762422754794
1.22,-0.7023437302076702,5899.611817785944
1.224,-0.9166113690274698,5896.445659917709
1.228,-0.9861727002869208,5888.794780177634
1.232,-0.8959186344060979,5901.707860083691
1.236,-0.6525959867203139,5894.908937740039
1.24,-0.28292658372402457,5897.940534315235
1.244,0.16952216801095152,5897.122728150002
1.248,0.6484051173063209,5897.817276469362
1.252,1.090169399730603,5898.573646315989
1.256,1.4317613322208314,5894.373555565849
1.26,1.6204379829960527,5897.552527976656
1.264,1.624660250748018,5898.998201258145
1.268,1.4434576336255116,5896.478738061031
1.272,1.110067271298163,5904.378448158164
1.276,0.6863837786458228,5910.332687184873
1.28,0.24871468212442424,5897.8797103398165
1.284,-0.13025047156591646,5900.116657477683
1.288,-0.39701719278006936,5900.165030663085
1.292,-0.5262864127190948,5906.671484337657
1.296,-0.5223266104455223,5899.462227001253
1.3,-0.41380246797529285,5898.483781479671
1.304,-0.24446410144756034,5903.227920707741
1.308,-0.06277387180576399,5887.875650226304
1.312,0.08704017842780075,5905.2126004215015
1.316,0.17155045611207012,5896.667069822357
1.32,0.172330773532646,5900.464164934977
1.324,0.08757522030173764,5895.717129334488
1.328,-0.06945868798130904,5898.076835618994
1.332,-0.27511190349417813,5893.926308474743
1.336,-0.5015247946981531,5890.81775705672
1.34,-0.7219624356907088,5889.27355636267
1.344,-0.9137292364976886,5903.948000167752
1.348,-1.0588593683842502,5900.759568031234
1.352,-1.1435418841376166,5905.639560214319
1.356,-1.1569796898340268,5902.113548737303
1.36,-1.0904098622654148,5898.582693210195
1.364,-0.9374276005097053,5898.496486311447
1.368,-0.6964705525109389,5900.137351979089
1.372,-0.3750719394206574,5904.987606663237
1.376,0.0061068123036586855,5894.817041388098
1.38,0.4124534939440635,5903.449870772385
1.384,0.7997736140103366,5906.450780475931
1.388,1.1226616033549015,5898.361538359955
1.392,1.342974757187012,5902.334777523792
1.396,1.4348454427929842,5903.975563053985
1.4,1.3854017409197605,5899.50379301697
1.404,1.193025354354713,5898.8853743976615
1.408,0.86610875243265,5900.453839630508
1.412,0.4246555800589992,5897.567838767747
1.416,-0.09523155954938631,5894.203767556688
1.42,-0.6372303853565618,5903.572476808439
1.424,-1.1265008803620382,5904.723183850451
1.428,-1.4812475419119382,5903.37752506549
1.432,-1.632923178933165,5902.916448783867
1.436,-1.5480153713503078,5890.449289726388
1.44,-1.242204314630207,5897.182275594379
1.444,-0.7806595364580812,5903.813783276719
1.448,-0.2638620525709824,5883.636746883575
1.452,0.19679034488291366,5897.68345973788
1.456,0.5064160913635537,5899.896916412395
1.46,0.6090416690636931,5894.327182061495
1.464,0.4987260200755943,5897.19487349476
1.468,0.2174457608460052,5900.340129525299
1.472,-0.15811968512971705,5895.609260239057
1.476,-0.5365859519584446,5886.523305667595
1.48,-0.8335426096925557,5892.224982631825
1.484,-0.9898252104624388,5908.029166107904
1.488,-0.9824965483798602,5911.544783263334
1.492,-0.8270503254655818,5897.714102890562
1.496,-0.5718642493557313,5888.700963925504
1.5,-0.2869885801225052,5892.814185487923
1.504,-0.04871730516878897,5913.190624034086
1.508,0.07873293747162545,5899.179499506126
1.512,0.060958542003273324,5896.596842421878
1.516,-0.09538148208433293,5900.137582981502
1.52,-0.34280976273044683,5899.199457515034
1.524,-0.6052140870935511,5895.008095887874
1.528,-0.7977610464938659,5899.251680761401
1.532,-0.8486810480194673,5893.940466514457
1.536,-0.717686061738292,5896.6033123267225
1.54,-0.4066542063668611,5892.063117864644
1.544,0.0404472053108124,5903.240996272313
1.548,0.548612500252236,5898.933888263476
1.552,1.0305517285083237,5903.943188969793
1.556,1.4075179928921735,5895.089743831764
1.56,1.626255101732938,5902.418270635911
1.564,1.667878082362536,5893.097352609941
1.568,1.5478582401532606,5896.464994931037
1.572,1.3095752349551952,5908.682729061483
1.576,1.0148665533654182,5892.312655489819
1.58,0.7332559926352326,5892.793831164963
1.584,0.5296038991473625,5900.900526354223
1.588,0.4505781999949915,5898.675851080245
1.592,0.5129963083349789,5893.839661501912
1.596,0.6983246557516116,5897.2577022651285
1.6,0.9557933100936353,5895.371041527084
1.604,1.2136029060441473,5896.772249195312
1.608,1.3957501857567982,5903.535845237193
1.612,1.4408610343902164,5903.573546328966
1.616,1.3181796804338255,5899.026637658091
1.62,1.0354470248202527,5907.661610882134
1.624,0.6356036440792103,5907.995270175356
1.628,0.18370588701424292,5906.691269765679
1.632,-0.2506710374565852,5889.61467493688
1.636,-0.6093170721355322,5898.33838914395
1.64,-0.8552617314127793,5898.024616977379
1.644,-0.975608167958751,5904.491130436577
1.648,-0.9792293314433936,5909.369560321582
1.652,-0.8922072962688385,5904.582925350126
1.656,-0.7523215566166391,5903.833354684316
1.66,-0.6017711561213449,5904.616699356175
1.664,-0.47763950004460626,5907.797387831282
1.668,-0.40245041427184614,5900.271814130643
1.672,-0.3792749851439518,5902.557590448075
1.676,-0.39449517766621234,5902.312975685825
1.68,-0.4271644754399105,5903.156814286841
1.684,-0.4600430856311746,5897.454805131088
1.688,-0.48655557013795997,5899.294222293471
1.692,-0.5105164372126881,5905.872252122216
1.696,-0.5396994648703473,5905.724328901567
1.7,-0.5777355897628201,5895.235158214671
1.704,-0.6196668687464746,5906.291332052702
1.708,-0.6542945896007879,5895.15947419347
1.712,-0.672209927606114,5899.735284475691
1.716,-0.6744378797562998,5903.497889210671
1.72,-0.6757908466606329,5901.699765150715
1.724,-0.7003292670752267,5900.205946484305
1.728,-0.7712986812079392,5891.935055252165
1.732,-0.9006466638882785,5902.319597260564
1.736,-1.0822807014264602,5901.888351634921
1.74,-1.2905571088627903,5896.24416402166
1.744,-1.4837662744269131,5903.739753992234
1.748,-1.6122104520614282,5904.227081264689
1.752,-1.6302235091543398,5893.952377365041
1.756,-1.5098633233893266,5900.138121229538
1.76,-1.252147305196539,5902.800495978097
1.764,-0.8914824285538174,5903.211805824957
1.768,-0.49054042536552667,5902.158176377132
1.772,-0.12566592419412886,5896.159754330118
1.776,0.1333383316570464,5898.824470486795
1.78,0.24222735702837286,5901.162963765195
1.784,0.19364707018047533,5901.609853539245
1.788,0.017841909581916338,5893.1157096004845
1.792,-0.22639120927124748,5906.993519617953
1.796,-0.4676147424195926,5905.293204998815
1.8,-0.6408404157121558,5896.941915382394
1.804,-0.7051517108952783,5894.384597825898
1.808,-0.6543929463599698,5904.0679941561575
1.812,-0.5167433800561689,5889.158477726274
1.816,-0.3432150028872156,5900.383681769648
1.82,-0.18990744774744803,5892.323835051032
