时间(s),电压(V),幅值(高频80K)
0.0,-0.5397727966072112,5901.74068455884
0.004,-0.014210804768504202,5901.259327785993
0.008,0.43188253733398924,5894.918649803842
0.012,0.738959314343445,5900.887655687599
0.016,0.8828920610025939,5903.544331573798
0.02,0.8772249587165464,5895.194184804841
0.024,0.7643239102974839,5898.995833795018
0.028,0.5999333740543168,5894.346570983776
0.032,0.43592811539905973,5899.886999544547
0.036,0.30627858452767154,5895.317751391151
0.04,0.22119448633316424,5900.074372544614
0.044,0.1715374164136604,5902.732626670834
0.048,0.1400351700216864,5898.883510004324
0.052,0.11178774074262778,5893.946388617253
0.056,0.07785217795692363,5897.254937821604
0.06,0.03152254636804423,5897.790205112641
0.064,-0.037399858322014964,5904.459933592947
0.068,-0.14384604344239155,5898.487277303451
0.072,-0.3015183621218343,5906.669840756076
0.076,-0.5124422405020587,5898.1205127139565
0.08,-0.7577932405571203,5902.965014241809
0.084,-0.9953669905726614,5901.791695501668
0.088,-1.1667937848096925,5904.683608979966
0.092,-1.2142989551597225,5897.673140969576
0.096,-1.1021447706340866,5906.983367565357
0.1,-0.8336341453596147,5903.667883680333
0.104,-0.4547894132536901,5895.25718647645
0.108,-0.0420400129485173,5899.258760429249
0.112,0.3205908005738951,5902.704771816869
0.116,0.565147021647488,5900.216455377262
0.12,0.6564554218245926,5894.790615066184
0.124,0.5989326633632768,5907.286336964188
0.128,0.4340849394001948,5891.862794665278
0.132,0.23024710311883062,5897.135887209971
0.136,0.0660933422365115,5894.795403492143
0.14,0.010335162096971651,5895.882107952841
0.144,0.10194779206865437,5899.6374257538655
0.148,0.336815295850818,5904.886259980413
0.152,0.6661123793066458,5899.378519872607
0.156,1.0085179301723457,5903.652392986115
0.16,1.2735933561835728,5891.691520087613
0.164,1.3890971364820528,5893.933259185186
0.168,1.3225393266283765,5894.958154199022
0.172,1.0888813592350977,5901.453683616854
0.176,0.742220511929069,5897.797532062972
0.18,0.3563732146661188,5890.781193726857
0.184,0.00294448503755562,5889.109236631055
0.188,-0.2659324231948581,5900.179361423159
0.192,-0.4270972701829235,5899.498661248617
0.196,-0.48813984909549535,5901.605244457796
0.2,-0.48232972578189837,5903.231172685398
0.204,-0.45787868852001923,5894.225882974447
0.208,-0.46404224130411614,5903.3656726067775
0.212,-0.5378835940711205,5908.47524852226
0.216,-0.6951799894459118,5899.030361511592
0.22,-0.9270374134538354,5899.624418147839
0.224,-1.20160732254682,5900.063614912984
0.228,-1.469250643054198,5905.26094082709
0.232,-1.6701514168159732,5903.23693277834
0.236,-1.7445614761270192,5902.431358404343
0.24,-1.6455879584809867,5904.375571597624
0.244,-1.3524243263996727,5900.19799439264
0.248,-0.8799379158824339,5901.635367902543
0.252,-0.2805586339381123,5899.557823255392
0.256,0.36304361283270625,5906.689534318504
0.26,0.9526213970301115,5893.4300941093725
0.264,1.3926599932102801,5895.612199070369
0.268,1.6088289259472728,5897.120504600276
0.272,1.5637034468251134,5895.681636292645
0.276,1.2670298729166243,5908.614347918451
0.28,0.777844702100168,5899.169011234916
0.284,0.1962072638095951,5902.108127013916
0.288,-0.35607135156122915,5903.283150086057
0.292,-0.762797201682878,5897.2197046608935
0.296,-0.9417659233186199,5904.530014243831
0.3,-0.865239242711609,5909.2332254150415
0.304,-0.5658942226970961,5899.383758992033
0.308,-0.12654787101647763,5884.476488428853
0.312,0.34309696790765165,5897.206018819896
0.316,0.7359308649193707,5907.015795653607
0.32,0.9745541901062571,5907.85417462335
0.324,1.0278442744506808,5900.560570004599
0.328,0.9121771011654368,5903.197400712823
0.332,0.678106876188168,5905.0553141383125
0.336,0.3887589875448733,5904.314760081598
0.34,0.09903900942524171,5906.3104273991785
0.344,-0.15670646629847731,5905.680829685359
0.348,-0.36625515987174484,5894.393884388383
0.352,-0.5333847205733638,5899.933389430839
0.356,-0.6688186035347984,5902.707833523414
0.36,-0.7814354147908362,5905.404592851208
0.364,-0.8714916951083417,5897.829497156771
0.368,-0.9276061011397668,5899.38254881055
0.372,-0.9290347229418668,5902.626927633238
0.376,-0.8530819202473358,5904.82498520378
0.38,-0.6853765132922787,5905.874547215184
0.384,-0.4296394628677191,5897.7090111026455
0.388,-0.113500552231586,5902.363610250695
0.392,0.2125720816507797,5892.2832811141325
0.396,0.48476578018740357,5894.852141547987
0.4,0.6425508914647179,5903.253297654472
0.404,0.6474930117081833,5895.908350107659
0.408,0.4969594722977355,5891.76884317627
0.412,0.2267000067166937,5901.099235121729
0.416,-0.09889824056889776,5890.767807821884
0.42,-0.40479329047289875,5901.634251509275
0.424,-0.624990173974889,5892.639987130908
0.428,-0.7182938496913169,5905.31981168422
0.432,-0.6767107240464376,5903.466436650522
0.436,-0.5254069868759097,5901.624291324807
0.44,-0.3151235618637875,5896.22629567444
0.444,-0.10933217785712997,5896.750598012486
0.448,0.03082498635768025,5892.014675789205
0.452,0.06047577447395072,5898.841200675688
0.456,-0.039059389766549615,5898.51112723332
0.46,-0.25610784708689044,5898.977661235575
0.464,-0.5509905946371447,5899.277578098111
0.468,-0.8650812906513284,5901.387071557662
0.472,-1.1356095748303898,5892.438481936885
0.476,-1.3127148916680595,5900.953089916151
0.48,-1.3729012532317675,5899.177977687112
0.484,-1.3232767561780436,5904.617170013565
0.488,-1.1945129989651653,5909.320150081588
0.492,-1.025773287361434,5903.093995529103
0.496,-0.8490198314864644,5898.602285235887
0.5,-0.6801761599802281,5898.689734815061
0.504,-0.5200674495643726,5910.182644032204
0.508,-0.3623043273066549,5896.48645462695
0.512,-0.20265760451175716,5899.802117402055
0.516,-0.045736032924937206,5890.980928010546
0.52,0.09270076211685233,5908.326354833617
0.524,0.1879931462214205,5897.187606656932
0.528,0.21326440717777426,5899.459879740022
0.532,0.14969221146604697,5887.382917579704
0.536,-0.0026116865199799126,5898.093527928083
0.54,-0.2181411015805973,5888.731735377537
0.544,-0.44822949877792817,5891.859563900441
0.548,-0.6325679958731822,5895.69534929773
0.552,-0.7166333060340109,5899.770268023097
0.556,-0.669406199088442,5898.983311603927
0.56,-0.49532430198198735,5892.878153877058
0.5640000000000001,-0.2356040396560715,5900.232649713466
0.5680000000000001,0.043041380854934946,5890.4675362803055
0.5720000000000001,0.26997876218792705,5894.759211161006
0.5760000000000001,0.3955055825163448,5901.17315069334
0.58,0.40897168232930625,5894.414646314379
0.584,0.34168010958918277,5905.428095308951
0.588,0.25250526770392195,5902.241711230242
0.592,0.20224020141337692,5897.6196114386175
0.596,0.22794711232881643,5895.2622728630895
0.6,0.32839532326234794,5901.165952637062
0.604,0.46630751207739063,5893.015296315465
0.608,0.5855311690936995,5896.492124771132
0.612,0.6352887988485828,5895.242724966361
0.616,0.591696972129085,5892.385899418478
0.62,0.46859667906931496,5903.6433058753655
0.624,0.31375879864863526,5902.248992328636
0.628,0.19129781056326348,5894.100262828693
0.632,0.1559813167781258,5905.92901061395
0.636,0.2290310751879087,5907.12560703875
0.64,0.3857374007386172,5903.249298598041
0.644,0.5610523532878325,5901.475034280075
0.648,0.6716685745876024,5901.127449473382
0.652,0.6460041055150494,5895.970515779848
0.656,0.45065465580781755,5899.780090852398
0.66,0.1039861654116007,5894.684969758294
0.664,-0.3273295821161818,5890.395294596649
0.668,-0.7473186223509752,5895.777132381493
0.672,-1.0588905205993475,5897.133884462292
0.676,-1.191961429505574,5898.4602131114325
0.68,-1.1224870515289913,5897.848650917234
0.684,-0.8767994064446802,5898.433066293465
0.6880000000000001,-0.5207701428232068,5912.52246022566
0.6920000000000001,-0.1383520699545171,5905.314739773394
0.6960000000000001,0.19249183952953353,5899.034858790634
0.7000000000000001,0.41823850264473705,5891.314106803199
0.704,0.5179670453297804,5889.943650247852
0.708,0.5014852146591497,5901.150772585405
0.712,0.40064444466967053,5901.610650661133
0.716,0.2576339534326479,5895.316837399169
0.72,0.11372454763626538,5904.021272245889
0.724,0.0011671284347696289,5902.790346327205
0.728,-0.06064570487794225,5894.304322646228
0.732,-0.06558233470627559,5898.308939075404
0.736,-0.01978517775437578,5897.700747708089
0.74,0.05887020898589594,5897.129183100981
0.744,0.14075586416770172,5889.903592938924
0.748,0.18597792978870709,5897.594892459479
0.752,0.15002568852044612,5899.126562450085
0.756,-0.005866169979846822,5898.351724177105
0.76,-0.30246590289967873,5903.871273035644
0.764,-0.7332487040685818,5898.54743494116
0.768,-1.2622944084565837,5902.513321800306
0.772,-1.8308290829796265,5908.915980054056
0.776,-2.370140149264457,5905.261272308958
0.78,-2.8159877047220356,5890.309315965375
0.784,-3.1200413935593763,5896.924789692943
0.788,-3.256527122731697,5898.081658842833
0.792,-3.224208496681415,5907.835519732009
0.796,-3.043942985369429,5900.798956668907
0.8,-2.752260391155424,5897.672022246094
0.804,-2.392974051443097,5908.089960900135
0.808,-2.0099475723193656,5895.626356996197
0.812,-1.6426137538883765,5904.786199812103
0.8160000000000001,-1.322848347700078,5899.699278150221
0.8200000000000001,-1.0709629498604947,5903.131668781646
0.8240000000000001,-0.891164815459221,5898.761459202496
0.8280000000000001,-0.7697958420970215,5895.738139572647
0.8320000000000001,-0.6795019852087167,5901.339069220526
0.836,-0.5892787654935434,5896.910396228775
0.84,-0.47690157204932554,5893.377049574725
0.844,-0.3387132227261641,5882.6509773250455
0.848,-0.1923136370466422,5901.405985058795
0.852,-0.06999421850041379,5898.142033901438
0.856,-0.004467462276254868,5900.32512869517
0.86,-0.012319001519498881,5901.367361123302
0.864,-0.08256131197765121,5896.11873846559
0.868,-0.17635853965643006,5897.439359512692
0.872,-0.23954118524805684,5895.873537834954
0.876,-0.22345191078979165,5905.753442267148
0.88,-0.10497928520267208,5895.193583118445
0.884,0.10347499604176782,5895.624704226583
0.888,0.3582963263504755,5893.438245566512
0.892,0.6002141165927455,5896.2902122664655
0.896,0.7732440232045831,5896.238643115397
0.9,0.8392610954804869,5905.562406362753
0.904,0.7844502157560729,5892.880733785984
0.908,0.6183651515882568,5899.284934282459
0.912,0.36858888161927067,5897.981421430128
0.916,0.07358251508533073,5898.462581500326
0.92,-0.22506966530620198,5890.757030553493
0.924,-0.48994977330671496,5898.833364726225
0.928,-0.6925416683251899,5899.709348255971
0.932,-0.8135973637149682,5897.301126171183
0.936,-0.8398648022184204,5900.251099528276
0.94,-0.7606012073764047,5903.374180283797
0.944,-0.5676680577082095,5907.903983958719
0.948,-0.2606012091407587,5906.531819788321
0.952,0.14547164281039326,5907.319682501876
0.956,0.6133191615129157,5900.811620039691
0.96,1.0823532126959516,5898.6094314849015
0.964,1.4746343500937653,5898.187274858198
0.968,1.7080550921819595,5895.537645960224
0.972,1.714424355566363,5895.169241324504
0.976,1.4582310927849,5891.076317693274
0.98,0.9510948765387064,5903.512740261447
0.984,0.2572745011143688,5895.004567221254
0.988,-0.5133978395620817,5909.582283816508
0.992,-1.2263100690692577,5899.305764179594
0.996,-1.7529350457314756,5897.848130396266
1.0,-2.002951589471137,5901.610406969962
1.004,-1.947046015023675,5901.699615712554
1.008,-1.622988394401521,5900.924049403432
1.012,-1.1235777649400867,5903.370709557651
1.016,-0.5706129000743034,5891.621925702891
1.02,-0.08251904403133263,5896.544499405565
1.024,0.2552872026780188,5900.850422665881
1.028,0.4088099898655615,5895.567165552056
1.032,0.39752790598940657,5895.22234127172
1.036,0.2806074104157314,5890.210825313128
1.04,0.13313778915796093,5896.664646989794
1.044,0.020846563936495466,5886.904277883941
1.048,-0.018618329344363277,5898.354151971384
1.052,0.01744405893854938,5895.2320970443925
1.056,0.1022563667128728,5905.601118598734
1.06,0.19311128678481973,5897.327783842213
1.064,0.2469391583830462,5901.025955553257
1.068,0.23317420089166488,5893.783591214526
1.072,0.1413570643290504,5891.34441760405
1.076,-0.017453773954417915,5896.904638760553
1.08,-0.2149011971342089,5901.1883475106
1.084,-0.4132177894834443,5896.076375357522
1.088,-0.5741596742227967,5894.778037758384
1.092,-0.6666647419502493,5898.472347047319
1.096,-0.671867491615824,5900.842719007274
1.1,-0.5853155301338491,5896.938910396174
1.104,-0.4171288399770557,5900.389656146283
1.108,-0.19092017262458916,5908.6630893303445
1.112,0.05815791574628604,5893.88751003397
1.116,0.286293764428516,5896.550425377967
1.12,0.4454322804436127,5897.955348741809
1.124,0.4905086242751374,5885.258985095235
1.128,0.3901492566629061,5902.842682355529
1.132,0.13858220089794865,5894.134406700592
1.136,-0.23636042617854477,5898.229661066169
1.14,-0.6735999927963962,5897.1734422454765
1.144,-1.0882977347690965,5901.487689719433
1.148,-1.3883649673976692,5901.110989999836
1.152,-1.4951236889433182,5897.493451164501
1.156,-1.364337403225784,5900.7628887801375
1.16,-1.0019571716171083,5899.769494731447
1.164,-0.4684268297827854,5889.518950484663
1.168,0.1319342668969857,5900.4353345884
1.172,0.6750305194041752,5901.428347712566
1.176,1.047967406991153,5896.491648854752
1.18,1.177030074157002,5900.240804013497
1.184,1.043761141482536,5894.320459969605
1.188,0.6856950200817812,5890.309489923731
1.192,0.18439620102153653,5903.393092023136
1.196,-0.35414242728200596,5899.356818865184
1.2,-0.8225811452143703,5898.876989420554
1.204,-1.135113021803032,5904.97237358355
1.208,-1.2452764969113075,5899.042419251885
1.212,-1.1536527105596424,5893.40378805563
1.216,-0.9033106950544361,5898.544842465913
1.22,-0.5652879315841403,5901.7435809067465
1.224,-0.2193871069236063,5891.982581473928
1.228,0.0639887109500844,5900.760943715969
1.232,0.23689116915392494,5893.865375425753
1.236,0.2804899454397489,5896.053575572362
1.24,0.20621446365154572,5895.676670351927
1.244,0.052225113420667456,5898.5765618113255
1.248,-0.1251372013881774,5899.012100415701
1.252,-0.2651139679859126,5900.201820222446
1.256,-0.31939963609372024,5897.617032771911
1.26,-0.2673169516125673,5902.673323145147
1.264,-0.12367800195157994,5907.266518207322
1.268,0.06423162672703024,5892.590287634208
1.272,0.23023800426041946,5900.306551268746
1.276,0.30953410008010795,5898.442671779305
1.28,0.25957410946872445,5895.840938864733
1.284,0.07502196545391891,5905.647553898958
1.288,-0.20859385258154142,5895.047954086023
1.292,-0.5245906932770397,5897.268673577942
1.296,-0.795574740039119,5899.022387173602
1.3,-0.9575300096741888,5896.1287451546295
1.304,-0.9783538996933924,5895.114150518125
1.308,-0.8633341051667935,5902.725157846391
1.312,-0.6455257872340465,5898.608982901321
1.316,-0.36623859610419424,5893.856408617741
1.32,-0.05617262699399683,5896.95168643504
1.324,0.27265116580317983,5895.511950169029
1.328,0.6208338986723995,5888.973148408581
1.332,0.9869713350088579,5903.961319914105
1.336,1.3546550355059144,5898.128804357619
1.34,1.6890517419090474,5891.504672206515
1.344,1.9444436549679502,5900.343579965546
1.348,2.077930470690981,5899.3164969194495
1.352,2.062337369841378,5904.0034907425015
1.356,1.8937444163010588,5896.645643154663
1.36,1.5928892046346639,5896.300826952227
1.364,1.201643699945094,5892.453793246644
1.368,0.7757490770315035,5894.615104775593
1.372,0.37489347846953874,5894.0740738058685
1.376,0.05178995321578484,5898.611885671023
1.38,-0.15743417112913008,5899.13965874535
1.384,-0.23934187840075846,5903.501040924573
1.388,-0.20482799784576963,5905.558421620008
1.392,-0.08674921279126485,5904.917405130877
1.396,0.0658632405546826,5896.973118698874
1.4,0.19718701768231478,5900.1203915431015
1.404,0.2574196706765609,5898.549185260862
1.408,0.21662549432059808,5895.929535323161
1.412,0.07506615161387789,5894.342779921135
1.416,-0.1343072718584173,5903.139649456749
1.42,-0.35291211514649945,5893.807565354568
1.424,-0.5116552597011699,5886.6975113095805
1.428,-0.5500120024880475,5894.836128073475
1.432,-0.43314311246871684,5903.3819416970655
1.436,-0.16095347472294552,5900.433898132375
1.44,0.23424782228311572,5903.856778115018
1.444,0.6996042335899292,5895.025064651768
1.448,1.1767503649020394,5890.524512119573
1.452,1.6134487212862079,5890.6155736329865
1.456,1.968994927639585,5893.278321607318
1.46,2.214686544298884,5906.734296786928
1.464,2.3324179591153364,5892.859399665602
1.468,2.314012308567837,5898.1331613961465
1.472,2.162217652888233,5898.028147062282
1.476,1.8922350320782837,5906.46843288936
1.48,1.5316050356636033,5892.946969601886
1.484,1.117191906352308,5892.370473448859
1.488,0.6898491018111146,5896.419059457555
1.492,0.2882320907651193,5896.861552708295
1.496,-0.057203777740325264,5892.739188741747
1.5,-0.3292852293879923,5897.735565219199
1.504,-0.5268556041065646,5892.430363601495
1.508,-0.6631804895942391,5900.382153875799
1.512,-0.7592378840395875,5892.583354737464
1.516,-0.8339880587997157,5904.869028258699
1.52,-0.8962124976578172,5903.654341293904
1.524,-0.9421647340501174,5893.27865088784
1.528,-0.9598386882093105,5897.094499705027
1.532,-0.9368377316431785,5893.636207432864
1.536,-0.8675483780578962,5896.866398112272
1.54,-0.7567718293638045,5901.280152739483
1.544,-0.6191160696930803,5892.039919782535
1.548,-0.47479559499553853,5896.078382114347
1.552,-0.3432388202276595,5897.54555459363
1.556,-0.2367286400370786,5903.820367982649
1.56,-0.15687379027050652,5891.853135751478
1.564,-0.09596089385811107,5895.612718738122
1.568,-0.0427809127605097,5893.631541890528
1.572,0.010402068496455042,5905.107656161692
1.576,0.06425263945487567,5904.416312998608
1.58,0.11474957124709967,5909.556037023749
1.584,0.16008028990065526,5894.396329893878
1.588,0.20703246070156683,5894.703484610918
1.592,0.2715628114256557,5899.395095637263
1.596,0.37174754885184697,5908.836060234668
1.6,0.5166001895526864,5901.282335390304
1.604,0.6975568547613735,5898.563659382052
1.608,0.8879543048302478,5898.540315112731
1.612,1.0505208107185358,5891.606563758121
1.616,1.1480602836913463,5902.147483803745
1.62,1.15167506127879,5891.432714710068
1.624,1.0439643436691244,5889.8025963574
1.628,0.8187022597790001,5904.974505345284
1.632,0.48031576204735754,5896.721706836278
1.636,0.045076578652556855,5893.5220701948365
1.64,-0.4569426201432655,5902.302037493529
1.644,-0.9819207790634426,5898.349663837815
1.648,-1.4766406781918366,5898.26930999801
1.652,-1.8870530971002613,5894.898282900133
1.656,-2.168354249661675,5895.015433281563
1.66,-2.2929461444334462,5887.23003843915
1.664,-2.254102278733157,5900.91686851692
1.668,-2.0656280840848837,5891.054993430622
1.672,-1.7590037926978481,5888.170453919205
1.676,-1.3789061659204467,5898.161690681184
1.68,-0.9772929841742648,5893.869099380062
1.684,-0.6065359113471442,5901.800822091705
1.688,-0.3126308249023492,5897.82556917787
1.692,-0.12924694188263994,5910.152411486385
1.696,-0.07257574302889282,5890.008831214118
1.7,-0.13695638730214427,5892.309748950351
1.704,-0.29268923884651793,5891.555518276339
1.708,-0.4889119898929529,5900.418685834528
1.712,-0.6637890808384351,5894.756282136551
1.716,-0.7608743557062126,5896.390580573459
1.72,-0.7460468938629445,5890.542564221862
1.724,-0.6173425458291905,5898.016526224563
1.728,-0.4027476461784881,5894.610804354611
1.732,-0.14714205703394392,5897.155825393466
1.736,0.10515927955607428,5891.962513606788
1.74,0.3245087087577457,5897.501009712994
1.744,0.5015483023040775,5895.79502490678
1.748,0.6437286200123331,5896.888645286052
1.752,0.766008314331135,5892.837189267922
1.756,0.8805896882346551,5905.006458073211
1.76,0.9895630161574858,5900.842241203039
1.764,1.082138604320244,5893.617124067573
1.768,1.1363129406566368,5894.146112447116
1.772,1.1239927291670957,5905.098692297333
1.776,1.0185493760588502,5898.6150893065
1.78,0.8036414776014866,5900.136951868481
1.784,0.48119284861592554,5886.468654662601
1.788,0.07534592743046555,5895.499094382289
1.792,-0.3702823868526805,5891.877143473565
1.796,-0.8021829117511282,5889.604405206959
1.8,-1.1705537863831181,5904.461418059624
1.804,-1.4426099511806871,5901.0908041729335
1.808,-1.6115632384327645,5891.516260966462
1.812,-1.6983399227622786,5893.721665551299
1.816,-1.7448261612823324,5898.108891037756
