时间(s),电压(V),幅值(高频80K)
0.0,1.5057464540098038,5906.52576571541
0.004,1.1600768750092427,5904.332521590781
0.008,0.8451238057096554,5900.214553954991
0.012,0.594702822689976,5906.5188003473495
0.016,0.43049331018971815,5902.240935749347
0.02,0.3567347549575202,5894.981257406537
0.024,0.3590720878713946,5898.498717296056
0.028,0.4092098041248723,5898.793042116203
0.032,0.47487463081349746,5896.258425962165
0.036,0.5315965821342887,5890.889625722473
0.04,0.5710624187679069,5898.162368215916
0.044,0.6019094408661293,5895.274340297827
0.048,0.6421951802554937,5907.486555315529
0.052,0.7066293225766613,5901.088569524843
0.056,0.7947182830178382,5895.876470628006
0.06,0.886651574856626,5901.561776732684
0.064,0.9501377629713581,5897.745230989696
0.068,0.9546226729849127,5902.42061307758
0.072,0.8846780145908599,5903.573669466146
0.076,0.7459748362487276,5898.881553278374
0.08,0.5631210623297359,5894.491279963365
0.084,0.37294849399013486,5895.2959209551655
0.088,0.21656978516366263,5893.624954130963
0.092,0.13103895383400338,5894.818878391586
0.096,0.14063214186931253,5898.175192789164
0.1,0.24924727044484146,5898.877970732587
0.104,0.4367409047305228,5901.473670769853
0.108,0.661310318810681,5900.769124866271
0.112,0.8678579075749756,5896.579427819295
0.116,1.0004006780545835,5906.314955657071
0.12,1.0158321148098932,5913.341660386815
0.124,0.8960387425060664,5901.779807830871
0.128,0.6550245209585279,5908.37717413909
0.132,0.33812942101133014,5902.679125364873
0.136,0.012452077786536571,5909.617804898944
0.14,-0.2493856494882516,5898.331980328532
0.144,-0.38744193270471955,5900.026472364738
0.148,-0.3692006793408409,5900.740618998789
0.152,-0.19685266652469877,5899.130726145007
0.156,0.09440421091357322,5909.782007519522
0.16,0.4462692846524264,5896.0227483201015
0.164,0.7927082107685731,5899.355419012901
0.168,1.0763306280764238,5904.271814724464
0.172,1.2607232660345709,5894.970527882474
0.176,1.3350993763116776,5902.649954810011
0.18,1.3105634764206284,5896.849119422259
0.184,1.2101588654569488,5905.749562478796
0.188,1.0565793094547387,5900.250332290336
0.192,0.8620931617978606,5899.876144623502
0.196,0.6248527977975021,5899.059670931852
0.2,0.3336048170398803,5902.359720450341
0.204,-0.020972788382247646,5889.403653126846
0.208,-0.4334763495520419,5903.965820977719
0.212,-0.8755060768717943,5901.301859461356
0.216,-1.2958246712779784,5898.183668559734
0.22,-1.6293908326536655,5902.598043848781
0.224,-1.8126702886343036,5901.685230921854
0.228,-1.8008646036219063,5894.526539325771
0.232,-1.5819052565262417,5901.106885882309
0.236,-1.1820390222060646,5905.1322082791785
0.24,-0.6597642259646098,5891.940028176668
0.244,-0.08959143244917207,5896.192684439025
0.248,0.4575844659507197,5894.516858704125
0.252,0.9288242718535609,5894.156434749759
0.256,1.2929820989758571,5901.983328326939
0.26,1.5353517378481354,5901.251971941766
0.264,1.6492233635422244,5901.109118468795
0.268,1.6302736898324224,5898.86866932031
0.272,1.4758121667775799,5908.545732938378
0.276,1.1875950752093611,5902.785709744967
0.28,0.7766133768270241,5900.873546669847
0.284,0.2688841169780468,5890.330638968649
0.288,-0.2899391762406627,5904.3867199156575
0.292,-0.8351367834310328,5897.049386996565
0.296,-1.2915809894985668,5897.919315364797
0.3,-1.5889924713916035,5901.149801628426
0.304,-1.678289267185895,5900.517540281177
0.308,-1.543191928863525,5896.085473618359
0.312,-1.204031536894277,5902.512477866208
0.316,-0.7137496971919144,5900.775110173918
0.32,-0.14769517702113247,5905.044938963856
0.324,0.4106504382596833,5893.784294027553
0.328,0.8854002589914637,5900.254278533561
0.332,1.2219921232117594,5904.534395041579
0.336,1.3952167305517849,5898.557572001472
0.34,1.409462624190647,5900.349697935949
0.344,1.292230354060972,5909.4952155525725
0.348,1.0844517638419202,5897.562003984916
0.352,0.831321802842981,5903.444583960625
0.356,0.575581486505849,5907.16928080175
0.36,0.35314720778540715,5892.947090867571
0.364,0.19006754258887365,5908.343306100097
0.368,0.10022391586869794,5891.189690997055
0.372,0.08418759080895206,5895.204057549996
0.376,0.13019761250642584,5903.624067354792
0.38,0.2177285531226494,5899.6141550604425
0.384,0.3227689916509002,5897.3046739709
0.388,0.42272797492841496,5902.397654324926
0.392,0.49890541472712424,5905.0786956279135
0.396,0.5360232280336337,5896.849185859241
0.4,0.5205103975340196,5897.988344959885
0.404,0.440245250741755,5898.302813211722
0.408,0.28725394476521526,5900.640668309287
0.412,0.06260658510469082,5902.381276013798
0.416,-0.21864961713354675,5897.779212176122
0.42,-0.5249031211885302,5908.56278888253
0.424,-0.8099340919546184,5903.49729123782
0.428,-1.0208420931807578,5905.954163536369
0.432,-1.1111582909314934,5894.312292814534
0.436,-1.0553186783712427,5892.784587889218
0.44,-0.8590889029697177,5904.547092540074
0.444,-0.5617214082101062,5895.2248734191535
0.448,-0.2286269024870076,5900.988670547028
0.452,0.06351276769606475,5903.692473768078
0.456,0.24496731874664118,5896.071399659659
0.46,0.2693923365059027,5902.039118731044
0.464,0.12403362400475622,5900.319869443337
0.468,-0.16881393294471733,5899.656915761418
0.472,-0.5589999066165864,5897.900857575864
0.476,-0.9816383158172047,5895.699181110707
0.48,-1.3717317407328975,5903.374568105
0.484,-1.6760787286522916,5896.916241484481
0.488,-1.8602958006208823,5900.210483135355
0.492,-1.9111283506907912,5899.293444338336
0.496,-1.8352864651138063,5901.925798188773
0.5,-1.6559897796893672,5892.898037617366
0.504,-1.4081006816051187,5893.020160278015
0.508,-1.1322406373690845,5907.280262933871
0.512,-0.8679223943515575,5902.568799684284
0.516,-0.6462299299219341,5900.56364671341
0.52,-0.48349140553579667,5890.443628267903
0.524,-0.3776235375652792,5901.026751646533
0.528,-0.3083607705282356,5901.91855695449
0.532,-0.24192721007532364,5897.273034941502
0.536,-0.139796422122914,5902.398978080612
0.54,0.030131362910461538,5902.969321938671
0.544,0.2827636532422836,5911.00638861498
0.548,0.6084354961391081,5890.642055909108
0.552,0.9710352330118226,5896.910595960508
0.556,1.312768010437469,5898.671380989522
0.56,1.5657019737138638,5900.306884567615
0.5640000000000001,1.6684394682773576,5900.068427654831
0.5680000000000001,1.5837367625338457,5902.727414911155
0.5720000000000001,1.3112275167208813,5898.834197604189
0.5760000000000001,0.8900349076156021,5899.043294810405
0.58,0.3892969669656466,5896.412036523014
0.584,-0.1105729356563284,5905.211257195924
0.588,-0.5391986522485115,5896.93933720924
0.592,-0.8528456809383665,5889.590272150473
0.596,-1.04170471670015,5905.758158928569
0.6,-1.126982263181745,5897.641020691605
0.604,-1.1497017285694764,5894.500957492874
0.608,-1.1546093671822593,5901.988321092117
0.612,-1.1736078741287996,5901.612472052491
0.616,-1.2138740042797065,5894.143069422948
0.62,-1.2552262610470457,5901.721470041958
0.624,-1.2584968547377102,5897.432496322615
0.628,-1.1821532436480964,5897.155637155621
0.632,-1.000534584580514,5892.634953372066
0.636,-0.7166312934284927,5906.780344369858
0.64,-0.36549083973360535,5902.524947534566
0.644,-0.008045923332388495,5898.013032684485
0.648,0.2827565321558004,5901.133803398308
0.652,0.44035407739379345,5900.359982138827
0.656,0.42276647078371493,5902.836840144399
0.66,0.22509053742219157,5906.3255957968495
0.664,-0.117755954160965,5890.60021344178
0.668,-0.538923440218374,5902.999165495194
0.672,-0.9559427352160939,5896.425687352146
0.676,-1.291124754749718,5900.23957699472
0.68,-1.4905536460041295,5895.955189604413
0.684,-1.5364262939639814,5905.240959651143
0.6880000000000001,-1.44951521180181,5891.79396617842
0.6920000000000001,-1.2814281381572437,5903.587345697198
0.6960000000000001,-1.0988767248492122,5896.196484939077
0.7000000000000001,-0.9643136396819075,5901.826968844255
0.704,-0.9191519395321402,5901.424515797252
0.708,-0.9757397744530033,5896.077622119439
0.712,-1.1205463833058134,5895.746845240895
0.716,-1.3250282488870528,5904.647692535547
0.72,-1.5567449963653184,5903.249463480781
0.724,-1.7846382807852548,5898.170331103852
0.728,-1.9778415600483021,5896.0840463480135
0.732,-2.102561648628742,5903.047848281049
0.736,-2.1226202192032217,5896.893390304149
0.74,-2.0060086615421926,5901.204145518499
0.744,-1.735312534276101,5891.750418426434
0.748,-1.3170760922179396,5901.060527553852
0.752,-0.7853097750588528,5896.671363339175
0.756,-0.19722020344515276,5898.491336945392
0.76,0.37687908118937347,5901.634188692449
0.764,0.8654572613086107,5898.850548776363
0.768,1.2062559549995833,5894.715864705633
0.772,1.3540048711668005,5898.553927642298
0.776,1.2849287728207495,5897.46145548802
0.78,0.9980859074720115,5895.51704169592
0.784,0.5145961388464063,5900.809880120879
0.788,-0.12335846139220737,5899.539709324644
0.792,-0.852789120672122,5903.1801112905205
0.796,-1.590970895509772,5900.974401069729
0.8,-2.2408490299102937,5899.9135184544975
0.804,-2.7035227987677435,5898.271339341329
0.808,-2.89710706038888,5901.314315349745
0.812,-2.777331641889514,5891.841932410075
0.8160000000000001,-2.3529531737451403,5893.826548559669
0.8200000000000001,-1.689512059277389,5909.386330400196
0.8240000000000001,-0.8983405268297923,5902.393554845414
0.8280000000000001,-0.11282466570780664,5903.007858011053
0.8320000000000001,0.5416627618380084,5900.152629541496
0.836,0.9758352696660125,5901.301167827499
0.84,1.1550261206645418,5908.894877639042
0.844,1.1034476872198693,5898.93090995933
0.848,0.8934938959333033,5898.31660897195
0.852,0.623579898305248,5898.064863240917
0.856,0.391064677829553,5901.878408339081
0.86,0.2678694476479344,5901.268341829268
0.864,0.2850908778660251,5904.369268313306
0.868,0.4294899479841696,5897.404636640511
0.872,0.6506751599926147,5900.370325912008
0.876,0.875194601762822,5897.327269010953
0.88,1.0235424981291168,5893.956056220786
0.884,1.0271299276216779,5900.8134965767695
0.888,0.8429715470638561,5910.301571039117
0.892,0.46410980871808505,5894.572680914526
0.896,-0.07578687097221057,5898.66616197452
0.9,-0.7048717577576422,5906.756937562172
0.904,-1.3235119946704132,5895.574952532636
0.908,-1.822209725096278,5894.402361383285
0.912,-2.1041279151294225,5900.089331153657
0.916,-2.106988926452385,5901.974148348359
0.92,-1.8185318506388026,5904.4114968565655
0.924,-1.281276959907521,5908.497935991011
0.928,-0.5851978899392019,5901.443883940892
0.932,0.15029860718212715,5903.951621694391
0.936,0.8014843125869023,5902.341918746783
0.94,1.2670384012506986,5907.397765183927
0.944,1.4896598013208913,5907.275654534591
0.948,1.466400239879397,5895.073790808156
0.952,1.2446127251997445,5901.967129276972
0.956,0.9049100533408767,5899.914597374892
0.96,0.5365821195311702,5900.896377824356
0.964,0.21318171632411564,5901.392679087253
0.968,-0.024175616229242133,5897.750090448589
0.972,-0.1711267401549493,5898.03772770025
0.976,-0.2522444456919308,5889.52727902553
0.98,-0.3059161318920274,5904.842380902269
0.984,-0.36836748922551305,5906.901156058578
0.988,-0.4617074760449301,5893.675699141681
0.992,-0.5879211471871737,5906.670469918275
0.996,-0.7284306380849345,5904.416178451616
1.0,-0.8483870656510499,5893.325362326318
1.004,-0.9054649923890097,5891.5308011736
1.008,-0.8622971072029932,5910.602803230422
1.012,-0.6994172964340873,5896.958197776307
1.016,-0.4241445780045369,5896.288452948071
1.02,-0.0720086647577106,5896.430641322565
1.024,0.29977252356908135,5897.4332480948415
1.028,0.6242985511973759,5895.839266066486
1.032,0.838302689788027,5909.875734626925
1.036,0.8931371981771177,5908.496968235813
1.04,0.762230863338569,5896.72631595225
1.044,0.4458845030600544,5907.9148325325
1.048,-0.026080018991307224,5906.372679254797
1.052,-0.595219929868727,5902.510409566361
1.056,-1.1809583374493242,5907.255839127792
1.06,-1.6927498450369258,5896.228346064649
1.064,-2.045436270752681,5901.443925239919
1.068,-2.1745222322602897,5895.947382476173
1.072,-2.0487575667175717,5898.430121680392
1.076,-1.6776307118178428,5899.318361463746
1.08,-1.1111536008531484,5907.519473361247
1.084,-0.4304167478048795,5895.534132041853
1.088,0.2695253841433401,5901.449334263329
1.092,0.899386832519127,5908.208983343276
1.096,1.3915344667333234,5905.864716896548
1.1,1.7076580277570665,5898.870845063437
1.104,1.8381860140849322,5906.436936426257
1.108,1.796641921905655,5903.974727998618
1.112,1.6125537900700617,5890.163578563351
1.116,1.3253530902721726,5899.919273950918
1.12,0.9802172165221136,5897.630521887022
1.124,0.6252286060888326,5909.471721392217
1.128,0.30829176570733197,5902.006412607499
1.132,0.0726659150534394,5895.345613444249
1.136,-0.04903721748390647,5892.737361434768
1.14,-0.04169434761364697,5893.358066200025
1.144,0.08649777793778035,5901.526447762732
1.148,0.30225655092695547,5905.904640404629
1.152,0.5522234131769517,5902.62383952077
1.156,0.7749054947328992,5906.516886713291
1.16,0.9164196247410163,5888.025410014273
1.164,0.9448820876548906,5890.892537906142
1.168,0.8584470953385351,5896.393903721118
1.172,0.6840602185923361,5900.999066442102
1.176,0.4670305776840602,5895.981006923147
1.18,0.2547385960132489,5897.926270605487
1.184,0.08046150418496283,5904.908152063964
1.188,-0.04601480140196864,5906.5182144366245
1.192,-0.13695863597384053,5906.137189257297
1.196,-0.21553104132803683,5909.385378200657
1.2,-0.3007066284302723,5897.636461029386
1.204,-0.39561765207928595,5901.992974656705
1.208,-0.48438187339742655,5899.963288915447
1.212,-0.537934031030358,5903.27937663167
1.216,-0.5252786852980089,5897.453277575606
1.22,-0.4250602297077053,5899.794505957713
1.224,-0.2334571322583284,5904.414597236402
1.228,0.03351591678639985,5899.682659052849
1.232,0.34355544251647285,5900.592389835572
1.236,0.6565153585155221,5899.565185794443
1.24,0.9354768435398662,5896.711462785442
1.244,1.1568130464461566,5898.877425914435
1.248,1.3152776097483274,5895.563467690283
1.252,1.4216611376932484,5901.360492249675
1.256,1.4935918819329246,5911.390314870811
1.26,1.5434871604705225,5908.403764425171
1.264,1.5698699530455953,5902.222197101067
1.268,1.5572575039748806,5904.32566389288
1.272,1.4851610290469142,5906.956949075286
1.276,1.341212321438005,5906.127569173775
1.28,1.1309698945997444,5906.26130123538
1.284,0.8788876819955161,5907.623442107038
1.288,0.6197048987525953,5892.733296095325
1.292,0.3848314222570917,5901.185618315209
1.296,0.1915248986490841,5910.358804500617
1.3,0.04106992126634806,5895.028977033976
1.304,-0.07395914046938118,5909.039404921327
1.308,-0.15930492128781162,5901.739934520229
1.312,-0.21265222682067905,5897.52804504596
1.316,-0.224468525639115,5900.9766606255125
1.32,-0.18397585179812725,5898.71302647983
1.324,-0.08588719000867007,5904.439887883736
1.328,0.06482677253058858,5902.684319894737
1.332,0.25041552330467554,5900.545704521131
1.336,0.4399703869538478,5902.514069474132
1.34,0.5921380791806682,5894.89355282641
1.344,0.6619828879322587,5904.504259572512
1.348,0.6114225613483459,5912.955796940645
1.352,0.42045383460674185,5906.290822918732
1.356,0.09518823424010577,5903.574438434805
1.36,-0.3306202861494579,5904.065892841268
1.364,-0.8015135781832766,5895.231916802756
1.368,-1.2517265364733803,5903.162122398096
1.372,-1.6181940732491562,5898.631580210612
1.376,-1.8516711858034733,5905.6056361282735
1.38,-1.9241731489443221,5902.344114831918
1.384,-1.8322414865027035,5901.628446127428
1.388,-1.5959659429356157,5903.1679011473725
1.392,-1.254029296825856,5894.273655902346
1.396,-0.8556631240328759,5896.628264085668
1.4,-0.4511059884523611,5899.191104941766
1.404,-0.08283039948738984,5901.438863550262
1.408,0.21995428858973237,5902.275326312207
1.412,0.4419735600096532,5902.084142371741
1.416,0.5782905091829084,5893.98175229501
1.42,0.6289008049571833,5900.919317645003
1.424,0.5943635486050389,5904.944828697558
1.428,0.4743125054557143,5906.572939815255
1.432,0.2694136972548317,5905.194400537475
1.436,-0.013806313515148296,5898.217247242537
1.44,-0.35727613525781476,5904.599139311492
1.444,-0.7282894111472904,5895.027120343308
1.448,-1.0824081453364531,5901.022649441737
1.452,-1.3732807393585635,5900.050335885459
1.456,-1.566304492467347,5900.315662445538
1.46,-1.6499640908987614,5895.116416402605
1.464,-1.6389315884914726,5908.278180840063
1.468,-1.5669612009664802,5901.134995967974
1.472,-1.4727827814686758,5894.820287570171
1.476,-1.3854409877130607,5910.429733370637
1.48,-1.31528461496788,5897.511933987757
1.484,-1.253682279160388,5899.072859317754
1.488,-1.180562894181885,5898.114513075057
1.492,-1.0759090967145437,5894.473422393847
1.496,-0.9300820667779576,5894.664737315077
1.5,-0.7484783259384765,5906.024010514917
1.504,-0.5484889841478873,5903.00991409124
1.508,-0.3502908727758454,5905.972955631985
1.512,-0.16607210589449617,5895.425954044713
1.516,0.0066618411286004054,5900.590203888378
1.52,0.18371815025760282,5906.796386195786
1.524,0.38462762262879063,5895.188453661082
1.528,0.6189928914093651,5894.868049364563
1.532,0.8755308303649294,5897.677097240635
1.536,1.1198862532190148,5897.808940238353
1.54,1.303439509951477,5906.294251958885
1.544,1.3802423819930218,5893.701884505778
1.548,1.3255051842641348,5898.437197357027
1.552,1.1482930698602853,5898.477151036617
1.556,0.8931956888495548,5900.381858471078
1.56,0.6297108833895184,5900.318251839147
1.564,0.432596043502051,5903.008623371346
1.568,0.3598477999741793,5903.288114151638
1.572,0.4357281314858265,5903.317340182459
1.576,0.6439910751081188,5900.018343427607
1.58,0.9325562942206138,5898.19348279418
1.584,1.227396920544336,5901.897084271405
1.588,1.4514769457403667,5894.578079209202
1.592,1.5439855032323297,5901.616289035442
1.596,1.475256425493857,5904.5632116357765
1.6,1.2535583940517272,5904.103059310723
1.604,0.9217949865081282,5902.798814156267
1.608,0.5449182612180578,5900.017502461041
1.612,0.19155650270064398,5902.254437913262
1.616,-0.0849126733142917,5895.747325900711
1.62,-0.2602221184916221,5906.542826741074
1.624,-0.34352659549882875,5903.253450179176
1.628,-0.3704758856073568,5897.617835863185
1.632,-0.38746107992379125,5901.323824513968
1.636,-0.4333393790679741,5900.435877448235
1.64,-0.5261207091432727,5910.7721176979
1.644,-0.6593367949754605,5905.97995759625
1.648,-0.8080046176043548,5897.280251744877
1.652,-0.9404576973873054,5900.234548879256
1.656,-1.0311208092474968,5909.051433550707
1.66,-1.0696776956656822,5894.907745050147
1.664,-1.063446433553392,5906.038136689266
1.668,-1.032434338062782,5904.653896144831
1.672,-0.9998656905762643,5897.413369933734
1.676,-0.9830263335303054,5895.164226341855
1.68,-0.9886093407415935,5900.3511495124185
1.684,-1.0137100161369528,5898.00174002802
1.688,-1.0502752928056882,5905.679807496057
1.692,-1.0896945209183069,5903.680999954368
1.696,-1.125835168773703,5900.266083975852
1.7,-1.156895412914186,5899.736457308441
1.704,-1.1867008593767292,5901.70060942388
1.708,-1.224790132391847,5908.554315543585
1.712,-1.2837411592314694,5906.029667992551
1.716,-1.3731619206787302,5893.494419162461
1.72,-1.4923501298999424,5896.934223401408
1.724,-1.625592889366927,5898.269555744973
1.728,-1.7431941199280385,5900.805944294785
1.732,-1.8081419530744756,5903.95498075453
1.736,-1.7856861432386775,5901.186834234887
1.74,-1.6527538369640036,5914.06845087032
1.744,-1.405256652975366,5888.995655405544
1.748,-1.0620113472453698,5901.748738569791
1.752,-0.6637003483725351,5905.173767751451
1.756,-0.26573315876072706,5899.097126387977
1.76,0.07355723884535285,5903.971276282236
1.764,0.3049793496379109,5901.23034477969
1.768,0.39637022240972575,5904.089561821518
1.772,0.3352166083243419,5904.888780532508
1.776,0.1283292798493559,5895.709965238054
1.78,-0.1988250023564078,5899.99605667741
1.784,-0.6030077238709326,5902.763283038247
1.788,-1.0264504887844004,5900.517105356223
1.792,-1.4043192301067564,5900.844616583121
1.796,-1.6756644812246315,5906.421245866306
1.8,-1.7944425712903782,5893.618227932552
1.804,-1.7367550712405244,5902.187081118194
1.808,-1.502592479356103,5895.063512738773
1.812,-1.113159041113126,5910.6262361872205
1.816,-0.606192740380648,5906.2788248885945
1.82,-0.031095948774875308,5901.882664446199
1.824,0.5559514758746308,5897.96673456774
