时间(s),电压(V),幅值(高频80K)
0.0,4.185315140440199,5899.815649804686
0.004,2.8357945285933854,5904.086893370128
0.008,1.5989531824329628,5895.705304930925
0.012,0.574435925160964,5899.958465860122
0.016,-0.17594830871256642,5902.802556133053
0.02,-0.6329180279883412,5899.864132457607
0.024,-0.8132349981241132,5899.198363598445
0.028,-0.7574757660409699,5902.666701967568
0.032,-0.5195052952657672,5898.098579585882
0.036,-0.16142106615889637,5887.250888555735
0.04,0.24813763664458485,5891.906908815081
0.044,0.6371006913680833,5893.666192407878
0.048,0.9371702827388277,5894.534353144758
0.052,1.0937509830443153,5895.737462331802
0.056,1.0750175060986462,5899.32561113134
0.06,0.877349466919651,5904.505183720911
0.064,0.5263539873151484,5896.154602042284
0.068,0.07345450702899312,5906.410556000786
0.072,-0.4123128926549632,5903.201330908851
0.076,-0.8569425834727961,5902.147540062913
0.08,-1.195863934811823,5890.456408622343
0.084,-1.3857465861317435,5899.6079352888
0.088,-1.4104015257001778,5894.635133500552
0.092,-1.2804300551581709,5904.33399668581
0.096,-1.0285438585194904,5894.603627019402
0.1,-0.7028222247204317,5894.625712706797
0.104,-0.3594004945098123,5896.328956885609
0.108,-0.05526927355551487,5904.206680730429
0.112,0.1586651839579704,5900.219519400098
0.116,0.24429774129501544,5899.271422491125
0.12,0.18257090435247902,5899.890343253317
0.124,-0.02191780945235698,5899.704714844776
0.128,-0.3402373529813225,5901.198895343121
0.132,-0.7243368681894371,5899.026805608879
0.136,-1.1172783466162166,5900.310134994926
0.14,-1.4644338786064044,5909.844470988005
0.144,-1.7215732373224095,5902.899880531908
0.148,-1.858886128677133,5901.35390105581
0.152,-1.8626620211763534,5907.3311976197065
0.156,-1.736242486384311,5899.219117393546
0.16,-1.500006299378231,5898.179965130453
0.164,-1.188915514971613,5900.702151068533
0.168,-0.8468323948220609,5897.618694386649
0.172,-0.5186082516207865,5901.482750310908
0.176,-0.24205263114156614,5896.8974665409705
0.18,-0.041939999166002585,5910.245705369869
0.184,0.07196573615624871,5910.278755509679
0.188,0.10177526206951149,5900.3234164851565
0.192,0.0548334220000339,5899.2046310757405
0.196,-0.06185039384206197,5899.214016841293
0.2,-0.2416428592898922,5898.712599437462
0.204,-0.47234049979210024,5897.498126883371
0.208,-0.7287693624353184,5893.132350391133
0.212,-0.9705582476878568,5904.595261483987
0.216,-1.1488220347885258,5908.145124746612
0.22,-1.2192606087185884,5889.950151708936
0.224,-1.1546336313630643,5902.551264998409
0.228,-0.9505635019862753,5900.686139876518
0.232,-0.623582140080731,5898.800266770039
0.236,-0.20452602670667108,5899.5781360283445
0.24,0.26863095312604895,5903.906958743112
0.244,0.7556611175411656,5901.566174833233
0.248,1.2158199506050331,5894.307955662021
0.252,1.607671119218404,5905.541249390032
0.256,1.889752777318477,5897.347419755011
0.26,2.0245780977949037,5893.067619069345
0.264,1.9860220285612051,5898.65662788423
0.268,1.7671370316724633,5904.321589084179
0.272,1.3842890246949577,5897.27654513067
0.276,0.8751494350376295,5897.651270400078
0.28,0.29136810895638887,5894.621976395901
0.284,-0.31066407865438284,5903.130801831745
0.288,-0.8776408995983989,5896.038834060822
0.292,-1.3647159192073601,5899.3650541272345
0.296,-1.7389854063478032,5898.232431418905
0.3,-1.980897881522392,5904.193887518688
0.304,-2.0825002848537433,5895.041250443951
0.308,-2.0431402647978496,5908.016147419918
0.312,-1.866189809751325,5898.75921944895
0.316,-1.5603567375055019,5896.326477883348
0.32,-1.1451687872642802,5895.933077702796
0.324,-0.6559536070126528,5899.638835182723
0.328,-0.14307568844222154,5902.980932688392
0.332,0.33629666350848214,5910.174758769489
0.336,0.7309107471333685,5892.02998196318
0.34,1.0069987855595113,5905.502298976293
0.344,1.153717095325813,5896.501270378522
0.348,1.1807354592684305,5900.804811930465
0.352,1.1103418859466656,5892.602082350009
0.356,0.9687376217148133,5906.242298030167
0.36,0.7801580305580624,5907.243037452227
0.364,0.5647767575973532,5900.424258515802
0.368,0.3398966724395308,5903.40676322946
0.372,0.12373469565405901,5905.583650207902
0.376,-0.059692749694042854,5895.938846691372
0.38,-0.17751701745746543,5908.164123751275
0.384,-0.19014398982385464,5900.443062053935
0.388,-0.06047516069119474,5907.062836516053
0.392,0.2309213550834465,5892.476630718328
0.396,0.6698411774467803,5907.520829108942
0.4,1.1996005522651954,5901.052668451815
0.404,1.7258576534081513,5898.313180097707
0.408,2.1360023975331512,5900.190867307287
0.412,2.3276433701019403,5892.605963604743
0.416,2.237100077817202,5896.254410304606
0.42,1.8589707077995659,5897.566483549636
0.424,1.2509448100009561,5902.750285870935
0.428,0.5225496064007014,5901.294998636458
0.432,-0.18896809046177515,5901.765879190663
0.436,-0.7491487297842435,5903.451594226667
0.44,-1.055644108876415,5898.424031086402
0.444,-1.059684703614145,5900.451306778231
0.448,-0.7749858545289455,5898.022206132217
0.452,-0.27227774154043655,5901.752239893485
0.456,0.33856402239011657,5893.133199539368
0.46,0.9335495837434821,5895.240993042844
0.464,1.4004841012537432,5899.6434304517625
0.468,1.660466331378373,5901.217385457162
0.472,1.681229964402739,5907.076984116505
0.476,1.480026561361864,5902.404802730074
0.48,1.1157085076968123,5899.288140628632
0.484,0.6722140683970862,5890.944121963001
0.488,0.23757484778282756,5897.929377986955
0.492,-0.11684510661083293,5891.383021373315
0.496,-0.35215775240280617,5897.143163754193
0.5,-0.4682955246472262,5894.093046180271
0.504,-0.49811296302712255,5908.6845394448455
0.508,-0.49079083691456005,5902.558268088698
0.512,-0.49128042334092054,5905.165507912454
0.516,-0.5246135665273017,5905.494463621429
0.52,-0.5906210095253454,5904.4287984493785
0.524,-0.6684742197283892,5894.695934493475
0.528,-0.7265220212645557,5906.325829790736
0.532,-0.7330581207570471,5896.395406813595
0.536,-0.6654059806909746,5909.58669791774
0.54,-0.5157153997710182,5896.9626295336975
0.544,-0.2926405367681718,5895.517952378459
0.548,-0.019178420962838533,5900.699624202185
0.552,0.2722677545243999,5897.337105635573
0.556,0.546013395624525,5901.796586824167
0.56,0.7682165200748812,5899.601765724442
0.5640000000000001,0.9092335511866364,5897.944058485632
0.5680000000000001,0.9438544557596693,5897.573119873808
0.5720000000000001,0.8527599626181753,5896.101866328397
0.5760000000000001,0.6282508186387855,5895.282283899752
0.58,0.2832027848134437,5896.634789848044
0.584,-0.14241665300831563,5892.194639750201
0.588,-0.58390580147378,5902.11369177595
0.592,-0.9651442583070983,5911.431926926499
0.596,-1.2185703276733728,5905.9686927324765
0.6,-1.3037698928919115,5909.346703948017
0.604,-1.2174150604490017,5888.470228775451
0.608,-0.9911273978333911,5892.764554955403
0.612,-0.6786107288783254,5899.668938661589
0.616,-0.3374625257780819,5898.756966392469
0.62,-0.012671441633557455,5907.417632570507
0.624,0.27280928282107875,5900.273075409164
0.628,0.518526816904113,5891.83705974242
0.632,0.739528998566527,5904.695504156146
0.636,0.955475585230541,5903.697897280106
0.64,1.1797928762853498,5896.941086233909
0.644,1.4117712406222955,5900.028918874325
0.648,1.6332886535826823,5896.781514498031
0.652,1.8111388958218058,5904.540032602847
0.656,1.9048099905344948,5903.5774962833775
0.66,1.877323006839566,5901.087335679839
0.664,1.704949208843168,5900.921370484944
0.668,1.382346910481037,5903.304535387832
0.672,0.9227669377874304,5896.734387938084
0.676,0.35596011547667933,5898.419046134254
0.68,-0.273299923939326,5899.610232915075
0.684,-0.905681039203202,5901.142511619601
0.6880000000000001,-1.4692240771818312,5905.715611663761
0.6920000000000001,-1.8859951281284921,5904.617358091004
0.6960000000000001,-2.084780026335896,5904.151002934307
0.7000000000000001,-2.0176236718505023,5900.132506515904
0.704,-1.674798332061753,5899.307752798888
0.708,-1.0919140493133197,5901.431847346323
0.712,-0.3455798737651126,5900.021600103257
0.716,0.46104242174139115,5901.528097525147
0.72,1.217691801729975,5894.357573713972
0.724,1.8258740191882634,5898.0081670230375
0.728,2.213479735825613,5901.767978889439
0.732,2.3438638527914284,5905.371924919315
0.736,2.2194258901906427,5907.094764787819
0.74,1.8797689010276728,5895.986805428637
0.744,1.3943856340808505,5896.860847915575
0.748,0.8505473801327056,5900.912860276969
0.752,0.3382490123893777,5900.7773586226685
0.756,-0.06509741920886082,5901.452611947383
0.76,-0.30727822078987954,5898.819284587187
0.764,-0.3687302031333101,5901.035693585929
0.768,-0.26335882569806773,5894.539506085442
0.772,-0.03237871279894754,5899.844134043618
0.776,0.2675204190271017,5901.14214863904
0.78,0.5779901571265195,5902.082541760969
0.784,0.849754944832699,5905.062053665067
0.788,1.0469170034498794,5906.457426029886
0.792,1.1456767805164116,5897.786651812992
0.796,1.131849843367913,5892.516756200361
0.8,1.0017081589194021,5893.7660922750265
0.804,0.767208569337549,5892.985713730033
0.808,0.4620402676793628,5904.375381675535
0.812,0.1424594325719877,5890.214123573795
0.8160000000000001,-0.12150268729479645,5905.982970210881
0.8200000000000001,-0.2638923832282455,5898.1198922233125
0.8240000000000001,-0.24373065652974416,5899.074648929625
0.8280000000000001,-0.060293365040610204,5890.9160780977
0.8320000000000001,0.24407805676553337,5905.709329198526
0.836,0.5952482930754566,5892.936928860955
0.84,0.9085430304652197,5895.275122876376
0.844,1.1124325879784336,5903.833326919833
0.848,1.166953026271997,5899.288492527329
0.852,1.071942123213091,5898.577161607958
0.856,0.864317156278662,5902.77364592862
0.86,0.6069432805618982,5892.374352888286
0.864,0.3727565927232975,5908.104194269723
0.868,0.22740078011851217,5893.966627407338
0.872,0.2133522863129158,5896.988449200607
0.876,0.3387121716976116,5895.6533935624575
0.88,0.5735310587232959,5902.53845006438
0.884,0.8551806368500019,5895.038132456505
0.888,1.1022264474873724,5896.73210639276
0.892,1.2337450535531898,5896.130535118059
0.896,1.188694404047554,5901.723063173567
0.9,0.9394727004500845,5900.844192248608
0.904,0.4963336607233344,5900.695650994847
0.908,-0.09656076516323421,5893.69407082789
0.912,-0.7700754712514537,5900.315726575929
0.916,-1.4410682433321516,5899.506786269457
0.92,-2.0241890583053674,5900.157598130783
0.924,-2.443921394872386,5895.6120453701205
0.928,-2.6455591998261667,5899.982637993723
0.932,-2.6034073757004093,5897.903532558591
0.936,-2.3247625836537877,5889.325205072229
0.94,-1.848374578211384,5898.468809750118
0.944,-1.2368082308301107,5897.495499236451
0.948,-0.5644171566326327,5899.124554598772
0.952,0.09522835215962575,5892.156851954184
0.956,0.6790112037067155,5898.593086237819
0.96,1.1398882186109207,5898.181078020809
0.964,1.4492192143938012,5897.533100097442
0.968,1.5971714778744144,5895.012757985708
0.972,1.592351901623742,5902.372265164749
0.976,1.4610487288714442,5906.288239404888
0.98,1.2452760380502597,5904.177944152032
0.984,0.9980985609122606,5894.275363005358
0.988,0.7753910150878145,5897.496901239514
0.992,0.6249777778935826,5906.837908403226
0.996,0.5760250092930146,5903.825105112275
1.0,0.6326087696723419,5908.380422929118
1.004,0.7743372505441567,5898.956330673185
1.008,0.9635583196817893,5897.9207466862445
1.012,1.1554031881001494,5900.611365435067
1.016,1.3066458291010652,5900.7968569637615
1.02,1.3820208766549198,5895.967300692157
1.024,1.3591332237342506,5892.213221955503
1.028,1.232822865235371,5897.347054414005
1.032,1.0175965472434838,5897.1835561470825
1.036,0.7455769293402641,5896.818677709443
1.04,0.45900666330319206,5898.517805566026
1.044,0.19925388477880404,5902.82058814188
1.048,-0.003961932336622788,5896.039069858202
1.052,-0.1397140120011173,5896.921818702241
1.056,-0.21744070662297169,5909.862260927708
1.06,-0.2623762192573493,5907.521395341051
1.064,-0.3054691136950789,5905.474568843864
1.068,-0.37021740118763236,5909.36208127997
1.072,-0.4610597850753861,5910.904670346733
1.076,-0.5586606031791749,5901.003308781965
1.08,-0.6248870908496773,5904.490035395836
1.084,-0.615692542837241,5896.883997561185
1.088,-0.4969355923155848,5911.764960845837
1.092,-0.25820971628356976,5888.648310727638
1.096,0.07849344629860254,5909.098862638569
1.1,0.4573142711188378,5891.923606514394
1.104,0.7959913003110621,5903.254475555454
1.108,1.0030331820685328,5904.488211971339
1.112,1.002376272281188,5899.536033210496
1.116,0.7588094103775401,5892.869836379003
1.12,0.29426141891959307,5900.335201958705
1.124,-0.31338747044592474,5902.414268185768
1.128,-0.9504876823000201,5900.327639230608
1.132,-1.4999252204025169,5898.279941861846
1.136,-1.8735219515691763,5899.0678113067415
1.14,-2.0329480421038966,5906.746630690601
1.144,-1.9928490933859617,5898.424091518374
1.148,-1.8072048906544718,5902.91676979137
1.152,-1.5458309855532628,5904.207962699745
1.156,-1.2701680213996058,5896.955951922721
1.16,-1.0162291312139333,5899.988525452003
1.164,-0.7891669342900149,5893.013913116783
1.168,-0.569436452447349,5895.688669150324
1.172,-0.3264220154873353,5910.393001970122
1.176,-0.03372823834204816,5904.603829843156
1.18,0.31858195354676905,5891.978356044127
1.184,0.7176309452826867,5907.176877420674
1.188,1.1284985877712361,5906.293854623839
1.192,1.5014387040022876,5893.487412405441
1.196,1.782866374570332,5897.156552349142
1.2,1.9268911863156906,5898.241157636635
1.204,1.9050314964561654,5895.777021217947
1.208,1.7126081601320275,5891.452958481732
1.212,1.3707840383306098,5911.28590139418
1.216,0.9237416824272718,5899.275026277537
1.22,0.43109376933471555,5902.757980228427
1.224,-0.0435495704263126,5904.249520512783
1.228,-0.44542157631094714,5904.878130954969
1.232,-0.7389869407857272,5903.419080575433
1.236,-0.9124397986508821,5898.654951053952
1.24,-0.9755324293021423,5905.786348932051
1.244,-0.9530804356174314,5897.441646629396
1.248,-0.8775968665492623,5896.981376947032
1.252,-0.7826695706611161,5900.368472152317
1.256,-0.6963050447266057,5895.193417798678
1.26,-0.6339589771043654,5897.187503561053
1.264,-0.5939610866838874,5896.244338013735
1.268,-0.5593951754936198,5908.465701176169
1.272,-0.507678297507218,5901.7119950491
1.276,-0.42409096337225943,5894.931803897296
1.28,-0.31256325953827524,5903.021397229035
1.284,-0.1983971634300142,5898.320001869623
1.288,-0.12181715998086173,5897.758823825154
1.292,-0.12507768676778686,5901.626707514831
1.296,-0.23760930812381745,5898.880606461595
1.3,-0.4638795972080042,5909.646434998608
1.304,-0.7781326182830096,5898.438936293384
1.308,-1.1286015976694408,5897.326537302743
1.312,-1.4505575000643367,5901.078933584242
1.316,-1.683785371535254,5895.19565843338
1.32,-1.78819281090107,5895.840723022539
1.324,-1.7523083187162194,5893.563604708135
1.328,-1.5924177765692487,5902.943144435
1.332,-1.3436445142850317,5898.024110902872
1.336,-1.047216990988118,5902.460980646568
1.34,-0.7391044471040739,5894.224009813058
1.344,-0.44356607229416706,5896.163384613756
1.348,-0.17229274945497008,5898.745077319044
1.352,0.07222514024819295,5891.116489491905
1.356,0.2911980890923682,5906.734821145452
1.36,0.4843116336667529,5890.47972523641
1.364,0.6469990868453936,5910.865695875476
1.368,0.7708866360218014,5897.815566943524
1.372,0.8461818992473787,5902.270741534047
1.376,0.8645831988569217,5896.43514534581
1.38,0.8223389782173623,5901.295265825701
1.384,0.7231903707723261,5898.274977756571
1.388,0.5799328172678658,5899.997764296638
1.392,0.4130627617604448,5899.438650262187
1.396,0.24631985279559707,5893.993821194079
1.4,0.10092538291390363,5899.991615428873
1.404,-0.008756527004334236,5899.494543525608
1.408,-0.0764728274985914,5910.054553261527
1.412,-0.1026738335086107,5903.015063387772
1.416,-0.09206697972143804,5898.40349835592
1.42,-0.05144611708381707,5899.167500574065
1.424,0.011809971914574365,5899.576972256182
1.428,0.09083039814555295,5895.775082283732
1.432,0.1802946889365013,5909.6656802680445
1.436,0.27726974818391187,5905.476433828116
1.44,0.3810096008152073,5897.328766452312
1.444,0.49105026364234705,5906.624108081629
1.448,0.6041701880657068,5884.433263526088
1.452,0.7118056622113625,5903.630285760978
1.456,0.7991411959587963,5896.691801460419
1.46,0.846096577764705,5907.917660834437
1.464,0.8303695959262682,5892.424202925768
1.468,0.7332369459690486,5895.968075055966
1.472,0.5479242024026277,5897.609486261778
1.476,0.28765261412588866,5912.583881414971
1.48,-0.01148220318983912,5896.936177515939
1.484,-0.29628223030369166,5904.303190478408
1.488,-0.5099776168221813,5892.479894972192
1.492,-0.6081641647152841,5893.821020144951
1.496,-0.5704176402423465,5901.616711087351
1.5,-0.4033695088578076,5898.781247180033
1.504,-0.13537608967160497,5899.326593607872
1.508,0.19365078583481835,5895.980946212775
1.512,0.5424447836801842,5901.286642990557
1.516,0.8746266099093059,5900.221623639374
1.52,1.159304156929977,5896.750372894276
1.524,1.3674270761881122,5899.147876834511
1.528,1.4678965811390525,5896.461434327663
1.532,1.428021635540673,5900.88666342934
1.536,1.2207726804640942,5894.685004247556
1.54,0.8374415689174787,5904.303678459193
1.544,0.30076727435914685,5898.159251909617
1.548,-0.3281645666085367,5896.906776891445
1.552,-0.9547717736292938,5905.719425712824
1.556,-1.468542729082649,5896.435392864729
1.56,-1.7685548462531413,5893.8631130281865
1.564,-1.78894230134359,5909.8814401004975
1.568,-1.5164950294859512,5899.225954697946
1.572,-0.9948499101503039,5898.511155820285
1.576,-0.31383557526444933,5903.231462545019
1.58,0.41217358775690593,5906.566460427037
1.584,1.069494955331139,5903.451183584964
1.588,1.5667893657498275,5900.213130991275
1.592,1.848542269183828,5886.64209798134
1.596,1.8987083412143564,5910.821583678925
1.6,1.7356755074971015,5903.138129088895
1.604,1.402120320873422,5898.417078568022
1.608,0.9541523808192811,5901.044871477169
1.612,0.45282449037348577,5893.722968740504
1.616,-0.04140481106727908,5900.964691822313
1.62,-0.47273772962404037,5899.168728720203
1.624,-0.7945745864756241,5898.790081697803
1.628,-0.9750797951894067,5900.4986663766285
1.632,-1.0021179833562583,5905.159589067886
1.636,-0.8846545921773248,5897.883658463718
1.64,-0.6487548860756233,5899.409302170411
1.644,-0.3291950327392289,5889.057983762921
1.648,0.03969336766325697,5893.666091421551
1.652,0.42979234176500647,5891.08211860793
1.656,0.8191317083460512,5895.685317976307
1.66,1.1867353959822666,5907.613011182342
1.664,1.5064089032261019,5900.129969700296
1.668,1.744539063183039,5896.784100638318
1.672,1.8646092664421479,5905.925821953878
1.676,1.8372696669130226,5899.413195988812
1.68,1.6522334022342893,5903.708922993266
1.684,1.3275935374011698,5892.291218576625
1.688,0.9124831625528818,5903.183710538874
1.692,0.4803190709307036,5891.49507723633
1.696,0.11286549404640898,5901.878777969841
1.7,-0.12066129041936094,5893.316103069534
1.704,-0.18259184358552047,5895.705802467593
1.708,-0.07746492980633177,5892.667756939793
1.712,0.1490004621615437,5899.174160185253
1.716,0.42170173815687323,5897.357481853383
1.72,0.6541915541181513,5898.558631811072
1.724,0.7674330223857576,5904.430724246528
1.728,0.7055191528493753,5899.692301681894
1.732,0.4468051694013343,5901.295768859721
1.736,0.009645004624551782,5897.384221527986
1.74,-0.5482717954938856,5891.076036581169
1.744,-1.1380074987952113,5901.263762775459
1.748,-1.6551721493470952,5903.763367299626
1.752,-2.001522204232574,5902.476210424364
1.756,-2.1071440553561587,5906.654424597387
1.76,-1.9462146351646665,5902.639911095104
1.764,-1.5415151636497346,5897.133198508002
1.768,-0.9577404463444285,5903.425165168385
1.772,-0.2873474661711724,5888.308819613463
1.776,0.3666908323634377,5902.285728731183
1.78,0.9080070385838513,5899.349340953624
1.784,1.2617826739761615,5894.085175213025
1.788,1.3862059579010289,5905.748271375153
1.792,1.2793483194469757,5897.436576589814
1.796,0.9799474684636311,5893.642049654651
1.8,0.5604812719788693,5895.00155008071
1.804,0.11240527521639057,5895.357651370344
1.808,-0.2738250861547355,5899.339777249715
1.812,-0.5290202527754854,5893.402782280744
1.816,-0.6201106259856854,5901.400550555583
1.82,-0.5547097730939979,5902.063645667014
1.824,-0.3731424434917854,5904.627532042542
