时间(s),电压(V),幅值(高频80K)
0.0,0.022227472556412355,5899.507406980381
0.004,-0.3191255534213325,5898.612859011148
0.008,-0.5594082288753779,5896.5233278676105
0.012,-0.633755852288992,5899.410299080436
0.016,-0.5322153187727791,5898.864433597143
0.02,-0.30156084642321,5894.826826984574
0.024,-0.026682666829309656,5892.529387220064
0.028,0.20061161904537375,5905.97633310786
0.032,0.31139767814254893,5898.165813620687
0.036,0.27653278043278745,5900.317289022525
0.04,0.10780040255884746,5902.931146208623
0.044,-0.15209115743179094,5894.039773549901
0.048,-0.44416526522350364,5903.377910075035
0.052,-0.7082212527862897,5895.125339628304
0.056,-0.8964747317177549,5908.312901680352
0.06,-0.9843991491435226,5903.316008532831
0.064,-0.9762389348132735,5901.61056398289
0.068,-0.9024414523897585,5904.246300766209
0.072,-0.8085158913907096,5906.406125534796
0.076,-0.7384875476495613,5907.384594596735
0.08,-0.718834482158558,5898.480179824896
0.084,-0.7490668127921706,5897.269435698455
0.088,-0.8027110413091425,5900.112342868702
0.092,-0.8382919591195375,5899.626071012578
0.096,-0.8158166129325874,5907.190421210613
0.1,-0.7122189824976181,5898.586426120221
0.104,-0.530144394511477,5885.173027168174
0.108,-0.29769551649207554,5891.685889179768
0.112,-0.06045721723332567,5891.850081316991
0.116,0.13068474030135152,5897.535136551491
0.12,0.2322660594190966,5895.096037171679
0.124,0.21864118609692568,5907.296759478783
0.128,0.08792219517939333,5900.333444476291
0.132,-0.1377407116995904,5901.9599929096485
0.136,-0.41721110003998085,5907.149096394824
0.14,-0.6988302354813531,5896.040227519597
0.144,-0.9295740834591396,5903.297505181862
0.148,-1.062786054296633,5905.542108643404
0.152,-1.0641123794203935,5903.567089981961
0.156,-0.9165265874657514,5910.2864266587785
0.16,-0.6247219720888543,5901.955436583281
0.164,-0.21761520952668334,5889.273916315666
0.168,0.2527628609300759,5903.758192593861
0.172,0.7168499211469244,5896.7936985649385
0.176,1.0976942927350624,5893.017954413031
0.18,1.3255761090150273,5910.280961705892
0.184,1.3557630099455737,5900.321706126932
0.188,1.1844176196799887,5903.576221294867
0.192,0.8546811264917982,5902.508322827806
0.196,0.4476880098504564,5906.626764429223
0.2,0.06136957820314634,5900.722620358553
0.204,-0.21361120462442942,5891.986698399095
0.208,-0.3120521767015859,5898.559987066375
0.212,-0.2034126684013194,5900.217512647687
0.216,0.10649155227679165,5905.880673704806
0.22,0.5790912630964156,5901.808951361075
0.224,1.1506761694847474,5900.994455955867
0.228,1.7424962624916465,5888.043643599339
0.232,2.2712179682314386,5904.72380055106
0.236,2.6586777256349228,5896.755858915863
0.24,2.8417475261245033,5903.442551166545
0.244,2.7829505094053095,5894.482508629948
0.248,2.479741747610213,5902.6060234068
0.252,1.9679069367303381,5903.084278955538
0.256,1.3153652621162366,5907.444990786658
0.26,0.6069683200906116,5899.281689126166
0.264,-0.0742158489380772,5895.1850767671385
0.268,-0.6616277682292717,5907.215737563481
0.272,-1.1108200770881513,5900.498657792852
0.276,-1.3963111614075434,5901.263950032357
0.28,-1.505170598070545,5901.868516440324
0.284,-1.4337360943306738,5903.660838003276
0.288,-1.1898486328327358,5894.615328210299
0.292,-0.7976267193958922,5901.755199558793
0.296,-0.2995993756534424,5894.627441184452
0.3,0.24690411936433806,5902.866220500327
0.304,0.7784078567049065,5894.42260771914
0.308,1.235777918537286,5900.031250626478
0.312,1.5732039166500205,5903.793926076052
0.316,1.7637199182457248,5910.426180362779
0.32,1.800659046543061,5899.849254220713
0.324,1.6951887620052675,5904.387794021936
0.328,1.4710465483077275,5912.439060092793
0.332,1.158827667616473,5901.829718777457
0.336,0.79210704817772,5892.876161018712
0.34,0.40575972887455714,5900.342357162395
0.344,0.03491901680126991,5896.547205451179
0.348,-0.2871768645165798,5895.552257961702
0.352,-0.5330645121893172,5894.860145526439
0.356,-0.6860051350552997,5894.246471588915
0.36,-0.7442250112458164,5893.316079237565
0.364,-0.7218755521996908,5897.886349694199
0.368,-0.6446932136414577,5903.516312786828
0.372,-0.5408889084003468,5900.788147562355
0.376,-0.4309179781619932,5903.523604978213
0.38,-0.3206554019369589,5899.653294948665
0.384,-0.20029714465374354,5905.580150455599
0.388,-0.04856318762334468,5893.864745904338
0.392,0.15924344505297458,5900.266300486548
0.396,0.4410141601997179,5894.831133718178
0.4,0.7981277819418503,5894.715836972846
0.404,1.2096884209440248,5892.903640327027
0.408,1.6330516455078314,5901.734867157181
0.412,2.0107250668992767,5910.203191418796
0.416,2.2820800923316558,5899.22777671341
0.42,2.3973957081894532,5899.3493389341065
0.424,2.330524560071747,5899.325649004104
0.428,2.0855386374631983,5903.329440520924
0.432,1.6944620087057793,5902.039541067679
0.436,1.2080511228675,5905.56890055433
0.44,0.6858184669658064,5898.859121823067
0.444,0.1907917715709872,5909.818312814723
0.448,-0.21094880413613543,5906.186624213224
0.452,-0.4512638956800242,5904.963864195816
0.456,-0.46729749069234716,5891.323663199126
0.46,-0.21646758557831908,5898.408491062018
0.464,0.3051356705724469,5895.333972672968
0.468,1.0482615627855552,5897.913076871891
0.472,1.9075320720799864,5896.421756319845
0.476,2.735281451993702,5898.143865683224
0.48,3.371814708767056,5903.442829971748
0.484,3.6842594400375495,5895.315958582595
0.488,3.6014178522095306,5899.263047318083
0.492,3.1328644462327135,5898.095808920932
0.496,2.366056641060568,5892.07783533503
0.5,1.4426284379096144,5903.434562679443
0.504,0.5216035619649239,5899.21431449065
0.508,-0.25925009994888903,5899.065181760804
0.512,-0.8132965852589316,5900.554423111007
0.516,-1.1191856511981562,5906.5548714614815
0.52,-1.2171761149646472,5904.4724368133
0.524,-1.1902142372792783,5901.10782201178
0.528,-1.1360797616001483,5899.767713963692
0.532,-1.1388118134988152,5896.04060739701
0.536,-1.2470806023509853,5907.297190681173
0.54,-1.4643768280782663,5900.000677831188
0.544,-1.752036947426486,5903.4212300336985
0.548,-2.042743619646128,5899.879921600703
0.552,-2.2600289427447087,5900.8751381419725
0.556,-2.338397050285772,5898.590953658162
0.56,-2.238975035367691,5895.437590473274
0.5640000000000001,-1.957342600926414,5901.142311522494
0.5680000000000001,-1.5229239644641936,5897.1230427598575
0.5720000000000001,-0.9916571033534614,5905.51036611046
0.5760000000000001,-0.4344507694656265,5891.194389410279
0.58,0.07648724791656433,5896.138242267074
0.584,0.4816036090025473,5897.57409438984
0.588,0.7457509414416265,5899.625643679023
0.592,0.8647611692096107,5899.908414142742
0.596,0.8646239136660955,5901.594360261137
0.6,0.7927677777794337,5898.644121703284
0.604,0.7031151152485876,5901.782098004336
0.608,0.6392264456197562,5905.340325819134
0.612,0.6216707563329287,5904.252869751622
0.616,0.6444003313035221,5896.774378568209
0.62,0.680567740469894,5893.677225207079
0.624,0.6942690308680034,5899.487794074775
0.628,0.6536142935116332,5904.020809358215
0.632,0.5415186283759642,5901.627056277266
0.636,0.36185861282119036,5906.367268547196
0.64,0.13976084671093922,5899.086690782503
0.644,-0.08387754095978363,5892.258287134303
0.648,-0.2621699323864018,5899.676607162779
0.652,-0.3537972468858575,5897.969141513519
0.656,-0.3333126797486079,5900.779538737754
0.66,-0.19760011305517228,5904.134374355014
0.664,0.03272870441719636,5901.960084015695
0.668,0.31658026585322757,5894.96223791628
0.672,0.5987933617189194,5899.844134918886
0.676,0.8181633621744446,5902.152139624485
0.68,0.9162662686477611,5903.808532780237
0.684,0.8471990793938919,5908.107208406478
0.6880000000000001,0.5883043329897042,5896.228000228276
0.6920000000000001,0.15008139120763528,5903.322768570794
0.6960000000000001,-0.41905266090453397,5896.613250154916
0.7000000000000001,-1.037875275764915,5901.480586154996
0.704,-1.6088328765265054,5907.916732433871
0.708,-2.042114225360984,5906.114118767331
0.712,-2.279332425116576,5901.431163966123
0.716,-2.3080759666430675,5903.593226506901
0.72,-2.1620784406421185,5902.891193184073
0.724,-1.9077179168608083,5899.545629274392
0.728,-1.6225788838581705,5903.787523201585
0.732,-1.3735741680860907,5905.382185560145
0.736,-1.200713364905853,5907.818556751166
0.74,-1.109525765486497,5899.392281170729
0.744,-1.072331096274225,5898.1464472519965
0.748,-1.0372767352448886,5891.06357251885
0.752,-0.943610441636463,5905.72286013723
0.756,-0.7404371369610423,5900.549592895786
0.76,-0.40444378250484664,5902.904350484889
0.764,0.048491935472740465,5905.062141998355
0.768,0.5615668342218907,5900.029662658066
0.772,1.046548969606138,5904.712409285917
0.776,1.40322343967763,5905.319421380343
0.78,1.5447252830878908,5899.35510872353
0.784,1.4220873249027677,5905.007389267784
0.788,1.0403074100076048,5903.309737578073
0.792,0.4601283090090939,5893.915978623363
0.796,-0.21590674945650182,5898.145471223762
0.8,-0.8694040861141167,5903.845788368251
0.804,-1.39608834175819,5898.713875874029
0.808,-1.7299788940168628,5890.951670531248
0.812,-1.8539365380888944,5899.832598013646
0.8160000000000001,-1.7942461081111796,5899.752575106496
0.8200000000000001,-1.603232072691854,5895.713678890747
0.8240000000000001,-1.3379947844035096,5898.656078401515
0.8280000000000001,-1.0439548034280972,5894.758074694153
0.8320000000000001,-0.748914644677661,5889.793603358408
0.836,-0.46744587982882024,5904.054138124025
0.84,-0.2094579107562231,5897.876418358031
0.844,0.014901661867852677,5891.197387498783
0.848,0.19766224575096472,5893.574859495876
0.852,0.33960702255828135,5897.337739970466
0.856,0.45407890984301463,5900.235548903419
0.86,0.5631450451793133,5894.998050198053
0.864,0.6869730757438427,5906.682067335507
0.868,0.8320621860377215,5890.001667185881
0.872,0.9847527796322871,5898.78851133467
0.876,1.1133618777354082,5898.071392103474
0.88,1.1777840378533728,5901.756314835085
0.884,1.1421785203613792,5887.941331281518
0.888,0.9858531306200535,5898.9736090970055
0.892,0.7091901828573294,5905.266648363618
0.896,0.3338903307932255,5903.570639821988
0.9,-0.10133851823096335,5903.972680281434
0.904,-0.5477909715825853,5891.277698446447
0.908,-0.9548495674988635,5904.409911390422
0.912,-1.2779339994109535,5908.239202868517
0.916,-1.4852680102969815,5895.353906824853
0.92,-1.5628009634514657,5900.575142173112
0.924,-1.5171260701686495,5902.848835124999
0.928,-1.3757520608228162,5901.585555426314
0.932,-1.1829312257782862,5898.8399146899965
0.936,-0.9899961713145216,5894.317147131598
0.94,-0.8427799809430565,5894.0378012962965
0.944,-0.7717570343257721,5902.778123951149
0.948,-0.789150489121556,5894.403455765395
0.952,-0.8925299494744726,5913.499330819663
0.956,-1.0709524047060244,5907.768745895586
0.96,-1.3096442621270485,5901.065709454602
0.964,-1.5911620155380557,5896.870925051135
0.968,-1.893245611306653,5895.636177844767
0.972,-2.185609721908806,5913.40707608318
0.976,-2.4289945736145504,5898.846849368874
0.98,-2.5789424497576263,5904.103509530502
0.984,-2.594169139602631,5895.29893657187
0.988,-2.4470651504544234,5904.578924168357
0.992,-2.1334513120900724,5903.3262835142
0.996,-1.679141381709297,5901.27150463129
1.0,-1.1403826077052404,5900.517179211091
1.004,-0.5951878691408446,5908.515223015124
1.008,-0.12560912916547387,5900.889901204566
1.012,0.20383972385305188,5898.165527007596
1.016,0.36344764096405363,5898.883387333473
1.02,0.3647814025395198,5905.433724060432
1.024,0.2546490041661508,5896.3486155681285
1.028,0.0997860455630127,5900.779253666703
1.032,-0.03145621906732399,5901.16352907054
1.036,-0.08425858617765569,5898.462848382998
1.04,-0.026060904703318864,5904.759907404243
1.044,0.150930522936175,5902.501581065983
1.048,0.4313841149977265,5908.086756806497
1.052,0.780517707487873,5894.263289969391
1.056,1.1484875442897797,5900.192607546642
1.06,1.4752899673739988,5898.909997860448
1.064,1.6972820613653852,5900.226813382689
1.068,1.7568660136004755,5900.247884986615
1.072,1.6152784099651556,5901.781981763458
1.076,1.2656390649104066,5894.094435312932
1.08,0.7416007371176568,5900.680277131528
1.084,0.11713924830916646,5897.222637979649
1.088,-0.5049294543066936,5898.712359152754
1.092,-1.0145646160971566,5903.266334872245
1.096,-1.3209926807478438,5899.492608192375
1.1,-1.3761319169596682,5897.890077363647
1.104,-1.1875348798504604,5891.939104571262
1.108,-0.8170158399602455,5894.953471744511
1.112,-0.36553475185768936,5889.313373195846
1.116,0.05188337904881679,5903.155689269663
1.12,0.33523751272295405,5896.227666871189
1.124,0.42481813206676794,5894.557595128887
1.128,0.3145512976360236,5901.027198416073
1.132,0.04859213768931868,5902.021218728983
1.136,-0.29737846126245604,5904.636008191778
1.14,-0.6424548562748208,5902.30265459604
1.144,-0.923811544432352,5907.78467622437
1.148,-1.108660487928368,5899.536056036637
1.152,-1.1928713078417896,5893.192071054245
1.156,-1.1908673450526361,5906.305160462935
1.16,-1.124082876159552,5897.102169071058
1.164,-1.0130372362980642,5907.677133799086
1.168,-0.8736871514464017,5908.274229649424
1.172,-0.7157053254785214,5898.072885265266
1.176,-0.5404992353168435,5908.933285467245
1.18,-0.33957667292123006,5903.54110870143
1.184,-0.09645970519409779,5901.756052222399
1.188,0.20550281619427824,5896.271627596364
1.192,0.5713109473226127,5901.243282577335
1.196,0.9840939245626457,5894.303944339609
1.2,1.4020120467643604,5904.6624449121655
1.204,1.7644529240384468,5893.270091085068
1.208,2.0060158880319223,5901.286366865968
1.212,2.0745189275236373,5897.127820126908
1.216,1.9479883060500802,5900.432049738116
1.22,1.6448459129713895,5901.995151924774
1.224,1.2225387013379265,5904.016413810814
1.228,0.7637497524875082,5909.390574883758
1.232,0.35446808622559023,5905.339248041661
1.236,0.06144488416522692,5902.405921442204
1.24,-0.08358255551896496,5900.903140009204
1.244,-0.08843110916466086,5902.606384416893
1.248,0.006490346496150364,5899.674980775184
1.252,0.14319733445204078,5891.881314877427
1.256,0.26389489378561704,5893.6554130909935
1.26,0.32624976939136957,5901.215681406658
1.264,0.31226530058497254,5903.56962603383
1.268,0.22915418347090158,5909.787279763106
1.272,0.10348151249275295,5894.841843589621
1.276,-0.027937574956514808,5900.0768877031605
1.28,-0.12676565713491908,5895.365900951251
1.284,-0.15976644602406248,5896.82009952663
1.288,-0.10366627322736084,5899.656698053822
1.292,0.050854115133918416,5899.09697910625
1.296,0.2958431916649568,5901.261101008528
1.3,0.6039339647225827,5895.099155586684
1.304,0.9283060720331113,5899.252314636592
1.308,1.2062000368364696,5910.338608969537
1.312,1.3674280986315996,5897.89198995824
1.316,1.3479584123529682,5899.430165829092
1.32,1.1063082863744549,5895.248552090121
1.324,0.6384903254050278,5900.731523422087
1.328,-0.013509108218390915,5887.335082053323
1.332,-0.7639576513275415,5889.884459125243
1.336,-1.4978362957650413,5902.115952523966
1.34,-2.0947568019837006,5897.642415885647
1.344,-2.45580389780294,5893.087123231735
1.348,-2.525830241904722,5903.686435802807
1.352,-2.3056264804819073,5910.80339145374
1.356,-1.8514495907378565,5901.601409096216
1.36,-1.262392780416751,5895.945436389146
1.364,-0.6586335200073405,5906.678988722821
1.368,-0.15550889879726149,5900.408808905757
1.372,0.16059182954278473,5893.503426197601
1.376,0.248727363277674,5891.678138792778
1.38,0.11830715912506863,5897.366249957895
1.384,-0.1783593981496286,5901.589045585725
1.388,-0.5627931631069956,5895.74949332532
1.392,-0.9503821522916079,5898.67998611207
1.396,-1.267710411534419,5901.970672304744
1.4,-1.4642416987761042,5907.678072911167
1.404,-1.5187512878665972,5895.733528205851
1.408,-1.4414525730314711,5897.315097448781
1.412,-1.2712607526466633,5895.424961746429
1.416,-1.0670940358166343,5895.513071963792
1.42,-0.8935974272570911,5901.5596848663845
1.424,-0.8038891960451922,5894.348869278068
1.428,-0.8236514285935668,5904.4234285275925
1.432,-0.9415211454343325,5905.3710548510735
1.436,-1.1096479443045477,5901.752541381444
1.44,-1.2553581667914613,5900.508429882931
1.444,-1.3012294614315538,5894.712682838925
1.448,-1.1880433870718743,5905.285181927959
1.452,-0.8937889572937127,5898.389903683876
1.456,-0.44237082277023265,5898.090548371077
1.46,0.10163196468898095,5898.133551888035
1.464,0.6509516820201642,5901.492741025081
1.468,1.120006145993713,5903.172556116989
1.472,1.4469273950595,5897.563480885547
1.476,1.606262164481434,5894.549621460596
1.48,1.6095303969522607,5895.178603623042
1.484,1.4950102331314026,5890.54805113619
1.488,1.3114031098949697,5898.23019976302
1.492,1.1018257728691891,5895.098153011899
1.496,0.8937552859880321,5897.163983054718
1.5,0.6974022091444011,5894.042244364054
1.504,0.5114985929634924,5897.019738084217
1.508,0.3329299797841103,5894.9009873235145
1.512,0.16531612219251335,5900.02985628747
1.516,0.02230376186769845,5899.064950917796
1.52,-0.07583890721311959,5901.544420382364
1.524,-0.11032661413823666,5910.20956691847
1.528,-0.07268726585906919,5897.477816114218
1.532,0.029402241511042534,5893.231496913104
1.536,0.1713538642162362,5898.726182517574
1.54,0.3164316239379876,5893.319545763342
1.544,0.425041385731296,5894.909922398727
1.548,0.4656821159700197,5901.495081179919
1.552,0.42336952753644047,5898.188103507152
1.556,0.30236869604709976,5907.786294939039
1.56,0.1230590897847082,5900.581089446941
1.564,-0.08468084495276644,5906.149537340222
1.568,-0.2883942594960376,5899.234752967507
1.572,-0.4577611240989784,5898.143560678561
1.576,-0.5663482796459133,5902.955019908359
1.58,-0.591995860816073,5894.594472718105
1.584,-0.518833905852422,5909.702912563749
1.588,-0.3427797145756668,5900.266536662607
1.592,-0.07905902941749843,5898.354054911596
1.596,0.23284473892017685,5906.039876523902
1.6,0.531881103742425,5890.154518427902
1.604,0.7479091293970846,5904.923102471128
1.608,0.8213204506088018,5896.320686800818
1.612,0.7231673897303257,5887.382429607235
1.616,0.468087224279434,5901.03427701312
1.62,0.1146368236788843,5902.039790372897
1.624,-0.24796080395080036,5897.540936600815
1.628,-0.5231671079752922,5900.610163265936
1.632,-0.633923117687186,5895.805232125056
1.636,-0.545077617894132,5885.482471806984
1.64,-0.27462063828430844,5901.982771356908
1.644,0.11021317474943146,5897.293467280929
1.648,0.5115521755443715,5894.622779843662
1.652,0.8288839477122456,5894.878867856068
1.656,0.9875320033402687,5895.576956658039
1.66,0.9585175187737787,5900.95645493334
1.664,0.7643267790122474,5893.316521764843
1.668,0.4704288292892508,5905.765925739672
1.672,0.1664474651349265,5904.248459104313
1.676,-0.05754939233736769,5898.330047847623
1.68,-0.13415953571861688,5895.980026603426
1.684,-0.03611448895152485,5894.942751629358
1.688,0.21593684275821312,5903.049153454173
1.692,0.5574841180604049,5902.153684383891
1.696,0.8956164985351871,5907.538107720531
1.7,1.1325065106336056,5904.158127576745
1.704,1.1908439999940563,5904.436309521663
1.708,1.0340076483138,5898.009745703348
1.712,0.675314253398034,5895.053871677603
1.716,0.17446381198464767,5894.785040537245
1.72,-0.37682340361855193,5905.341892118343
1.724,-0.8758369809903223,5904.130433815958
1.728,-1.2318721940225081,5904.505552828358
1.732,-1.386391713001405,5905.053636086952
1.736,-1.3257390305426393,5902.077295101616
1.74,-1.0829135545931041,5898.474233417292
1.744,-0.7273411324875804,5903.378827689074
1.748,-0.3449300223998705,5896.972381296442
1.752,-0.013958822803554004,5901.900324693727
1.756,0.2157989718065602,5896.149740738143
1.76,0.33394557011245823,5906.128385903767
1.764,0.3670910212998697,5906.22770004248
1.768,0.36517161361176786,5901.056119296257
1.772,0.3822303726030902,5902.752844324419
1.776,0.45797887337236876,5897.16942731469
1.78,0.6047651583181566,5895.944790073333
1.784,0.802918367033268,5896.66873717715
1.788,1.0061492627824147,5900.806423389585
1.792,1.1564121087117942,5892.967125455664
1.796,1.2040795861794171,5895.963119107734
1.8,1.1262156720457999,5900.263144560915
1.804,0.9355122417346066,5894.096433442219
1.808,0.675973832712429,5903.950886847551
1.812,0.40714489711773616,5906.5188704562
1.816,0.18354130279858016,5914.712367896638
1.82,0.03748001426515435,5896.50165897053
1.824,-0.028861889331370728,5901.032502892018
