时间(s),电压(V),幅值(高频80K)
0.0,-0.8548420877854849,5898.074421952084
0.004,-0.3557907677704532,5896.459754623037
0.008,0.0807569940780815,5905.233996470328
0.012,0.41384375967323644,5907.249267850018
0.016,0.6312423802444465,5901.9655487961145
0.02,0.7454166069829816,5899.794823552745
0.024,0.7810591268867194,5905.410507358181
0.028,0.7617393271219242,5893.972021064548
0.032,0.7008591912776597,5898.987146426962
0.036,0.5990297598245033,5902.090467659225
0.04,0.4481148071233968,5889.869966852357
0.044,0.2401947861141638,5893.456199944141
0.048,-0.02285632625775088,5909.560904500116
0.052,-0.3242288227189504,5889.781778061249
0.056,-0.6337079404169343,5890.871210116906
0.06,-0.9139325950242703,5903.128706856842
0.064,-1.1275915591241876,5903.57986931188
0.068,-1.24326352640673,5893.5193130827
0.072,-1.2402996564999917,5898.404480509093
0.076,-1.1141050503163024,5895.776208898896
0.08,-0.8811954376157332,5897.38356847739
0.084,-0.5805212171533178,5900.817639748277
0.088,-0.2673933680996486,5897.352767897249
0.092,4.9016983811567876e-05,5893.813347040386
0.096,0.17740035706558285,5899.1367032528005
0.1,0.24716179682083797,5899.472535816903
0.104,0.22336156321264095,5900.539927299909
0.108,0.14562145461384376,5893.143504233716
0.112,0.06434637871750054,5897.562402289092
0.116,0.021993378936240652,5902.270895009916
0.12,0.037187101495456606,5902.302287722371
0.124,0.09762562632511737,5902.462077666133
0.128,0.16429329105659582,5903.924547323867
0.132,0.1851985924031391,5905.068475847947
0.136,0.11363831625985835,5905.15916021214
0.14,-0.0752631681368691,5898.49130424295
0.144,-0.3751489660735496,5905.431807609168
0.148,-0.7489295256813101,5900.7113295535255
0.152,-1.1383549104142336,5891.235120225243
0.156,-1.4785355936649331,5896.9162584417145
0.16,-1.71202002758577,5897.102789921996
0.164,-1.7989232792105145,5902.85414219391
0.168,-1.723037942550042,5895.868055484119
0.172,-1.4952976018665156,5896.148049436158
0.176,-1.154286201711671,5898.691695185279
0.18,-0.7615821387672613,5898.556999595657
0.184,-0.39055333901610084,5900.573705753733
0.188,-0.11032124800066555,5903.790886335155
0.192,0.03058055099840803,5908.6756515581765
0.196,0.015678590080235283,5904.616365917168
0.2,-0.13619277601578333,5905.739273693022
0.204,-0.37605650835765203,5908.4093209269
0.208,-0.6361151400150088,5896.782290089652
0.212,-0.8445031836316619,5894.934859564674
0.216,-0.9412349303491305,5895.779802444577
0.22,-0.8928079379584348,5902.149072678895
0.224,-0.70198696563248,5902.690535918996
0.228,-0.4094957687245833,5899.104748395506
0.232,-0.08624991543989519,5909.680817088688
0.236,0.18280974682438292,5907.693735661024
0.24,0.32000981703173204,5899.698413313845
0.244,0.2760173797907923,5900.537044187044
0.248,0.044376706938734585,5900.5601453634645
0.252,-0.33514334968847187,5896.336775775569
0.256,-0.7852070651901638,5902.662147489559
0.26,-1.2087445336783436,5897.6149772264525
0.264,-1.511245906407422,5905.917635575498
0.268,-1.622452231109432,5900.529010511164
0.272,-1.5127432161442054,5900.743876014286
0.276,-1.2002115349572284,5903.749459997171
0.28,-0.7458045172855625,5895.690332758006
0.284,-0.23688471237029177,5896.347816462863
0.288,0.2361063204570042,5901.891077894249
0.292,0.601968641678096,5894.182438699618
0.296,0.8227004803591995,5893.876695513984
0.3,0.8958489255647489,5892.92565020835
0.304,0.8468267316277667,5900.085503391033
0.308,0.7158841744807918,5894.785433336937
0.312,0.54505903702703,5909.603551941514
0.316,0.36880160044492,5905.289131185514
0.32,0.209346234640501,5901.299412576679
0.324,0.07609317035293237,5905.835537295898
0.328,-0.0320830517159099,5894.020277260227
0.332,-0.12243386346550005,5891.38195971493
0.336,-0.20274370969229297,5897.854477900238
0.34,-0.27597576231842635,5891.27243703249
0.344,-0.3372169775839631,5901.260459072012
0.348,-0.37485065823703606,5899.932462924644
0.352,-0.3761944648271193,5904.648643540441
0.356,-0.3351811792404209,5889.694906883032
0.36,-0.25807033033055554,5900.410137819222
0.364,-0.16410436406006546,5904.259951696015
0.368,-0.08074757651597896,5902.005498945728
0.372,-0.03579601033648606,5898.813242265046
0.376,-0.04989558712572337,5892.645528702919
0.38,-0.1323542976535157,5906.970424105163
0.384,-0.2809004927498051,5898.911891454337
0.388,-0.4837880632099124,5899.09699902304
0.392,-0.7222230826211159,5901.305716217601
0.396,-0.9724929069553637,5902.1047512256
0.4,-1.2084770352347878,5906.4496851850445
0.404,-1.4050232439338544,5889.7420710793895
0.408,-1.54183022404998,5899.816619052092
0.412,-1.6073680933089323,5899.824745951648
0.416,-1.6025117096917252,5903.551179530021
0.42,-1.542723624944055,5903.872489071827
0.424,-1.4565972227515045,5903.337294665555
0.428,-1.379448317873245,5901.340374205223
0.432,-1.343331690479893,5895.574286270425
0.436,-1.3667479370235425,5909.542283144353
0.44,-1.44707565355614,5900.30887937131
0.444,-1.558003675533129,5907.995211402989
0.448,-1.6539719269033013,5904.448323345545
0.452,-1.682198957937926,5893.3320612500975
0.456,-1.5993538562711043,5899.024598142834
0.46,-1.3868314227127718,5895.99055810774
0.464,-1.058851601428775,5899.3159581069085
0.468,-0.6608387300321682,5902.349749877674
0.472,-0.2590309769412753,5902.535564007724
0.476,0.0756109044844977,5895.995424142383
0.48,0.2850759811775193,5900.726399589343
0.484,0.33897236478689535,5900.382135562815
0.488,0.2420850003560067,5904.03638503448
0.492,0.032533494234699326,5902.270196453818
0.496,-0.2288968881693847,5897.73990140061
0.5,-0.4747608882548558,5909.757337378929
0.504,-0.6472083232059975,5896.907723924627
0.508,-0.7100341319098062,5904.296417092813
0.512,-0.6542893826689995,5901.660025308958
0.516,-0.4972468279757507,5909.127995310007
0.52,-0.27545730786205536,5904.627565914284
0.524,-0.03331115808048986,5899.712604573007
0.528,0.19018907644052355,5899.113652563401
0.532,0.3723601843306773,5895.617302688194
0.536,0.5113055087207546,5904.100771520838
0.54,0.6218866911550547,5893.820383868467
0.544,0.7250621746392774,5906.240947402219
0.548,0.8359303057471009,5903.834025762287
0.552,0.9562524325198796,5896.546359387275
0.556,1.0741844878622486,5896.701495823556
0.56,1.1699440867017525,5903.158206690132
0.5640000000000001,1.2240550320629782,5904.5630842866885
0.5680000000000001,1.2251483481376793,5896.276649584429
0.5720000000000001,1.175498286488107,5898.122180385615
0.5760000000000001,1.0930782600434583,5901.471019813599
0.58,1.0090432613507452,5903.1950848583165
0.584,0.9601978718038401,5904.634581268557
0.588,0.977545973708008,5901.740340937821
0.592,1.074000917174426,5902.919192800849
0.596,1.2360418180717079,5902.454861593807
0.6,1.423967369391304,5914.083678677255
0.604,1.5819044379490141,5903.439827177927
0.608,1.6535326036275895,5890.906310393716
0.612,1.59694196424562,5896.96710487816
0.616,1.394018222198914,5895.629803771588
0.62,1.0536661090952968,5900.013183270394
0.624,0.6106463702232539,5911.2580191286415
0.628,0.1217100345418708,5893.10345370567
0.632,-0.34080462556816143,5898.896266268648
0.636,-0.6987510440839277,5896.443805105224
0.64,-0.8815207503875728,5896.657174375254
0.644,-0.8411846924314013,5902.8877446038605
0.648,-0.5656204182838265,5905.687811358647
0.652,-0.0850957477581656,5894.190560300496
0.656,0.5308864136743019,5896.399503059173
0.66,1.1867210240175154,5899.077297791822
0.664,1.7806194901618166,5904.062324611104
0.668,2.2254447258146994,5903.585210508611
0.672,2.46394222855187,5893.890526804337
0.676,2.4741204262283567,5903.680878470122
0.68,2.265055715215324,5904.116885928548
0.684,1.8676292387384519,5899.36505501057
0.6880000000000001,1.3259541537178765,5899.886072024608
0.6920000000000001,0.6928873963148947,5897.885166530625
0.6960000000000001,0.028984189959459835,5901.771322577835
0.7000000000000001,-0.5986150081388288,5910.396546632777
0.704,-1.1210295707363735,5901.169441242415
0.708,-1.477561453115106,5902.996401737819
0.712,-1.6285764694098919,5901.304001474367
0.716,-1.566584133412998,5902.340673773542
0.72,-1.320536742175209,5899.965793898655
0.724,-0.9504980879518301,5900.558020065668
0.728,-0.5332652374024726,5898.536270286442
0.732,-0.14335689347298394,5894.773880760414
0.736,0.16364330356629078,5905.294175228921
0.74,0.35934127505730445,5910.221255644149
0.744,0.440824470827571,5897.802222746708
0.748,0.4223607454445165,5905.460802723333
0.752,0.3260918928938328,5899.696844950186
0.756,0.17608133575224907,5894.662664417386
0.76,-0.00340399762456442,5888.778664595992
0.764,-0.1878814334324058,5898.832984718241
0.768,-0.35413210966665587,5899.2609655786055
0.772,-0.48408223120916966,5904.294913268922
0.776,-0.5691938944148394,5897.882163427249
0.78,-0.6126762664103887,5895.026667257254
0.784,-0.6281100255888009,5897.482965003226
0.788,-0.6349652925349385,5898.2859107496
0.792,-0.6527331275187347,5900.208234480399
0.796,-0.6956531112814754,5903.026884479209
0.8,-0.7695779339327308,5896.869736766714
0.804,-0.8715849563881215,5901.9264500307945
0.808,-0.9917583719334568,5899.3341441723005
0.812,-1.115850012548705,5895.463966002515
0.8160000000000001,-1.2278229237505303,5908.790757075124
0.8200000000000001,-1.312021837309618,5891.210989483011
0.8240000000000001,-1.35503303663415,5896.422241157621
0.8280000000000001,-1.3472309975110952,5894.157410599939
0.8320000000000001,-1.2840579883059196,5900.749041383141
0.836,-1.1673168954989994,5908.500473564724
0.84,-1.0067947446373786,5906.433694736909
0.844,-0.8218556006462342,5903.088716139191
0.848,-0.6413145027493677,5893.862187449201
0.852,-0.4992815739862204,5896.2658969755175
0.856,-0.42634315528978683,5897.697733095519
0.86,-0.43904044733432984,5893.62138502619
0.864,-0.5332836728585352,5906.924063771072
0.868,-0.6862313541540517,5902.7144123003645
0.872,-0.8663774706938292,5889.379410410702
0.876,-1.0464324552540325,5889.9791234479935
0.88,-1.2116166850378112,5896.971920584103
0.884,-1.3584759923165688,5901.715339688175
0.888,-1.4850454961474384,5897.977496905945
0.892,-1.578891037828239,5889.190674657584
0.896,-1.6113835371747203,5899.293956556975
0.9,-1.5430720237843116,5898.60634949312
0.904,-1.3386889038465823,5897.40990665984
0.908,-0.985208738240737,5894.12392939684
0.912,-0.504954567042933,5901.872549623321
0.916,0.042024466137276964,5898.067355761717
0.92,0.5677427694006995,5906.394308832916
0.924,0.9752730784575909,5901.712092609753
0.928,1.1812843977281258,5901.064162371135
0.932,1.1360020366685446,5894.4862646396505
0.936,0.8354949585920947,5899.6976905572255
0.94,0.3229974601578436,5894.500010170279
0.944,-0.32132163586622786,5893.677623714868
0.948,-0.9991236385291369,5894.830042187097
0.952,-1.6149613237480265,5891.413764614422
0.956,-2.092709250554453,5901.714781751192
0.96,-2.3833771843993916,5905.092043800645
0.964,-2.4652814844628024,5903.415195495703
0.968,-2.340932293807161,5890.174878556853
0.972,-2.0344639046656394,5898.803244182294
0.976,-1.5900871859169339,5894.442245058532
0.98,-1.0689568090473502,5900.704708728398
0.984,-0.541489259037879,5898.9696287651
0.988,-0.0750486551737289,5903.9871498581
0.992,0.278979398411989,5903.218375549237
0.996,0.4929563399863517,5900.928198767224
1.0,0.5624232011197224,5895.191020781186
1.004,0.49905986096031874,5893.351415830774
1.008,0.3224064762529661,5903.685375292916
1.012,0.05494996921393694,5893.911264113956
1.016,-0.27815296790645483,5900.218244417541
1.02,-0.6465716355959208,5892.927604696195
1.024,-1.0127082761022508,5907.92254664989
1.028,-1.332828932731655,5892.086306470994
1.032,-1.5625048075929084,5900.802452559392
1.036,-1.6650378304967193,5896.577948784581
1.04,-1.619953736783589,5907.31483324871
1.044,-1.4287966676423385,5888.44334114814
1.048,-1.1165063267083042,5902.210822153276
1.052,-0.7276904425555476,5897.418919423532
1.056,-0.31840983085323094,5897.650952501153
1.06,0.054305401770624914,5894.065693420807
1.064,0.342189515692707,5893.897209075437
1.068,0.5124413189349133,5892.813841986288
1.072,0.5506709219119578,5895.07685331028
1.076,0.46058706258183985,5894.37840321273
1.08,0.2614996466316224,5903.604729853867
1.084,-0.015038270313795232,5900.198820391227
1.088,-0.3285334371235183,5900.655981064163
1.092,-0.633230437087634,5895.935407909842
1.096,-0.8834295717215886,5901.371776278499
1.1,-1.0404349991125952,5895.347739682527
1.104,-1.0790766294919087,5908.186268469317
1.108,-0.9916060372836921,5888.544128044719
1.112,-0.7883985917163495,5900.483581645703
1.116,-0.49593459789408356,5889.227746246847
1.12,-0.15226188997889128,5900.107683950268
1.124,0.1998623199901228,5893.325138698716
1.128,0.5207130070569818,5899.175523986811
1.132,0.7797170878671721,5893.914628644776
1.136,0.958358663312308,5890.125857706872
1.14,1.0503108275915602,5893.775175256255
1.144,1.0599573369256823,5903.516374970632
1.148,0.9997137027316855,5902.07084002266
1.152,0.8863044058633323,5894.974037814352
1.156,0.7369441050269439,5891.452922145183
1.16,0.5667590284706582,5888.314586048613
1.164,0.38798707245615277,5896.051683185682
1.168,0.21036508520147382,5897.345842251796
1.172,0.041638793482291686,5895.948191909254
1.176,-0.11261002079664023,5898.082958020559
1.18,-0.24995703488845628,5899.539288682129
1.184,-0.3721064975649402,5900.566109725873
1.188,-0.4840960603711366,5900.578699852231
1.192,-0.5904097480109451,5898.42151641845
1.196,-0.6890862945743402,5901.75850781901
1.2,-0.7674839434647308,5887.817334712639
1.204,-0.8030576856502306,5901.056739654818
1.208,-0.7691616277925993,5905.444249695632
1.212,-0.6430943896291343,5905.601214084926
1.216,-0.41388767912336827,5900.210949584818
1.22,-0.08868267692389144,5894.769518751356
1.224,0.3039715436394836,5899.675435432542
1.228,0.7167869280256255,5896.647035055372
1.232,1.0937640724227145,5895.058667250791
1.236,1.3846271577695592,5892.066585411055
1.24,1.557460955648416,5893.551839266798
1.244,1.6042541311282372,5904.473224899286
1.248,1.5380367586415467,5894.326321003487
1.252,1.3842220527297344,5890.839102541073
1.256,1.1708494558130165,5896.519967157606
1.26,0.9223914319454359,5898.701198577844
1.264,0.6595054259020865,5903.51653203249
1.268,0.40337653271211793,5900.1987239614045
1.272,0.18046161654626078,5896.2885136233135
1.276,0.023314908291937,5895.82282292986
1.28,-0.03465084564036457,5892.99713235204
1.284,0.030470760619347368,5898.654611040697
1.288,0.22144072371216258,5904.417506287848
1.292,0.5125533467538164,5905.364636855768
1.296,0.8515296609576329,5895.055554587957
1.3,1.1716772448336281,5898.6391773940295
1.304,1.4099410547496218,5900.544769358443
1.308,1.5233042193498854,5906.659341268325
1.312,1.497548449244546,5901.30299803721
1.316,1.3467381196531714,5896.377127806261
1.32,1.105286488962684,5901.687267100983
1.324,0.8160191549780627,5900.08975197393
1.328,0.5183144435326149,5891.478936278432
1.332,0.2402311372194854,5906.069388546488
1.336,-0.0033147047965272807,5907.129639540348
1.34,-0.20725103293488173,5887.643578391034
1.344,-0.37101188062773055,5893.979771468713
1.348,-0.4943155997981337,5902.420151714294
1.352,-0.5757221985214952,5898.236122558947
1.356,-0.6137385019565786,5888.478648911186
1.36,-0.6087419436085411,5894.29299833748
1.364,-0.5635683331466482,5900.675633736477
1.368,-0.4817347028061626,5894.016341795442
1.372,-0.3644252144666357,5890.97177330563
1.376,-0.20901640425887566,5900.921093039595
1.38,-0.011606930850664166,5902.236464140876
1.384,0.22648143298970144,5902.2690209352495
1.388,0.4915129438724114,5899.050437762411
1.392,0.7542068556745176,5909.124947140704
1.396,0.9734824964194886,5888.771186557527
1.4,1.105900586912346,5904.698058026061
1.404,1.1168524392971995,5891.260122045145
1.408,0.9896110649157457,5904.591312087857
1.412,0.7299787685227784,5902.169500949746
1.416,0.3659027527513018,5892.58795740231
1.42,-0.05720363247759998,5889.802797553414
1.424,-0.4837599504719162,5898.843739333636
1.428,-0.8561518580529454,5895.707883805686
1.432,-1.1225339980977034,5895.640007096552
1.436,-1.2439297966065366,5899.392389719277
1.44,-1.2005220032772286,5892.211250646402
1.444,-0.9963293363544287,5904.446012606997
1.448,-0.6603115795764145,5886.970635485524
1.452,-0.2418032606508717,5900.397705449081
1.456,0.19991975298386638,5903.501393231581
1.46,0.608979844113435,5902.383340364038
1.464,0.9440387673407573,5902.42383161733
1.468,1.182935443058088,5900.385561707363
1.472,1.3201322059257867,5897.0160109301805
1.476,1.3602064641536786,5900.872702246098
1.48,1.3119616185783443,5889.876610376348
1.484,1.185924845442308,5892.057557482313
1.488,0.9950556015669114,5901.496791638387
1.492,0.75668974294349,5906.12850639969
1.496,0.4937603482903243,5899.776753030196
1.5,0.23422269529536693,5903.301181368987
1.504,0.008240783756239909,5900.36273211948
1.508,-0.1568106297078368,5899.92924453973
1.512,-0.24229734504619926,5896.6339275306655
1.516,-0.24262779012439217,5891.415557484508
1.52,-0.165442735856574,5897.255997868671
1.524,-0.027508556204137113,5907.536161624668
1.528,0.15086574494764973,5903.543073825079
1.532,0.34886243907802583,5901.227514598465
1.536,0.543974831367528,5897.76577169436
1.54,0.7093172678455846,5897.424469781161
1.544,0.8140975961304413,5898.368235544089
1.548,0.8293984669113679,5901.450675821396
1.552,0.737246465753688,5894.481023015963
1.556,0.5388112300492726,5899.563517912059
1.56,0.25801369709189553,5902.486667297388
1.564,-0.061531450493375044,5905.117051302771
1.568,-0.36623952554673506,5898.4530082525125
1.572,-0.6065860130924775,5897.62370248424
1.576,-0.7510498397729832,5899.871622810799
1.58,-0.7950051016143435,5903.125689236976
1.584,-0.7612152919122619,5899.053649448501
1.588,-0.6918886544943484,5905.1233133691385
1.592,-0.635437176066016,5886.067861451366
1.596,-0.6324007097910579,5901.310094868383
1.6,-0.7045312716386781,5895.55788728418
1.604,-0.8500122613830954,5904.807036865579
1.608,-1.0463387791914587,5895.463552570988
1.612,-1.259680999911957,5902.147309235484
1.616,-1.4562747713564006,5901.145340309345
1.62,-1.610244714634838,5893.98460447704
1.624,-1.7049591681303455,5897.967958289557
1.628,-1.7296349389913903,5906.269411361824
1.632,-1.6758574428993063,5903.201260594512
1.636,-1.5382038713131858,5893.649208543188
1.64,-1.319820004073278,5896.488262964743
1.644,-1.0395078830925022,5896.907040301106
1.648,-0.7345677905770234,5900.639087973605
1.652,-0.45541815450919465,5891.312826285283
1.656,-0.2526671466155901,5906.390955665548
1.66,-0.1614538683211415,5898.716467032626
1.664,-0.18933344079054967,5901.652158492412
1.668,-0.31255561050968217,5895.723414796548
1.672,-0.48218026210160264,5892.081741451207
1.676,-0.6377660434728527,5894.8069807489655
1.68,-0.7239830987841833,5899.100236289073
1.684,-0.7049910479121543,5890.984849708418
1.688,-0.5726672044693015,5896.049571940053
1.692,-0.34730142467352987,5908.1248650949165
1.696,-0.07187207742019237,5907.403703736117
1.7,0.1979564096523933,5900.815550601109
1.704,0.40624422600619625,5902.213616747265
1.708,0.5097018124510098,5891.154655051352
1.712,0.48820869329722705,5894.499578403582
1.716,0.3493014883200626,5893.487662707221
1.72,0.12438828716005379,5897.967108837694
1.724,-0.14218571880860123,5898.084595674758
1.728,-0.40685092459292294,5907.934290148684
1.732,-0.6378980541556858,5905.335831580838
1.736,-0.8201169762272164,5897.363988071335
1.74,-0.9524399733636562,5902.640797090974
1.744,-1.0414112938861932,5899.761174925315
1.748,-1.0948528583031047,5899.247901754324
1.752,-1.1187628969091445,5903.100714983478
1.756,-1.1174383334383917,5896.628192107466
1.76,-1.0945862656763716,5898.368133102887
1.764,-1.053347441632547,5897.91886087522
1.768,-0.9950793518126945,5904.179938569622
1.772,-0.9184463546950685,5896.093600923753
1.776,-0.8203394807841534,5896.617576468087
1.78,-0.6985803415629558,5896.799285692748
1.784,-0.5546605361627958,5898.3003024169375
1.788,-0.39442068646928397,5894.747342788399
1.792,-0.22608181420591308,5908.951772827371
1.796,-0.05716073568534021,5889.998191225701
1.8,0.10741939822171248,5899.823412712131
1.804,0.2646610178107792,5895.086360624469
1.808,0.4104647908835674,5905.424409403545
1.812,0.5359384489913672,5898.820643405498
1.816,0.6258333780173384,5905.72974686722
1.82,0.6615353188273311,5890.980091784108
