时间(s),电压(V),幅值(高频80K)
0.0,-1.3019391406040068,5898.892942363175
0.004,-1.2191437586335983,5900.128115928512
0.008,-1.1439667373246785,5905.377677557304
0.012,-1.082831853519713,5901.179388845437
0.016,-1.0397140965819898,5901.258416283552
0.02,-1.0160748467603573,5900.689460634006
0.024,-1.0113783831391698,5893.47893703388
0.028,-1.0237097242488369,5900.0017866106455
0.032,-1.050214772011966,5902.899679459913
0.036,-1.087362761112248,5895.123416748666
0.04,-1.1311342685760424,5905.333851876737
0.044,-1.1771883893268158,5891.27838939233
0.048,-1.2210358644414918,5896.82813786406
0.052,-1.2583065440527572,5897.39958884037
0.056,-1.2852215403206595,5894.269665633088
0.06,-1.2992487418515315,5900.071178737535
0.064,-1.2997300863293786,5900.015147057889
0.068,-1.2881972473979812,5893.90438360456
0.072,-1.2681733626847085,5899.481942977343
0.076,-1.244413590756874,5898.220683999968
0.08,-1.2217155029857463,5898.586295764692
0.084,-1.2036048493110547,5899.242633700033
0.088,-1.1913311595493068,5904.168933948886
0.092,-1.183618708675085,5896.368671918444
0.096,-1.177390782001567,5903.96254095758
0.1,-1.169215945819774,5897.66579305759
0.104,-1.156816946010907,5904.693371238012
0.108,-1.1399807807405131,5917.032589192501
0.112,-1.1205791126776847,5894.860758401911
0.116,-1.1018203250134733,5900.11189849421
0.12,-1.0870888762457096,5898.109408335603
0.124,-1.078813931174625,5891.118082771207
0.128,-1.0778018342684916,5911.670171256114
0.132,-1.083291360639228,5905.146809851105
0.136,-1.0936301230856855,5908.137294625109
0.14,-1.1071419820658903,5905.927521455648
0.144,-1.122711736664276,5905.980599235426
0.148,-1.1398591957532624,5900.684838761843
0.152,-1.1583896574905799,5903.978812639406
0.156,-1.177885246439011,5900.305244102765
0.16,-1.1973066908758285,5902.195528657742
0.164,-1.2148927577341133,5900.290989943329
0.168,-1.2284302299762528,5896.695277070377
0.172,-1.2358161521838122,5900.92645734494
0.176,-1.2356783897098687,5905.9098196299965
0.18,-1.227772912469195,5895.4970021754825
0.184,-1.213016142984599,5909.951593377668
0.188,-1.1932457540074017,5902.421560475126
0.192,-1.1709274819964584,5901.256956057276
0.196,-1.148930892369269,5903.393939533409
0.2,-1.130286536573706,5905.653736753902
0.204,-1.1177454216286389,5905.386426429114
0.208,-1.1131265054492883,5899.957635997451
0.212,-1.1167049984759043,5895.458562472659
0.216,-1.126972056576838,5897.13330002203
0.22,-1.1409187520361395,5902.301757621303
0.224,-1.154751645834486,5897.316513970259
0.228,-1.1647885643242746,5903.26307532
0.232,-1.168241788559711,5896.805481138782
0.236,-1.1636783454208395,5898.440683843373
0.24,-1.1511095112468321,5895.714950585486
0.244,-1.1317984320214787,5901.400828087562
0.248,-1.1079431848042136,5892.49761899586
0.252,-1.0823948005780235,5904.426512815618
0.256,-1.05845984369728,5906.706660137486
0.26,-1.0396526446864036,5906.429693037727
0.264,-1.0292172336339525,5900.115050691278
0.268,-1.029461230788736,5897.035707915067
0.272,-1.0412162236433402,5910.310356549883
0.276,-1.063715575382904,5897.267104309286
0.28,-1.0948561980203169,5892.131387601212
0.284,-1.1315655041647101,5895.262540862724
0.288,-1.1700896084487402,5899.888409236323
0.292,-1.2062643451926707,5901.067058847829
0.296,-1.2359002612639778,5915.391345199612
0.3,-1.255285001942542,5895.945074339278
0.304,-1.261693640809946,5895.222338327955
0.308,-1.2537934448869186,5903.885873271776
0.312,-1.2318659907768261,5910.264576290932
0.316,-1.19780709305457,5899.875189301185
0.32,-1.1549128412344085,5904.290538340058
0.324,-1.1074979867470882,5903.967394006028
0.328,-1.0604098708307352,5905.36220074971
0.332,-1.018517555442252,5902.156161485377
0.336,-0.9862514326348479,5890.422026034693
0.34,-0.9671961332215441,5903.800427650904
0.344,-0.9636613360374437,5898.765110960373
0.348,-0.976224556595767,5897.067305453989
0.352,-1.0034334350966356,5897.839477201069
0.356,-1.041912763712149,5899.110032887988
0.36,-1.0869256921927843,5888.2517048096615
0.364,-1.1332018919744262,5907.857590493399
0.368,-1.1757746541381262,5902.914317748532
0.372,-1.2106240240566688,5898.323413718444
0.376,-1.235002572558091,5893.365515188045
0.38,-1.2474274458104877,5906.532338879494
0.384,-1.2474689173896232,5894.924313733092
0.388,-1.2355635890831047,5898.237761155207
0.392,-1.213023527660791,5892.596593733466
0.396,-1.1822246341950764,5893.105823321499
0.4,-1.1467736435828058,5895.128083979324
0.404,-1.1113822346051507,5899.209307883141
0.408,-1.081258769587693,5894.009547517506
0.412,-1.061063605376231,5900.694174603162
0.416,-1.0537723743047342,5892.629072305383
0.42,-1.0599386873790395,5899.905985351781
0.424,-1.077674260309344,5901.375083426743
0.428,-1.1032656127319913,5899.373861478548
0.432,-1.132041065760229,5907.063216156185
0.436,-1.159134358203456,5905.93483110992
0.44,-1.1800811595682823,5899.28429725811
0.444,-1.1914109790424403,5899.677848806684
0.448,-1.191343454711903,5906.876708494261
0.452,-1.1804386139741163,5893.430634330859
0.456,-1.1618182310713203,5907.705557570114
0.46,-1.1405851203008608,5895.355724019588
0.464,-1.1224057782087942,5892.477259724416
0.468,-1.111723061738872,5892.625049197119
0.472,-1.1103525321347345,5901.140140513181
0.476,-1.1170499197150865,5897.691629523823
0.48,-1.1281713812106249,5902.361378244613
0.484,-1.1391180325065016,5899.793156343923
0.488,-1.1460405755725163,5903.446629700381
0.492,-1.1472593637056112,5897.022600462365
0.496,-1.1439540331160827,5900.414723728984
0.5,-1.139857738717153,5900.641559123461
0.504,-1.1399587543444616,5899.145170807515
0.508,-1.1485499928865552,5897.487014323348
0.512,-1.1672859159883344,5894.827386471854
0.516,-1.1940496574198771,5897.695129096115
0.52,-1.2232344678883391,5896.170111149138
0.524,-1.2474716138828559,5900.387092506547
0.528,-1.2601340398972252,5894.276428927357
0.532,-1.2575346150386053,5898.532792116574
0.536,-1.2399039195895838,5899.626564347197
0.54,-1.210873582392048,5899.206337081082
0.544,-1.1758877836909756,5902.085547573647
0.548,-1.1403195262597992,5899.814791959634
0.552,-1.1080035897532405,5899.486225702284
0.556,-1.0806100105637015,5902.689767400956
0.56,-1.057944814321001,5903.074765864085
0.5640000000000001,-1.0389261980012943,5903.204977739839
0.5680000000000001,-1.02271987412155,5899.4167001687365
0.5720000000000001,-1.0094860020563685,5904.210918038746
0.5760000000000001,-1.000446298964555,5899.577373947232
0.58,-0.9973484669258394,5896.390536823309
0.584,-1.001646325666298,5896.804240626209
0.588,-1.0137490898051702,5900.183506328935
0.592,-1.0326060713265215,5900.940030215375
0.596,-1.0557653827798232,5899.853074345817
0.6,-1.0798819364997299,5897.085351139631
0.604,-1.10148260103222,5903.310860165381
0.608,-1.1177239790416926,5900.928724065273
0.612,-1.1269321105928,5904.266964248154
0.616,-1.128814131612555,5903.762373543993
0.62,-1.124323664739425,5895.351497135372
0.624,-1.1152520665239343,5893.005784945346
0.628,-1.103690084711389,5901.268285976602
0.632,-1.0915188660086794,5897.08078276161
0.636,-1.080047609021932,5895.6513219461685
0.64,-1.069851547354621,5893.555213954024
0.644,-1.0608121028369428,5897.353285363678
0.648,-1.0523428702997584,5900.296039364149
0.652,-1.0437690722248734,5897.604244561134
0.656,-1.0347608479296888,5906.384560486545
0.66,-1.0256638900478334,5894.094266269154
0.664,-1.0176397681589753,5905.412715130448
0.668,-1.0126424456646022,5902.598135560776
0.672,-1.013229196978318,5904.743917368429
0.676,-1.0220904092393641,5895.655755114503
0.68,-1.0412301463332003,5901.505447612927
0.684,-1.07099096422828,5894.756580722874
0.6880000000000001,-1.109370595592084,5899.564144210585
0.6920000000000001,-1.1520774903951452,5903.867016509589
0.6960000000000001,-1.1934678042672366,5908.429324425129
0.7000000000000001,-1.2280807747651024,5898.950178576934
0.704,-1.2521937436507249,5895.6188582958175
0.708,-1.2647918001353318,5898.911433191903
0.712,-1.26759123445017,5900.838415905625
0.716,-1.26415760492999,5898.552277289999
0.72,-1.2585210745123858,5896.817217488659
0.724,-1.2538561358148625,5898.023946134688
0.728,-1.25172210884849,5905.087078045514
0.732,-1.2520911893952966,5898.79637602667
0.736,-1.2540306087036497,5906.067614934412
0.74,-1.256635324489229,5892.769776601181
0.744,-1.2597464963876503,5899.255115161936
0.748,-1.2641145767641067,5909.289912089928
0.752,-1.2709093311836874,5898.063335653105
0.756,-1.2807933516004781,5900.005257328327
0.76,-1.2930374134236036,5897.360703690543
0.764,-1.3051834046448898,5896.963640674078
0.768,-1.313503937326295,5897.431858849723
0.772,-1.3141243175709274,5901.983584199093
0.776,-1.3043709010127547,5899.4433115436
0.78,-1.2838117436471148,5894.940518929703
0.784,-1.2545958340513834,5897.132506166063
0.788,-1.2210000583114062,5893.845715362856
0.792,-1.1883569556825264,5900.857450815982
0.796,-1.1616419679583527,5906.340857543592
0.8,-1.1440649494952806,5904.783197701635
0.804,-1.1361260840595024,5908.010641228864
0.808,-1.1355750441506098,5903.75219569586
0.812,-1.138377457456758,5896.638783140822
0.8160000000000001,-1.1403183270749293,5905.836262123385
0.8200000000000001,-1.1385999670652056,5893.973070094931
0.8240000000000001,-1.132851805618692,5895.764460899598
0.8280000000000001,-1.1252446560070337,5899.460984861953
0.8320000000000001,-1.1197325588801021,5899.358488503271
0.836,-1.120715603941086,5896.629953837736
0.84,-1.131552387463796,5906.089536364691
0.844,-1.1533466387546576,5906.815905231481
0.848,-1.1843474609786937,5906.553508771269
0.852,-1.2201718504730712,5902.135041718149
0.856,-1.2548536573750138,5897.44162587644
0.86,-1.282433141846979,5906.968666891953
0.864,-1.2985308641713853,5893.981536259547
0.868,-1.3013044886694616,5894.414980402792
0.872,-1.291495633403347,5898.610754451884
0.876,-1.2717688653418286,5904.044637971059
0.88,-1.2458183445877489,5904.463312454276
0.884,-1.217561612963988,5902.540355579308
0.888,-1.1904384983922214,5898.409393669958
0.892,-1.1667922473918841,5902.096638195951
0.896,-1.1475032993367051,5901.806760649362
0.9,-1.1320945471774735,5893.68670441417
0.904,-1.1192748835288113,5900.425457468467
0.908,-1.1076130155440804,5903.015347279162
0.912,-1.0960321843824627,5897.517565604546
0.916,-1.084029106542947,5898.121595429196
0.92,-1.0716968435313812,5897.722613383523
0.924,-1.0596665701010282,5899.097026025918
0.928,-1.049036819453399,5899.443559084445
0.932,-1.0412898940819055,5901.196251735944
0.936,-1.0381356310745358,5897.910836847907
0.94,-1.041230628383622,5905.614269129157
0.944,-1.0518235812799177,5901.623719205102
0.948,-1.070474261689635,5899.960426061923
0.952,-1.096940287450524,5892.801429428023
0.956,-1.1301589822496023,5901.105636284039
0.96,-1.1681979654464132,5905.941912053929
0.964,-1.2082056877202163,5897.139877936131
0.968,-1.2465555169271871,5903.9194561207605
0.972,-1.2793158493314178,5888.666036301272
0.976,-1.302949440082952,5907.053509238774
0.98,-1.3149780003897178,5900.477340864444
0.984,-1.3143760852589375,5911.289058261659
0.988,-1.3016321805491904,5895.8431644288485
0.992,-1.2785770042118305,5903.531454670469
0.996,-1.2481065801191003,5894.193843760809
1.0,-1.2138548519706098,5897.818339025279
1.004,-1.1798132816551647,5905.019623330946
1.008,-1.1498744059639976,5901.530572712474
1.012,-1.127258528972907,5894.578793954517
1.016,-1.1138291045905735,5901.483876979159
1.02,-1.1094735257865174,5898.500702413712
1.024,-1.1118854361276433,5900.930970658755
1.028,-1.117014021334634,5889.966751414407
1.032,-1.120141780683139,5899.661113829139
1.036,-1.1172448339139271,5908.5229151813455
1.04,-1.1061785222432143,5891.751500126149
1.044,-1.0873341859089019,5898.435454987972
1.048,-1.0636312964458676,5888.445728532036
1.052,-1.0399061377346253,5903.371712304015
1.056,-1.0218385920114406,5898.812582585232
1.06,-1.0145700655296508,5909.124432611342
1.064,-1.0212490037975548,5898.946831251009
1.068,-1.0419186476728908,5898.6459664746535
1.072,-1.0732476207538397,5895.232119975308
1.076,-1.1093757447924015,5900.653335900385
1.08,-1.1436264016343454,5905.880382887141
1.084,-1.170366574011858,5896.985976665921
1.088,-1.186258371016342,5908.084919727503
1.092,-1.1905597747822272,5906.5371327582325
1.096,-1.1846320814682247,5897.271080249667
1.1,-1.1710592906383739,5903.62075270609
1.104,-1.1527595279612584,5904.249735495796
1.108,-1.1323287970402016,5897.594408936036
1.112,-1.1117193737095088,5895.313092585728
1.116,-1.0922632625528472,5905.702836870675
1.12,-1.0749817552846634,5904.023543315722
1.124,-1.0609940670860312,5897.828582158378
1.128,-1.0516894279126416,5903.611411384714
1.132,-1.0483922986293583,5901.718082729241
1.136,-1.0516282595484836,5891.524351970188
1.14,-1.0604798715539965,5904.488654708302
1.144,-1.0725134905331306,5902.417916547811
1.148,-1.0843743753283457,5906.1114166620655
1.152,-1.0927581304590324,5898.58303227072
1.156,-1.0953364205555949,5912.048722295526
1.16,-1.0913244368103636,5899.272006017333
1.164,-1.0815992561525913,5899.538049546682
1.168,-1.0684766439429316,5892.097088302621
1.172,-1.0552954823903749,5901.379883263869
1.176,-1.045843271130809,5895.058600906814
1.18,-1.0435809879662037,5907.119870932956
1.184,-1.0507591302627992,5907.686146865938
1.188,-1.0677442458676891,5898.273435502379
1.192,-1.0929156653446852,5900.311563829259
1.196,-1.1232370988755422,5894.799216311273
1.2,-1.155242898576054,5902.018922815697
1.204,-1.1859927728656507,5903.331347771597
1.208,-1.2136504759402031,5896.10777398462
1.212,-1.2375775919021994,5902.769637663392
1.216,-1.2580059830777461,5892.562729584112
1.22,-1.2754296449454003,5898.020406807887
1.224,-1.2899085493053597,5904.109946184567
1.228,-1.3005298077298975,5899.0477724296425
1.232,-1.3052803002118705,5893.394567341865
1.236,-1.301489184710789,5899.405326440293
1.24,-1.2867876353555996,5894.774514182046
1.244,-1.2602812739426654,5895.986500904324
1.248,-1.223477722003173,5894.330638399761
1.252,-1.180572821632249,5900.640585938047
1.256,-1.1379428166146894,5897.899005653904
1.26,-1.1029411722807922,5888.952442854589
1.264,-1.0822382449442203,5896.368204800578
1.268,-1.0800318608040018,5897.574814969604
1.272,-1.0965856483370415,5896.492499851926
1.276,-1.1276478608546396,5897.702531493693
1.28,-1.1651805192536544,5900.519009879899
1.284,-1.1993887250495638,5906.161507136864
1.288,-1.2214453678952648,5899.692658755442
1.292,-1.2259328662495181,5908.54718190019
1.296,-1.2121421615551027,5900.27394023715
1.3,-1.1838903797583518,5895.146448659549
1.304,-1.1480987494369381,5905.412904327705
1.308,-1.1127154206145662,5898.659055534697
1.312,-1.0846095210977036,5899.075637377073
1.316,-1.0679374584733636,5907.475249021052
1.32,-1.0633430113670412,5899.785224147546
1.324,-1.068206465200703,5888.547340003626
1.328,-1.0778983813729248,5905.151390779379
1.332,-1.0876245324734648,5893.937068793975
1.336,-1.0941891137085413,5900.571604582078
1.34,-1.0970468611050666,5895.991803602791
1.344,-1.098290906807627,5907.23610695104
1.348,-1.1015638492929485,5895.812701890441
1.352,-1.1102535237408555,5898.858495974001
1.356,-1.1256951099420753,5910.29715404655
1.36,-1.1462035441401515,5904.645563624515
1.364,-1.1674179069482948,5895.936440318389
1.368,-1.183814517748932,5910.989556594634
1.372,-1.1907051463627571,5900.381769185578
1.376,-1.185844778328127,5898.680517868884
1.38,-1.1699837362547882,5900.157638755272
1.384,-1.1462016965813115,5905.784361129265
1.388,-1.1184384860094294,5901.1119927100735
1.392,-1.0900136551329729,5905.800238972467
1.396,-1.0628824280114275,5907.472944007925
1.4,-1.0379143283663554,5901.463092886875
1.404,-1.0158778637627015,5895.629657950647
1.408,-0.9984245953656693,5899.60509825311
1.412,-0.9883923733999569,5903.259167485334
1.416,-0.9891524741530624,5899.180267576257
1.42,-1.0032626741670587,5892.285821966279
1.424,-1.0310611225996902,5898.40479219698
1.428,-1.0698934156408861,5896.477998970982
1.432,-1.11442009949612,5901.505312964268
1.436,-1.1579825753446444,5889.891263190295
1.44,-1.1944862309037185,5902.205573658513
1.444,-1.2199853173160933,5907.811981899099
1.448,-1.233335439795261,5902.326234436105
1.452,-1.2358100426939496,5900.954843154295
1.456,-1.2300899197832371,5901.278072723586
1.46,-1.219213264314316,5896.086114338848
1.464,-1.2058947119170913,5906.692308047654
1.468,-1.1923000437125544,5902.149545239482
1.472,-1.1801171234698942,5896.957649893453
1.476,-1.1706832611027098,5897.875144110471
1.48,-1.1650023666031109,5892.065042446894
1.484,-1.163634055293693,5892.919379970995
1.488,-1.1665560724130901,5897.144275850467
1.492,-1.1731311758378897,5893.801157086681
1.496,-1.1822513529789183,5901.281738944152
1.5,-1.1926295218587741,5898.77253516289
1.504,-1.2031336798433232,5893.340198780903
1.508,-1.2130430948028335,5905.505570936597
1.512,-1.2221229905125581,5904.674207726244
1.516,-1.2304593545830653,5896.379278221318
1.52,-1.238093302723137,5897.106464438641
1.524,-1.2446179978368255,5886.107254289109
1.528,-1.2489664808837535,5906.657409753199
1.532,-1.249552289682736,5905.305048924881
1.536,-1.244751351427503,5907.849089271905
1.54,-1.2335643355478014,5898.372062175368
1.544,-1.2162467058381514,5899.403740932568
1.548,-1.194675375597402,5898.670344529763
1.552,-1.1722245495869026,5909.019156028951
1.556,-1.1530546340404315,5894.667960657818
1.56,-1.140974052612812,5907.588944292318
1.564,-1.1382531928297384,5896.080890348529
1.568,-1.1448362681700457,5892.180495866734
1.572,-1.1582833235090444,5898.596142057765
1.576,-1.1744863465298934,5891.740566566296
1.58,-1.1888605086028219,5900.727724568704
1.584,-1.197531549417897,5894.232269432035
1.588,-1.1981234601837538,5901.763000857051
1.592,-1.1899986026466869,5896.22700577817
1.596,-1.1740436917538697,5903.31267342362
1.6,-1.152210359303799,5909.565614580251
1.604,-1.127007105487641,5895.229291221147
1.608,-1.1010783251073541,5899.5574423341
1.612,-1.0769267218210887,5903.862328522814
1.616,-1.056735101345144,5898.216735229752
1.62,-1.0422006334012213,5904.769418225003
1.624,-1.0343802286104151,5898.631244719732
1.628,-1.0336571378265422,5897.021190979859
1.632,-1.0399070037071343,5901.241890018486
1.636,-1.0527716073199453,5902.113602031155
1.64,-1.0718258234686657,5901.688134604781
1.644,-1.0964905124406719,5900.379582116345
1.648,-1.1257492615746187,5904.589528966032
1.652,-1.1578979587024216,5900.050162789
1.656,-1.1905610038493526,5896.522626160228
1.66,-1.2210268046102315,5904.358110526787
1.664,-1.2466995710223376,5900.714402026783
1.668,-1.2653615203340822,5899.587921786531
1.672,-1.2751403082870432,5908.552908873363
1.676,-1.2744149193836205,5895.749772533194
1.68,-1.2620121924515448,5897.339721792223
1.684,-1.237805037556957,5896.415809223009
1.688,-1.2034274640021674,5903.2789499733735
1.692,-1.1625887653515943,5897.033335047699
1.696,-1.1205980506813327,5895.094396798219
1.7,-1.0831497643142027,5904.118492891284
1.704,-1.0548684481581159,5898.618285876343
1.708,-1.0382523424812515,5896.761305428568
1.712,-1.0334160317733991,5897.871961827057
1.716,-1.0385800197318242,5904.003119925957
1.72,-1.0508843880633614,5898.4362458094565
1.724,-1.0670765248960674,5893.212662584295
1.728,-1.0839362874201206,5893.631892404306
1.732,-1.098633564363678,5901.763556157776
1.736,-1.109221817522969,5899.086414461791
1.74,-1.1151629565747823,5904.22252006132
1.744,-1.1175136860463277,5900.809291308919
1.748,-1.118496106178505,5894.327989134212
1.752,-1.1205516324844902,5897.244307597931
1.756,-1.125295916894792,5904.4050613709005
1.76,-1.1328266725755058,5896.906266693396
1.764,-1.141637184407858,5895.294850384084
1.768,-1.1491327599114547,5896.983036092625
1.772,-1.1525519096865307,5893.302223014463
1.776,-1.1499891199046062,5895.735880278546
1.78,-1.1411928389282027,5894.212101386593
1.784,-1.127854804887528,5897.325383372802
1.788,-1.1132301263844013,5903.465433719057
1.792,-1.101151420354079,5897.779347361316
1.796,-1.09475902022055,5909.492416938131
1.8,-1.0954199908424525,5902.314424626641
1.804,-1.1022392093075155,5902.255669481702
1.808,-1.1122851327965206,5892.46151535995
1.812,-1.1213381603416042,5893.629620807738
1.816,-1.1248606301225907,5894.6448447179455
