时间(s),电压(V),幅值(高频80K)
0.0,-1.6287135135107256,5898.7251440822965
0.004,-1.5867775658619276,5896.843512943406
0.008,-1.5469783312647627,5900.90163086393
0.012,-1.5110310956308712,5887.181746895233
0.016,-1.479507491071793,5915.610714069976
0.02,-1.452229624902799,5900.965594478075
0.024,-1.4288623014230066,5902.409432522686
0.028,-1.4093290962749723,5895.770318300481
0.032,-1.393963931503489,5902.246888203023
0.036,-1.3834820465786817,5892.797847967391
0.04,-1.3788121207862793,5901.907329658062
0.044,-1.38074569658301,5899.3905391689495
0.048,-1.3893869807121908,5902.802593777622
0.052,-1.403534690828862,5899.849772135233
0.056,-1.4202877286089843,5893.323634660439
0.06,-1.4352102391942518,5899.405783706472
0.064,-1.4432555336296151,5888.30278296895
0.068,-1.4403259756315534,5892.025738699588
0.072,-1.424930794362827,5899.383175692576
0.076,-1.3991602858513488,5894.457381770587
0.08,-1.3683934063712186,5899.742688816841
0.084,-1.339760077438005,5894.428139388802
0.088,-1.3200070988751593,5898.810911197453
0.092,-1.31366239992716,5904.189596607196
0.096,-1.32214372522808,5904.908002123221
0.1,-1.343919450591164,5906.650445415761
0.104,-1.375355160129945,5891.00695365992
0.108,-1.4117506907977826,5896.621607058525
0.112,-1.4482747930595248,5896.485561640187
0.116,-1.4807312841062659,5901.444297907185
0.12,-1.5061020788254578,5896.773773981885
0.124,-1.522741604408163,5905.84546868944
0.128,-1.5302119257121671,5898.283341753115
0.132,-1.5289949571557204,5898.34906792531
0.136,-1.5203751558870493,5884.95386066266
0.14,-1.506547919035579,5908.29664099242
0.144,-1.4907305033292422,5901.272556804416
0.148,-1.4769859789818982,5910.47652231316
0.152,-1.4696088693296283,5895.771647684234
0.156,-1.4721206947660015,5896.064358252684
0.16,-1.4861012620119518,5895.488862045183
0.164,-1.5102290575232025,5898.713135020716
0.168,-1.5399792353051687,5904.719499007359
0.172,-1.5683171483937914,5896.882829792775
0.176,-1.5873708817284489,5898.835145580973
0.18,-1.5906063051876942,5895.826079956186
0.184,-1.574758698315537,5897.2420854843
0.188,-1.5408941661212852,5909.909258358889
0.192,-1.4943591255513708,5906.45911972943
0.196,-1.4437223786343192,5906.564322666233
0.2,-1.3989817291448308,5896.093617450776
0.204,-1.3693929099166255,5900.68309018631
0.208,-1.3613835267812937,5898.959598920384
0.212,-1.3770778333057534,5907.465682553348
0.216,-1.4138484009530314,5896.471256295652
0.22,-1.4650154886805187,5899.686245217044
0.224,-1.5214645360686185,5900.189304767907
0.228,-1.573692086405572,5909.66768843472
0.232,-1.6137097648305327,5889.716303502288
0.236,-1.6363545593185,5898.230878729803
0.24,-1.6397976461186397,5900.850909950024
0.244,-1.625294145044329,5900.28733173304
0.248,-1.5964000218861474,5898.876599271346
0.252,-1.5579770820519454,5892.351219244498
0.256,-1.5152910171525584,5897.421084032134
0.26,-1.4733665848124782,5894.874924999806
0.264,-1.4365632411442817,5902.825391433496
0.268,-1.4082370411064928,5890.215714390294
0.272,-1.3904462341647963,5901.312628545476
0.276,-1.3837869201641722,5900.135141531341
0.28,-1.3874254076590793,5895.973229561198
0.284,-1.3992888746482923,5901.674839010837
0.288,-1.4163589366289022,5905.170100171571
0.292,-1.4350725421354706,5899.580246725348
0.296,-1.4518338846976802,5905.760167956369
0.3,-1.4635665040319417,5897.932205508398
0.304,-1.4682048458087802,5892.227149292637
0.308,-1.4650658921872595,5903.302235935343
0.312,-1.4550397083940323,5905.957001399506
0.316,-1.440472361740756,5897.117472836243
0.32,-1.4246354799343166,5903.229203416806
0.324,-1.41085400973621,5896.822662271096
0.328,-1.4015678959725122,5912.093318211061
0.332,-1.3976879502796964,5902.203920043399
0.336,-1.3985264878801746,5900.589494386981
0.34,-1.4023421914172562,5898.398597887582
0.344,-1.407210634771996,5897.791036298532
0.348,-1.4117360602783888,5900.609487365785
0.352,-1.4152591052660142,5893.111574159987
0.356,-1.4175932288502366,5905.510768967967
0.36,-1.4186081244862385,5905.9794058025
0.364,-1.417986032126255,5901.673240048732
0.368,-1.4152960773043526,5906.569620378044
0.372,-1.410317226386177,5898.000182515671
0.376,-1.403401945026572,5894.925140169078
0.38,-1.395683333484334,5896.928613877835
0.384,-1.3890512464474425,5905.521023118741
0.388,-1.3859258631976685,5903.795905870857
0.392,-1.388869811922205,5900.160245770519
0.396,-1.4000424478400868,5899.314202050562
0.4,-1.420493495255976,5899.462765652336
0.404,-1.4493800721340275,5901.024045673871
0.408,-1.4833558946829257,5895.382368273649
0.412,-1.516508152769397,5906.309164671046
0.416,-1.5411661992583112,5904.533096574421
0.42,-1.5496331052449515,5905.450297722799
0.424,-1.5364938362904592,5894.455208069573
0.428,-1.5008012956388728,5900.754565517482
0.432,-1.4472970495993485,5900.676315015869
0.436,-1.3860223861469108,5906.500024719905
0.44,-1.330228524696741,5895.602617255388
0.444,-1.2931643956526673,5896.261073882904
0.448,-1.2847486121260308,5907.076612061087
0.452,-1.309136118225116,5891.347536701499
0.456,-1.3638303680036707,5900.861013980654
0.46,-1.440443883530711,5892.696015270451
0.464,-1.5267008574011716,5902.591645100306
0.468,-1.609017495627394,5893.842618214449
0.472,-1.675029645152264,5901.225756095585
0.476,-1.7156117572864837,5897.298656121498
0.48,-1.7261019356537757,5909.520193488479
0.484,-1.706617420460882,5901.532839276348
0.488,-1.6615556024051439,5894.595671605673
0.492,-1.5985493248746094,5900.819736648466
0.496,-1.5271618069746775,5892.516925036892
0.5,-1.4575004275514734,5905.867300527277
0.504,-1.3988460311462558,5904.536889839884
0.508,-1.3583960196219294,5905.483736810319
0.512,-1.340259690103856,5903.18843884356
0.516,-1.3448708775338205,5909.449209347075
0.52,-1.3689692083279557,5901.674500435966
0.524,-1.4062431555107977,5896.86157303098
0.528,-1.4486253184508049,5907.575957056681
0.532,-1.4880567581293223,5893.8712074026025
0.536,-1.518306064742767,5897.8272488542125
0.54,-1.5362882502885693,5901.261242586729
0.544,-1.5424583338209896,5899.838536266654
0.548,-1.5402195250048023,5898.6016399258
0.552,-1.5346211346294272,5892.491796849136
0.556,-1.530746225142661,5903.182337363087
0.56,-1.5321924511806948,5893.899262939649
0.5640000000000001,-1.5400470000751048,5892.576960707534
0.5680000000000001,-1.5526661502827632,5896.096820257461
0.5720000000000001,-1.5663073887115386,5899.524422718433
0.5760000000000001,-1.5763534214650359,5902.646669773603
0.58,-1.5786983325545791,5902.614284670875
0.584,-1.5708838811828467,5894.218671230495
0.588,-1.5527076668173376,5898.830579953859
0.592,-1.526189695002565,5898.710853065897
0.596,-1.4949629312838022,5898.618208250287
0.6,-1.4633411681579098,5898.567166699557
0.604,-1.435395915902273,5896.740318517251
0.608,-1.4142615961341123,5901.378465188933
0.612,-1.4017357959232792,5896.393319322118
0.616,-1.3982054299651856,5905.972570939618
0.62,-1.4029102576742891,5890.665758916339
0.624,-1.4144032912895492,5902.710255031578
0.628,-1.4308974651213404,5897.449781778521
0.632,-1.450261585335116,5913.722715859586
0.636,-1.4697691064491274,5903.013398195883
0.64,-1.4860066671323873,5904.952336730511
0.644,-1.4953300269409595,5897.789613459752
0.648,-1.4949268589603741,5899.059848091294
0.652,-1.4841335644343623,5901.5111016341325
0.656,-1.465390756560166,5887.987740601192
0.66,-1.4442519883860978,5898.396954339851
0.664,-1.4281953759187633,5902.130937587864
0.668,-1.4244966620990658,5898.824975367991
0.672,-1.4378650586207025,5909.902609425887
0.676,-1.4686987094576767,5902.019618497027
0.68,-1.5126279429688934,5898.163765243793
0.684,-1.5615816122730173,5902.186858099552
0.6880000000000001,-1.6060811254237073,5903.434058199062
0.6920000000000001,-1.638002056087685,5900.7727967807405
0.6960000000000001,-1.6528323560665765,5906.426240549487
0.7000000000000001,-1.6506395342253701,5899.219038267113
0.704,-1.6355167300110318,5894.193729865373
0.708,-1.6139423277883371,5904.139520299686
0.712,-1.5928464949135277,5904.64538451261
0.716,-1.5780376741704591,5903.195064482267
0.72,-1.5732353565953114,5904.121391162954
0.724,-1.5796455880777212,5896.6952619347885
0.728,-1.595933718784779,5907.168460489967
0.732,-1.6185092711343037,5904.747268603446
0.736,-1.6421245199534957,5899.102498066438
0.74,-1.6608269306660488,5897.231802173442
0.744,-1.669245105500571,5892.571355844256
0.748,-1.664012672093955,5901.606144537642
0.752,-1.6449243463006151,5903.882650518727
0.756,-1.6153379380201565,5897.860795292269
0.76,-1.581505496556108,5901.536541433457
0.764,-1.5509032625788812,5895.2871814741775
0.768,-1.5300575808857388,5887.444015588875
0.772,-1.5226094273796411,5893.811061905834
0.776,-1.5282930007682178,5899.152599570416
0.78,-1.5431737467464388,5887.700118439384
0.784,-1.5610551478092605,5898.511723542487
0.788,-1.5755638755161019,5896.835480573406
0.792,-1.5821875488378065,5898.816036899536
0.796,-1.5795683353624508,5903.08078833004
0.8,-1.5696235072583107,5896.529165679308
0.804,-1.5564679244482198,5901.331737722608
0.808,-1.54457426721668,5903.766476345792
0.812,-1.536965717845397,5898.439787773509
0.8160000000000001,-1.5342212827021715,5900.224910987992
0.8200000000000001,-1.534604135406839,5906.146229012608
0.8240000000000001,-1.535023768283758,5906.325965758646
0.8280000000000001,-1.5322545221289503,5899.014500637365
0.8320000000000001,-1.5239531511650386,5885.156227935172
0.836,-1.5092881825592024,5905.361318712014
0.84,-1.4891608819554054,5899.911581914803
0.844,-1.4660223228756186,5904.69881340906
0.848,-1.4432912773474094,5902.313270508306
0.852,-1.4244693800011066,5900.835827462833
0.856,-1.4122007722770942,5886.47883632984
0.86,-1.4075861913919263,5896.689888269872
0.864,-1.409966262304534,5898.743273685201
0.868,-1.4172124195921563,5902.874017649566
0.872,-1.4264143833163194,5903.0175085842575
0.876,-1.4347653325178573,5897.274486873741
0.88,-1.4403969211798584,5914.401770926508
0.884,-1.442908695565654,5906.560254465938
0.888,-1.4434156133779927,5901.698240579426
0.892,-1.4440997698008313,5904.231863306025
0.896,-1.447416887343295,5904.956272520604
0.9,-1.4552013666296364,5899.401625055484
0.904,-1.4679150898568365,5900.672020903953
0.908,-1.4842261133675156,5896.809327588329
0.912,-1.5010501857512952,5901.692371456616
0.916,-1.5141517722077937,5897.2395326800815
0.92,-1.5193031512028135,5900.3760516625925
0.924,-1.5137837978922957,5898.647214221783
0.928,-1.4977292553970003,5906.774321048563
0.932,-1.474682929562532,5892.782066717566
0.936,-1.4508703531135212,5901.864753170056
0.94,-1.4332612859215443,5900.908364223866
0.944,-1.4271618693955357,5904.966256418532
0.948,-1.434419773725613,5914.907253141239
0.952,-1.4530162323772968,5893.541383869494
0.956,-1.4780500850000524,5904.350059981659
0.96,-1.5034658531852352,5902.090397172788
0.964,-1.5237386854315143,5905.029689114253
0.968,-1.535004862897576,5897.519497369744
0.972,-1.5355019842538742,5904.82063570014
0.976,-1.5254670530180907,5903.576924730176
0.98,-1.5067604415181783,5908.393629602795
0.984,-1.4824243132262092,5895.85548132608
0.988,-1.4562378459667356,5894.358466983576
0.992,-1.4322374792556778,5899.112054451028
0.996,-1.4141740204382214,5893.592059300947
1.0,-1.404931525311746,5901.739778106329
1.004,-1.4059959122145502,5900.873582749918
1.008,-1.417129668874945,5900.196908217801
1.012,-1.4364405572692147,5895.008550974653
1.016,-1.460931541195745,5905.164469596875
1.02,-1.4873658097208406,5897.641423268575
1.024,-1.5130342521550548,5900.036976735179
1.028,-1.5360107861505699,5902.46227540093
1.032,-1.554804452468717,5893.617793109964
1.036,-1.5677574932095104,5897.148711024044
1.04,-1.5727434587187932,5901.515718366178
1.044,-1.5675180044100088,5899.710440269023
1.048,-1.5506276562455104,5901.111563576521
1.052,-1.5224075764678862,5899.886541419214
1.056,-1.4855306321937063,5892.712777805873
1.06,-1.444824130294247,5904.165721590489
1.064,-1.4064347520412495,5901.096909950073
1.068,-1.3766289753030532,5896.581348846096
1.072,-1.3605158632037706,5899.180178885155
1.076,-1.3609318140592133,5906.104511821635
1.08,-1.3777333975473416,5893.260889972357
1.084,-1.407740324803357,5901.025076536582
1.088,-1.445452987814051,5891.876120565356
1.092,-1.484413900471697,5901.578175964023
1.096,-1.5187849935692583,5899.215011242287
1.1,-1.5445719888570906,5902.561979081154
1.104,-1.5601007960666504,5906.234725856646
1.108,-1.5657405347080318,5903.388683600848
1.112,-1.5631666012190957,5901.127938223831
1.116,-1.5545008848598845,5896.580002432752
1.12,-1.541571868223573,5906.686445981485
1.124,-1.5254526216898645,5907.037544870263
1.128,-1.5063657255200555,5904.556820589891
1.132,-1.4839600957788182,5903.547459564089
1.136,-1.4578748160272652,5900.446791683728
1.14,-1.428409887905813,5906.531681676728
1.144,-1.3970424331953581,5901.666486441619
1.148,-1.3665499056223314,5900.622032680592
1.152,-1.3406697952234072,5901.29675120863
1.156,-1.3234160460745612,5900.438444585417
1.16,-1.31824443877931,5906.338948565088
1.164,-1.3272316195344573,5911.647187262046
1.168,-1.3504157363631877,5899.163440337056
1.172,-1.3854628040799728,5903.221056516089
1.176,-1.4277932252905057,5902.454392095227
1.18,-1.471183804480779,5902.401410163791
1.184,-1.508718308347275,5896.851022848344
1.188,-1.533896151061862,5894.95959723079
1.192,-1.5417394858757743,5891.839330062542
1.196,-1.5297776629001023,5902.686446586278
1.2,-1.4987584027684875,5910.647553589465
1.204,-1.452866488730428,5902.043196440004
1.208,-1.3992351599402644,5908.388943300918
1.212,-1.3467017919116386,5892.975243028604
1.216,-1.3040539849653905,5891.453182484444
1.22,-1.278262052542956,5898.949549811883
1.224,-1.2732144674483798,5895.590402553949
1.228,-1.2892462093694672,5901.033447496266
1.232,-1.3234365143544562,5904.166071933008
1.236,-1.3704301942543622,5903.468154908218
1.24,-1.4234841437836163,5899.797081803011
1.244,-1.4755262303883603,5897.5101343587685
1.248,-1.5201221181312368,5897.084825000131
1.252,-1.5522751566987856,5900.817251217974
1.256,-1.5689702857796894,5899.07740419274
1.26,-1.569421040423136,5901.295268093648
1.264,-1.5550700258523276,5900.3606347012665
1.268,-1.5294022455538148,5911.080851013854
1.272,-1.4975381069805391,5899.498184790967
1.276,-1.4655124115445868,5898.873441746021
1.28,-1.4392352826390775,5895.5564608314735
1.284,-1.4233319431468425,5902.67564959538
1.288,-1.4202057547862736,5901.646252947643
1.292,-1.4296302495911626,5884.605605062314
1.296,-1.4489700307856408,5904.541895832983
1.3,-1.4738966316678004,5904.490284629097
1.304,-1.4993394388645744,5905.0545009463885
1.308,-1.5204322195231774,5900.972790430554
1.312,-1.5333162557386313,5893.292271122722
1.316,-1.5357422028031622,5906.289104919787
1.32,-1.527432221292823,5888.212288935862
1.324,-1.510149988604097,5906.125255309674
1.328,-1.4874203836407316,5899.96321786584
1.332,-1.4638714818085956,5898.8751979587605
1.336,-1.444263438789878,5905.311929758508
1.34,-1.4324082464719645,5902.256439059793
1.344,-1.4302868693092246,5902.524928804008
1.348,-1.4376435394408884,5894.08764697132
1.352,-1.4521751952195432,5905.946012469084
1.356,-1.4702216247482358,5893.431408372902
1.36,-1.4876981660340531,5904.106950129873
1.364,-1.5009582246671918,5893.0270544535815
1.368,-1.5073454466048484,5901.514680303065
1.372,-1.5053649465788588,5900.929554640466
1.376,-1.4945909270779583,5905.329011177653
1.38,-1.4755579201597648,5902.81501115637
1.384,-1.4499024598197068,5893.179326323467
1.388,-1.4208591921501659,5897.084296870736
1.392,-1.3938518757468914,5904.651784466443
1.396,-1.3765557044638195,5903.4076006630485
1.4,-1.3777611924221755,5900.785428380122
1.404,-1.4047612856309017,5894.238563283128
1.408,-1.459633882369818,5898.550677127669
1.412,-1.5353843053186658,5906.375103426429
1.416,-1.6132184405497234,5901.461815527878
1.42,-1.6622382907788125,5890.358259883335
1.424,-1.6426386154710908,5891.849603598202
1.428,-1.5128603666738039,5905.098953083928
1.432,-1.2399141894345969,5904.034068436005
1.436,-0.8104619064750886,5907.818864963671
1.44,-0.23898696307193038,5900.572700929854
1.444,0.4306334866591573,5899.537897628859
1.448,1.1320921953959495,5891.890849578598
1.452,1.7908681089836038,5897.672136708712
1.456,2.341196970745249,5928.7017315168405
1.46,2.7400591807201744,5939.998535931892
1.464,2.9739652267208116,5965.097737591282
1.468,3.057461871758738,5975.974559718519
1.472,3.025211608721891,6007.232332741883
1.476,2.9210613599963016,6014.739129799587
1.48,2.7875287542139424,6035.099197313731
1.484,2.658082031794303,6054.035101303923
1.488,2.553233834438191,6062.9656949530845
1.492,2.480358939413282,6088.4799303623
1.496,2.436389302915413,6104.423276207219
1.5,2.4120656135373455,6119.13443311701
1.504,2.3962980749847005,6133.477837761254
1.508,2.3795102253770968,6153.076378783221
1.512,2.3554735777449163,6158.4673093302745
1.516,2.321749716875189,6176.149209247773
1.52,2.279178614342645,6188.616065065053
1.524,2.2308791738347638,6198.521284709933
1.528,2.1811171597930303,6226.270318595799
1.532,2.134274831891089,6233.166044041536
1.536,2.094060508413554,6243.017209758657
1.54,2.063007251552619,6257.64591125948
1.544,2.042209049630704,6272.734592951903
1.548,2.0311735946596867,6292.841595741709
1.552,2.0277172925313884,6296.24133297569
1.556,2.0279837589848766,6307.961600066289
1.56,2.026791880650133,6324.437573504439
1.564,2.018466374560071,6332.158955154947
1.568,1.9980693515028796,6336.0963687540525
1.572,1.9626980325080476,6358.226284997594
1.576,1.9124144898951407,6359.246913202702
1.58,1.8504571026198937,6378.763152204336
1.584,1.782580541624362,6379.445469878505
1.588,1.715630522096336,6389.597747938514
1.592,1.655741380402946,6406.293629592955
1.596,1.6067529481142888,6404.495724578853
1.6,1.569433890390924,6422.113972942301
1.604,1.5417974241662344,6430.135218693344
1.608,1.5203312722418316,6437.516304647616
1.612,1.5016000007526884,6461.714492831901
1.616,1.4835708489083237,6464.511312131124
1.62,1.4661458050338385,6466.731214924663
1.624,1.4507055339702444,6464.937958252787
1.628,1.438921240693288,6489.574496681122
1.632,1.4314595103677223,6496.658679514004
1.636,1.4272289987990163,6506.152074476465
1.64,1.423471615272781,6505.337308106795
1.644,1.4165556522804048,6515.225685954136
1.648,1.4030747814300402,6527.773367704815
1.652,1.3808552083737415,6523.640480845778
1.656,1.3495942020746514,6538.23348061999
1.66,1.3109952155764635,6549.553689216473
1.664,1.2684131007051458,6559.957963282716
1.668,1.2261170728685016,6551.166636922813
1.672,1.1882687036324662,6566.491612937089
1.676,1.157735171182495,6571.8179115978455
1.68,1.1350520974490421,6583.983781044719
1.684,1.1180409611776887,6592.215725134835
1.688,1.1024603752149704,6597.494914817642
1.692,1.0835942071859865,6597.802850642202
1.696,1.0581635013425432,6607.240522838604
1.7,1.025758907254265,6616.116064326604
1.704,0.9892293822724486,6623.043906675604
1.708,0.953918803856614,6615.990487018218
1.712,0.9260478105490371,6619.584905275407
1.716,0.9107935897191395,6636.468197926828
1.72,0.9107125644056793,6630.463098577224
1.724,0.9250382559552848,6635.783337833882
1.728,0.9500658521051012,6650.956963578929
1.732,0.9804149565586623,6648.818581725733
1.736,1.0106215551376765,6656.65204156149
1.74,1.0364237025563967,6655.483711653502
1.744,1.055345702582312,6672.744078709927
1.748,1.0666143023349977,6670.255945591423
1.752,1.0707556984578666,6682.460657883373
1.756,1.0692070927830124,6689.065858540725
1.76,1.0640025952600816,6686.294171722455
1.764,1.0573668474108344,6687.967827900014
1.768,1.0511144511300314,6687.8840752915885
1.772,1.0460194303151078,6696.319909980868
1.776,1.04147991739497,6692.683969830968
1.78,1.0357006756609144,6706.57163857509
1.784,1.0263533823557647,6708.8989075234485
1.788,1.0114428401810545,6714.886180210672
1.792,0.9900375886203362,6718.59572234452
1.796,0.9626311795042525,6714.450171001412
1.8,0.9310777696033663,6726.400682509882
1.804,0.8981671137616767,6722.707379572084
1.808,0.8669548396131027,6722.355854934996
1.812,0.8399962041628583,6729.666137110126
1.816,0.8186517025376414,6733.323582008574
1.82,0.8026231468044838,6755.618821855303
1.824,0.7898528423982426,6737.659432321201
