时间(s),电压(V),幅值(高频80K)
0.0,-1.3721804582315216,5899.9970653466535
0.004,-1.3484086134387872,5896.694960256678
0.008,-1.3299778017433204,5895.723553726159
0.012,-1.3213094820521578,5895.599169718711
0.016,-1.3248623678566933,5896.256427300531
0.02,-1.340443377582275,5896.129547657135
0.024,-1.3650628387692154,5896.082633958534
0.028,-1.3935185767727896,5891.899468878591
0.032,-1.4196578119541008,5904.442824354249
0.036,-1.4379594149430404,5907.4466007063575
0.04,-1.4448912118946946,5896.147096856406
0.044,-1.4395827513707138,5906.865613652879
0.048,-1.4236960962286034,5898.236483092833
0.052,-1.4007482082132652,5894.966446689546
0.056,-1.3752789908732201,5894.701899923654
0.06,-1.3521230551976158,5902.567743281512
0.064,-1.3358099353080222,5899.182291943414
0.068,-1.3299898429150396,5902.688114224827
0.072,-1.3368292438620792,5894.866712803944
0.076,-1.3564647029856363,5896.795461498689
0.08,-1.3867105868354974,5903.501505971296
0.084,-1.423217971051378,5898.734273862918
0.088,-1.4601970888893931,5911.719929770928
0.092,-1.4916583001780734,5909.566472192215
0.096,-1.5129006833478673,5897.207953972766
0.1,-1.5217751167491487,5900.588930392233
0.104,-1.5192301248157907,5899.78293115368
0.108,-1.5088941133320182,5902.290320382188
0.112,-1.49585869032753,5901.565657347316
0.116,-1.4851542889521008,5902.156246095746
0.12,-1.4804408696170028,5893.114299277468
0.124,-1.4832253208747301,5888.992754959415
0.128,-1.4927033089952533,5905.553620695305
0.132,-1.506210785989906,5896.65076275396
0.136,-1.5201527207047563,5901.4422275550805
0.14,-1.5311172960403767,5898.944856939789
0.144,-1.536825213465636,5898.243525202438
0.148,-1.5366758766770463,5894.780726772289
0.152,-1.5318096291734555,5889.468180380586
0.156,-1.5246930046225735,5902.316792022632
0.16,-1.5182931807621038,5912.752564054624
0.164,-1.5150242921956032,5896.692671637724
0.168,-1.5158027641805045,5908.026711334081
0.172,-1.5196082850866222,5896.000670269729
0.176,-1.5237866836870284,5905.648422416589
0.18,-1.524986588397135,5894.28156967029
0.184,-1.5203200695084707,5895.981600059865
0.188,-1.5083135081104422,5890.617718811352
0.192,-1.4894459179561295,5895.691831791594
0.196,-1.4662681521902918,5909.312473879534
0.2,-1.443070234393867,5898.424683754104
0.204,-1.424998029671285,5902.474202430401
0.208,-1.416686273551854,5902.327815689823
0.212,-1.4208088749766616,5906.490939136382
0.216,-1.4371196973146816,5896.894886748835
0.22,-1.4623821555993077,5894.753244178457
0.224,-1.491204256145058,5909.396408469176
0.228,-1.5174799952333848,5895.034337446296
0.232,-1.5360109766640333,5902.557057082015
0.236,-1.5438682405030482,5899.401358072662
0.24,-1.5410862417732942,5901.649164943474
0.244,-1.5304356362762292,5894.896128690115
0.248,-1.516365900856104,5904.252751021882
0.252,-1.5035770883601094,5907.358255891323
0.256,-1.4957751677917672,5912.51151326446
0.26,-1.4949316351955206,5900.01706865298
0.264,-1.5010770626918062,5901.851125970145
0.268,-1.5125329823947964,5902.354988215093
0.272,-1.5264595394046339,5906.692854188267
0.276,-1.5395491307049294,5904.677200868908
0.28,-1.5486843259221068,5894.771000426281
0.284,-1.551468749340193,5901.879662875576
0.288,-1.5466326564007726,5910.050609458677
0.292,-1.5342882415561976,5896.845527402243
0.296,-1.5159193861132665,5901.610642498682
0.3,-1.494004722503523,5900.365512656073
0.304,-1.4713469154933716,5910.93811099892
0.308,-1.4503743631205464,5903.234505841614
0.312,-1.4327085991399788,5904.823312650136
0.316,-1.4191216995108067,5904.807808457747
0.32,-1.4097932388351504,5911.703721765441
0.324,-1.4046853023899128,5898.795142353778
0.328,-1.4039019759808586,5902.593290653792
0.332,-1.4079444254334608,5891.387454694913
0.336,-1.4177258663668244,5892.618127968621
0.34,-1.4342023830174082,5898.330730382323
0.344,-1.457666672816518,5902.083416598228
0.348,-1.4870317497933836,5900.692530907685
0.352,-1.5195125629152417,5898.544436480186
0.356,-1.550913615614494,5895.660281354321
0.36,-1.5764513076519446,5899.729536104756
0.364,-1.5918625115723,5893.80212096421
0.368,-1.5944748183252198,5895.869649887063
0.372,-1.583909836066563,5897.493964162065
0.376,-1.562199964023427,5896.475781815884
0.38,-1.5333127458140778,5901.7952893088695
0.384,-1.5022760013797516,5905.275470039939
0.388,-1.4741742779848617,5900.941210089169
0.392,-1.4532406287700967,5903.950706888187
0.396,-1.4421579654434533,5900.402576998796
0.4,-1.4415968441563667,5901.190755628741
0.404,-1.4500347932234814,5904.287649265152
0.408,-1.4639937380355088,5894.945901856453
0.412,-1.478826275513986,5906.501562155142
0.416,-1.489975849715311,5903.707240787297
0.42,-1.4943505738353509,5903.1510813040495
0.424,-1.491311895236955,5902.400048987658
0.428,-1.4828997123572862,5898.178225419798
0.432,-1.473209534554617,5894.630470722682
0.436,-1.4671285062838215,5896.52189695334
0.44,-1.4688096313557102,5901.717833844413
0.444,-1.480298519216805,5898.235769587873
0.448,-1.5006666869748833,5911.779226095243
0.452,-1.5259201052323272,5901.003475402699
0.456,-1.5498490910857272,5901.327156447796
0.46,-1.565751060914187,5900.422681026897
0.464,-1.568553598713539,5897.153449970825
0.468,-1.5565606935004266,5900.689826616771
0.472,-1.532161692351529,5895.3454188109945
0.476,-1.5012986237057164,5896.422206726146
0.48,-1.4719070229367264,5906.601296676535
0.484,-1.451755838772312,5899.858756755292
0.488,-1.4462286580556123,5900.361761975332
0.492,-1.4566852196976623,5899.947559567401
0.496,-1.4799990420873348,5893.130392907966
0.5,-1.5095364339601012,5890.704387029133
0.504,-1.537266176059664,5908.445251957319
0.508,-1.5561602872210412,5903.750388528575
0.512,-1.5619254489143222,5898.694805407305
0.516,-1.553507115260985,5895.14731725137
0.52,-1.5324806496991854,5904.444076672302
0.524,-1.5019568644882197,5899.311664028485
0.528,-1.4656794138967897,5906.025347174929
0.532,-1.427605809120872,5905.24602451642
0.536,-1.3917846374443044,5902.598647490232
0.54,-1.3621451776571676,5897.461779646563
0.544,-1.3419987556703732,5899.823634622117
0.548,-1.3333990178850152,5908.8802595912375
0.552,-1.3367236451513367,5902.086764235856
0.556,-1.3507640615246,5896.896167965557
0.56,-1.3732962617999491,5904.056091015938
0.5640000000000001,-1.4017807264193067,5891.816804280475
0.5680000000000001,-1.4337555963339907,5898.9550896243245
0.5720000000000001,-1.4667335437069822,5903.995259543423
0.5760000000000001,-1.4978288413922973,5900.553457467778
0.58,-1.5236089299542324,5912.103605679655
0.584,-1.5405423636560787,5895.31916150361
0.588,-1.5459789331836677,5906.9823915668485
0.592,-1.5391992033493895,5891.659308515578
0.596,-1.5219843710339283,5904.385382103206
0.6,-1.4983771250181686,5899.320421082432
0.604,-1.4736669229722164,5894.882212596207
0.608,-1.4529559969133423,5895.155980445837
0.612,-1.4397972634531155,5905.637860044867
0.616,-1.4353232914377525,5900.869134784314
0.62,-1.438120900484723,5913.118827515134
0.624,-1.4449220343892184,5900.224417477982
0.628,-1.4519342103633095,5901.706498381549
0.632,-1.4563399227297011,5899.9164329300565
0.636,-1.4573450291077255,5901.991792444491
0.64,-1.456317571093645,5904.286404595366
0.644,-1.455964647662168,5900.980131207674
0.648,-1.458936946589975,5894.521981044464
0.652,-1.4665386092814168,5900.466868185379
0.656,-1.4781956542589725,5895.204652904426
0.66,-1.4919287123132183,5904.248616309719
0.664,-1.5054809784756296,5897.099046499427
0.668,-1.517391138695994,5892.6359929084
0.672,-1.5274321635586865,5900.991786243067
0.676,-1.536293557511002,5899.317825628921
0.68,-1.544802448173865,5897.864377440554
0.684,-1.5531528537835526,5904.785775358931
0.6880000000000001,-1.5605409216063766,5904.698511660073
0.6920000000000001,-1.5653594587217803,5907.845852721038
0.6960000000000001,-1.5658015092418378,5903.6135821857
0.7000000000000001,-1.5605246938886632,5907.3526083763
0.704,-1.549065856645677,5888.768277393789
0.708,-1.5319253569832458,5891.81920498118
0.712,-1.5104535910870223,5887.02139549693
0.716,-1.4867083881736558,5899.078104197302
0.72,-1.4633381261475782,5899.618713333377
0.724,-1.4434114711850776,5905.372446127079
0.728,-1.4300631410883204,5904.627199987193
0.732,-1.4258909666477757,5911.183543718433
0.736,-1.4322062517042147,5895.077348629816
0.74,-1.448437524536242,5901.990593029697
0.744,-1.4720607032638928,5897.056932132539
0.748,-1.4992212112657035,5904.819017857299
0.752,-1.5258067552572563,5904.598209933269
0.756,-1.5484602415988895,5897.869539308333
0.76,-1.5651272435925139,5898.13876461495
0.764,-1.5750778789862088,5901.009811647315
0.768,-1.578618801212101,5899.266507770213
0.772,-1.5767674078770257,5899.192714996162
0.776,-1.5710430586622661,5899.926580458392
0.78,-1.5633425722071974,5894.423134345778
0.784,-1.5557421966276201,5892.109714752522
0.788,-1.5501204485531064,5899.136268688041
0.792,-1.547680044777588,5896.87945238564
0.796,-1.5485792498536604,5909.605679959697
0.8,-1.5518510721601868,5900.987540527939
0.804,-1.5556543599482484,5907.802089703682
0.808,-1.557786221013937,5905.306088068199
0.812,-1.556317666652124,5910.093553621268
0.8160000000000001,-1.5501586335702728,5900.982922520572
0.8200000000000001,-1.5393570954441853,5908.547562252804
0.8240000000000001,-1.5250442382076905,5895.0227684281335
0.8280000000000001,-1.5090695022458467,5900.136970818299
0.8320000000000001,-1.4934226979150915,5902.420525138387
0.836,-1.4795668305346072,5905.444887402577
0.84,-1.467887512901935,5906.42934611913
0.844,-1.457538589367582,5898.949569011583
0.848,-1.4468905801309033,5908.048295968064
0.852,-1.434523955348024,5889.172187349446
0.856,-1.4203600127119864,5896.049557658671
0.86,-1.4063153943185183,5900.346777427855
0.864,-1.3960150834431218,5903.526651501106
0.868,-1.3935804411378432,5895.947787782285
0.872,-1.4020100528403625,5903.905409746833
0.876,-1.4218504018804983,5905.631643781329
0.88,-1.4506456856207592,5900.627918660993
0.884,-1.4832844173261719,5902.767794124069
0.888,-1.5130857675750191,5901.16030934318
0.892,-1.5333607643098546,5898.226192845585
0.896,-1.5391302600293633,5894.425385674818
0.9,-1.5285886232701573,5898.409180568176
0.904,-1.5038316856849745,5892.098203858981
0.908,-1.4704775408303086,5898.461898503796
0.912,-1.4361799368300932,5903.696638352071
0.916,-1.4085294317344823,5905.107056959768
0.92,-1.393139152627996,5892.661721039369
0.924,-1.3925817592979763,5905.743800997619
0.928,-1.4063704054392343,5899.96916719467
0.932,-1.4316970027939373,5915.035656500298
0.936,-1.4644373634285128,5902.389464621721
0.94,-1.5000392186482772,5900.567141963797
0.944,-1.5341464971483552,5904.946104373419
0.948,-1.5629754961276627,5902.110070717368
0.952,-1.583510326818139,5907.893639390643
0.956,-1.5936209060842423,5901.872985165845
0.96,-1.5922289945341823,5888.316462382606
0.964,-1.5795676135428267,5895.1287816412805
0.968,-1.557429080488744,5896.788923128161
0.972,-1.5292163176857203,5895.417732786117
0.976,-1.4996449341142388,5904.659548669261
0.98,-1.4740366016335538,5896.335589221844
0.984,-1.4572653979136676,5891.678846122153
0.988,-1.4525569016397701,5894.720631202344
0.992,-1.4604749344628811,5904.54504485017
0.996,-1.4785094998453387,5897.531903401404
1.0,-1.501583240664162,5897.456142798203
1.004,-1.5234480464550328,5899.70835162013
1.008,-1.5384838557266756,5903.997177108457
1.012,-1.543142583078326,5896.584623740983
1.016,-1.5364411867951748,5911.003579040645
1.02,-1.5194532152740508,5904.392906630544
1.024,-1.4943178999520201,5894.106544411859
1.028,-1.4634730170864907,5887.813038160392
1.032,-1.429523312952815,5901.582730373135
1.036,-1.3956384510102118,5901.218026762927
1.04,-1.3659792797069086,5900.356664425284
1.044,-1.3455802469776004,5895.771540695527
1.048,-1.3393922426227065,5902.42705456864
1.052,-1.3506974127765874,5905.048937432716
1.056,-1.3795918763264032,5906.680863046427
1.06,-1.4223540346042898,5890.987651683597
1.064,-1.4721098936050172,5903.595627889527
1.068,-1.5205414090002713,5904.44278069128
1.072,-1.5599416027636992,5905.828175793737
1.076,-1.5848981414405958,5898.892520906052
1.08,-1.5931378021730334,5897.556469995314
1.084,-1.585417418736719,5907.5646619793415
1.088,-1.5647053231542087,5898.1132776009645
1.092,-1.5351181219011698,5903.936727188623
1.096,-1.5010331017735261,5893.265493271494
1.1,-1.4665570084247286,5900.456248415865
1.104,-1.4353121386628016,5900.2907024301685
1.108,-1.410406094364216,5893.0858274350885
1.112,-1.3944265604065773,5906.972930495035
1.116,-1.3893105780545536,5900.406269191739
1.12,-1.3960141633535483,5898.473717280355
1.124,-1.4140478671715724,5904.974181867947
1.128,-1.4410789030739717,5895.505849624708
1.132,-1.472864104115626,5890.095107545401
1.136,-1.5037235972365786,5901.400612735451
1.14,-1.5275870717264968,5904.801829604386
1.144,-1.5394141557770489,5900.64905997188
1.148,-1.536602175109253,5898.661194072197
1.152,-1.5199037426280309,5909.423479026368
1.156,-1.4934424705736118,5904.860620029716
1.16,-1.4636868698046048,5898.165723617919
1.164,-1.4376382125829021,5900.557518558743
1.168,-1.4208178975275947,5899.901711808843
1.172,-1.4157596201926013,5898.667087362786
1.176,-1.4215542237577883,5890.793495948039
1.18,-1.4345695478445961,5900.493749647757
1.184,-1.4499569733996096,5902.365478953648
1.188,-1.4632587603428318,5894.853824993304
1.192,-1.4714943699214529,5899.7503231333685
1.196,-1.4734405304071474,5901.163373086441
1.2,-1.4692500606470094,5901.522769052373
1.204,-1.459879448747336,5903.484327478744
1.208,-1.446807027559865,5903.313487583517
1.212,-1.4321802903655272,5900.048253238644
1.216,-1.419093623855981,5891.243715678182
1.22,-1.4115234695192105,5897.083409618018
1.224,-1.4136408789885744,5903.287438637113
1.228,-1.4285709077221862,5898.696332555409
1.232,-1.456931045637552,5898.398155042323
1.236,-1.4956369996575194,5905.7294528669845
1.24,-1.537580517654319,5898.543553308095
1.244,-1.5727203964843044,5898.32264829475
1.248,-1.5906696127012254,5903.477347486071
1.252,-1.5841333240242166,5901.206364706283
1.256,-1.5520078492246958,5901.720381392847
1.26,-1.5009360470010482,5901.206149552734
1.264,-1.4446087598663564,5885.063629786961
1.268,-1.4008187296237593,5910.081421947098
1.272,-1.3868952294227006,5905.2463306055815
1.276,-1.414494838689931,5906.246653494006
1.28,-1.4847829078716193,5906.358231884681
1.284,-1.5849336518689083,5906.3384092927845
1.288,-1.686800481980552,5897.613304897837
1.292,-1.7486276143540165,5899.576039711968
1.296,-1.7205456581339802,5904.19757041227
1.3,-1.553930805198605,5907.674387814687
1.304,-1.2133840434069676,5899.300289002406
1.308,-0.6885020869428334,5901.737816773952
1.312,-0.0015631024060640277,5896.692288576406
1.316,0.7924802764331271,5890.875747688077
1.32,1.6153006111374713,5891.437627845925
1.324,2.381928705514755,5899.1194289575005
1.328,3.0196369643089143,5913.745422970666
1.332,3.482540515059874,5935.568742976863
1.336,3.757594847942816,5953.301906101192
1.34,3.861544763770238,5961.241864579977
1.344,3.831557342860997,5979.797145478006
1.348,3.7135204134753956,5983.7136985675525
1.352,3.551565816426762,6004.295001181908
1.356,3.381021210059819,6005.881730256579
1.36,3.225387042107951,6028.298298859694
1.364,3.096674410513348,6034.668261754018
1.368,2.997851687718929,6038.998178362923
1.372,2.9261205233629775,6050.410347443581
1.376,2.875983301669562,6067.597952747024
1.38,2.8414450919182888,6076.194786750726
1.384,2.8171797060759665,6082.433535828814
1.388,2.798915437617497,6103.42947924425
1.392,2.783433393499373,6100.374068221021
1.396,2.7684033225050775,6115.498119662088
1.4,2.7520757855813414,6126.118979664727
1.404,2.732873548605281,6131.905706519152
1.408,2.7091124310013295,6145.787446958372
1.412,2.6791078999337823,6146.770036990407
1.416,2.641651498711548,6152.508283083693
1.42,2.5965233208726226,6174.115950310209
1.424,2.5446674518005237,6189.44592901727
1.428,2.487923746657287,6177.1767547391255
1.432,2.4285201711075293,6198.673445909486
1.436,2.3686185643227713,6205.620608610593
1.44,2.3100585040751063,6220.502643367757
1.444,2.2542673281856382,6215.206695613239
1.448,2.202246118688372,6215.939177540543
1.452,2.15455986401469,6232.97763558676
1.456,2.111293109737554,6234.597004527632
1.46,2.071996524515629,6245.439543462179
1.464,2.0357292539976544,6253.508376977961
1.468,2.0013021982551473,6269.045416023789
1.472,1.967699115937132,6275.559502235681
1.476,1.9344882918168733,6275.593559884791
1.48,1.9019908129019845,6288.057128533558
1.484,1.871085986582819,6287.45901849268
1.488,1.842704525748436,6295.488500412586
1.492,1.8171833342090158,6295.846733971783
1.496,1.7937389438549391,6302.5620570268375
1.5,1.7703608898936738,6310.967685918384
1.504,1.7443190101220905,6316.235797274655
1.508,1.713160074500012,6323.176382465607
1.512,1.6757439542912973,6324.656590642733
1.516,1.6328376021258404,6337.342587090209
1.52,1.5870549933492517,6333.720794754421
1.524,1.5422243403080207,6340.622911998615
1.528,1.5024027422204094,6352.37499756501
1.532,1.4708016937167767,6352.051162177856
1.536,1.4489111845006948,6358.588146680636
1.54,1.4360994357068277,6365.860414561023
1.544,1.4298711352602904,6362.799753713772
1.548,1.4267462310806165,6368.198327763104
1.552,1.4234183381808798,6379.30300538787
1.556,1.4176733762116616,6376.643305343921
1.56,1.4086924294774097,6391.723340419369
1.564,1.3967537403509942,6390.398684077148
1.568,1.3826825164071765,6385.379800005832
1.572,1.367438416468293,6402.800935440006
1.576,1.352006445804918,6410.823518496356
1.58,1.3374822203000838,6408.858767311422
1.584,1.3251014246448343,6412.577499772824
1.588,1.3159980850684012,6408.877536860106
1.592,1.3106525216720692,6415.15007452039
1.596,1.308238620887321,6419.197088375141
1.6,1.3062616675687253,6409.237780619226
1.604,1.3008362652896728,6431.791404249047
1.608,1.2876648749680424,6431.742160144996
1.612,1.2634097776147122,6433.760930237456
1.616,1.226938614036416,6438.543058014746
1.62,1.179966077484985,6438.164647042079
1.624,1.126838081816572,6444.692544829458
1.628,1.073497787431572,6440.82020123375
1.632,1.0259589907648972,6453.62909421199
1.636,0.9888029648253688,6446.837031604369
1.64,0.9642117588684544,6450.686316612068
1.644,0.9518236462108358,6456.108822179896
1.648,0.9493330381369818,6456.842559598199
1.652,0.9534527032494224,6458.408632727527
1.656,0.960792430350408,6467.565195253984
1.66,0.968392655443178,6465.383347530258
1.664,0.9739155029140911,6466.507383031308
1.668,0.9756569283613926,6469.499178113433
1.672,0.9725369200372641,6473.816789575281
1.676,0.9641133692060325,6489.456816042835
1.68,0.9505721625344601,6480.44939592739
1.684,0.9326478172672523,6485.716283729366
1.688,0.9114915164471249,6480.628752547256
1.692,0.8885386615422607,6487.6562183586
1.696,0.8654013602863164,6488.960429414948
1.7,0.8437673921506635,6479.150594322848
1.704,0.82528537347196,6496.147847612183
1.708,0.8114454954277494,6492.352658848507
1.712,0.8034517027998569,6498.153488010424
1.716,0.8020219275075097,6503.703633406821
1.72,0.8070685392482573,6495.796546254327
1.724,0.8173561086341185,6503.610983306641
1.728,0.8303668954095801,6510.850874472708
1.732,0.8425684324916654,6509.745297061653
1.736,0.8500873292459836,6504.309114931337
1.74,0.8495833793913602,6508.351287689308
1.744,0.83902704211858,6517.969249926575
1.748,0.8181738036963363,6514.261899890343
1.752,0.788700466282513,6514.230659338091
1.756,0.7540388568498417,6520.728500144781
1.76,0.7188898536271215,6520.355638809715
1.764,0.6883929172774007,6512.565459798555
1.768,0.6670646598801873,6524.929238983583
1.772,0.6577852097486748,6523.667934556776
1.776,0.6611310217776104,6527.319240483433
1.78,0.6752300436572991,6534.138076568793
1.784,0.6961787747187457,6528.139344056941
1.788,0.7189538857393653,6541.384001620809
1.792,0.7386237625220444,6530.821810789455
1.796,0.7515336314269493,6534.591413092346
1.8,0.7560980116977711,6529.091987771257
1.804,0.7529480841896083,6536.585783125958
1.808,0.7444163883721688,6538.381116998981
1.812,0.7335768258338138,6531.89832183463
1.816,0.7231690171785994,6542.095100851222
1.82,0.7147105334587359,6533.211186286924
1.824,0.7080192024007385,6542.436618799871
1.828,0.7012764211115323,6541.013114123299
