时间(s),电压(V),幅值(高频80K)
0.0,-1.5469031317469748,5901.69187706973
0.004,-1.4571628812426949,5901.333288953995
0.008,-1.3787013186484178,5900.777188072111
0.012,-1.3199555358103725,5897.775161024118
0.016,-1.2852596351341208,5891.813163972961
0.02,-1.2744400804719027,5897.628428045589
0.024,-1.2833837988469112,5902.859352352627
0.028,-1.3053134046078663,5905.103870926636
0.032,-1.3325362261925635,5901.028064441312
0.036,-1.3583501159909817,5904.407830289757
0.04,-1.3785830927737053,5901.33692791358
0.044,-1.3922141825555032,5901.461066333467
0.048,-1.400880483767932,5896.36543628006
0.052,-1.407612870087412,5900.820342712996
0.056,-1.4154277531033406,5907.218690321951
0.06,-1.4262684657974436,5903.897428403546
0.064,-1.4404783201184943,5903.347828912234
0.068,-1.456789734258339,5890.652325993251
0.072,-1.4727493737119386,5896.5515398793
0.076,-1.4854333220099054,5897.53326006917
0.08,-1.4922231906940764,5900.686501459708
0.084,-1.4914198764951438,5916.249803554301
0.088,-1.4825990473974964,5903.601824254025
0.092,-1.466746770188218,5902.668042777043
0.096,-1.4462279492478414,5897.518016356446
0.1,-1.4245604423444596,5903.651963525683
0.104,-1.405940606137395,5892.321706376945
0.108,-1.3945469203331948,5902.419017153406
0.112,-1.393733784967712,5897.907369820423
0.116,-1.4052360487255693,5897.844221665154
0.12,-1.42848110096737,5893.067089307776
0.124,-1.4601306477720681,5899.170318991728
0.128,-1.4940780434716912,5901.4158621518245
0.132,-1.522221175169351,5898.923967305714
0.136,-1.5361927879810204,5892.127387672726
0.14,-1.5297388908614398,5896.806614555119
0.144,-1.5008761536971025,5898.163351219256
0.148,-1.4528505222131478,5907.9117236216825
0.152,-1.3934447394460368,5903.330119312039
0.156,-1.332960259155469,5902.621340142163
0.16,-1.2816806503441558,5891.6017945995445
0.164,-1.2476110991371847,5900.973722608915
0.168,-1.235008513713744,5909.62183633794
0.172,-1.2439317510372598,5896.924210895482
0.176,-1.2707696355672697,5904.602248525051
0.18,-1.3094267135639088,5902.817569960134
0.184,-1.3527237429322168,5898.555175596518
0.188,-1.3937093541637215,5903.954386427443
0.192,-1.426795902914558,5901.309640456645
0.196,-1.4486638835137353,5895.664480189854
0.2,-1.4587228452690617,5900.732978648968
0.204,-1.4588339475016994,5894.022541768474
0.208,-1.4522227135302237,5894.369271437566
0.212,-1.4419547394903018,5892.419328855506
0.216,-1.4296504416568483,5893.087438938466
0.22,-1.4150231717319564,5903.433330304334
0.224,-1.3964233410161417,5895.956000332754
0.228,-1.372111157326364,5911.278973018944
0.232,-1.3416675843565995,5898.283685032449
0.236,-1.3069123522660577,5897.301333049007
0.24,-1.2719464536792175,5897.38488143932
0.244,-1.2423364178583238,5892.685025576448
0.248,-1.223785299177762,5903.5670540155725
0.252,-1.2207400016689938,5896.751458485558
0.256,-1.2352860201904363,5912.792868230928
0.26,-1.2665226884984055,5900.492564317981
0.264,-1.3105120736234637,5905.018809274265
0.268,-1.3608436912315052,5897.925944514115
0.272,-1.4097756033142832,5899.66363655832
0.276,-1.4497724492337953,5908.820630691677
0.28,-1.4751224974220436,5906.767589688785
0.284,-1.4832535285971455,5900.259326092082
0.288,-1.475395054571504,5901.622907708856
0.292,-1.4563261729661543,5896.641298672874
0.296,-1.4331283370490884,5896.220320833611
0.3,-1.4131889336441457,5903.2127431758645
0.304,-1.4020792408075604,5896.611309515809
0.308,-1.4020653185724252,5908.21286416644
0.312,-1.4117309470125057,5892.785491580088
0.316,-1.426696225197716,5896.622306148612
0.32,-1.441049191751851,5905.419587673238
0.324,-1.4490086056184668,5900.520459710217
0.328,-1.4464049380259452,5896.266682350557
0.332,-1.4316785879480352,5894.659435711815
0.336,-1.406210161052771,5906.985634063577
0.34,-1.3739216058340082,5896.689382560601
0.344,-1.3402397746373247,5902.980869199694
0.348,-1.310706487706054,5907.757960069794
0.352,-1.2896657164358465,5900.045318922799
0.356,-1.2794133753011718,5901.187228717283
0.36,-1.2799522932895993,5897.941504876393
0.364,-1.2892405543833771,5901.241943419919
0.368,-1.3037333829807427,5892.121523133011
0.372,-1.3190918530533036,5894.474330009351
0.376,-1.3310174565031072,5898.29211326827
0.38,-1.3361522151386909,5907.539578990431
0.384,-1.3328964827144145,5898.821126598686
0.388,-1.3219495245343271,5898.905296962421
0.392,-1.3063919430993478,5904.26378833527
0.396,-1.291175928726136,5890.341771528587
0.4,-1.282009630687987,5899.669918127072
0.404,-1.2838501270877722,5910.3671080241975
0.408,-1.2994520099011229,5892.361267987336
0.412,-1.3284765774446623,5890.261226897166
0.416,-1.3674853668033402,5911.397240195722
0.42,-1.4108246396812487,5899.548808946254
0.424,-1.4520944672736693,5901.065789940171
0.428,-1.4856869627371025,5903.312473707255
0.432,-1.5078683256525125,5898.668908238132
0.436,-1.5171084509480115,5887.330792832118
0.44,-1.5137174581154365,5901.749176032937
0.444,-1.4991277916882575,5895.240901379686
0.448,-1.4752223611236441,5899.976228621072
0.452,-1.4439541129809284,5895.855812782816
0.456,-1.4072661088272558,5907.263242264383
0.46,-1.367172829699664,5896.49954950465
0.464,-1.3258638936312221,5899.831176028588
0.468,-1.285769804459977,5902.588521999084
0.472,-1.249580200875049,5897.360943482826
0.476,-1.2201821470404064,5897.258486131012
0.48,-1.2004376300440303,5893.638511213579
0.484,-1.1927351321626207,5900.937422113844
0.488,-1.198360665820654,5903.022051432737
0.492,-1.2168799322737354,5893.83645678718
0.496,-1.2458084844875903,5907.991510387809
0.5,-1.2807991487923382,5907.0762646279
0.504,-1.3163888898844236,5898.970914119714
0.508,-1.3471023548257657,5900.951163303504
0.512,-1.3685518162728685,5898.406851297625
0.516,-1.3782047705008746,5898.701324439538
0.52,-1.3756760614974963,5897.292775036809
0.524,-1.3626067159397244,5902.2355304360735
0.528,-1.3422858967281959,5891.462949995841
0.532,-1.3191190286723455,5901.362859590588
0.536,-1.2979545671062551,5901.211141089464
0.54,-1.2833048528066693,5899.59842089242
0.544,-1.2786104313778712,5897.507617333378
0.548,-1.2857282289844165,5890.966508262339
0.552,-1.3047167622736093,5894.315212197582
0.556,-1.3338823366032786,5897.580115837776
0.56,-1.3700423692716588,5904.048132394938
0.5640000000000001,-1.4089980557041044,5890.114330685912
0.5680000000000001,-1.4461945659056321,5890.877065683747
0.5720000000000001,-1.4774783859416305,5902.120858201925
0.5760000000000001,-1.4997937818363858,5901.17216505089
0.58,-1.5116379086535268,5892.255893658594
0.584,-1.5131455644327962,5895.255422399079
0.588,-1.50580674431921,5897.95483960623
0.592,-1.4919618687228975,5892.268219546401
0.596,-1.4742531188444046,5899.94493882175
0.6,-1.455126380503375,5891.896627520492
0.604,-1.4364142938076079,5900.173086891661
0.608,-1.4190848039953985,5897.844073677234
0.612,-1.4033158064192577,5896.383148887943
0.616,-1.3889748679668696,5904.544592906302
0.62,-1.3763287326884217,5898.799100675198
0.624,-1.3665862056455056,5904.31368082441
0.628,-1.3618915118708945,5900.674610561361
0.632,-1.3646465099523308,5894.120589493288
0.636,-1.3764059259818058,5897.85600726652
0.64,-1.3968495195484838,5900.564975156495
0.644,-1.4233314751396244,5900.6114581532975
0.648,-1.4512652015075955,5899.037653389037
0.652,-1.4752693777736392,5892.0515461360055
0.656,-1.4906950960520615,5901.467474887007
0.66,-1.4949633835349871,5894.157436493273
0.664,-1.4881885414116915,5895.876360230756
0.668,-1.4728923782126058,5891.706849648281
0.672,-1.4530456255531043,5900.721942523723
0.676,-1.4329016541611326,5908.897440092805
0.68,-1.4160041496834157,5889.576958037112
0.684,-1.4045260992035045,5898.88454539701
0.6880000000000001,-1.3989449473017685,5898.172780607349
0.6920000000000001,-1.398045926072072,5905.557058536406
0.6960000000000001,-1.3993035095345325,5899.133569538979
0.7000000000000001,-1.3996719149460746,5886.841771646722
0.704,-1.3966329702682951,5905.644982173415
0.708,-1.3891312221229533,5900.241027485053
0.712,-1.37799443304416,5896.297334978345
0.716,-1.3656460550227847,5899.718854191494
0.72,-1.3552303651732673,5898.389092254412
0.724,-1.3495236728602666,5897.828458027106
0.728,-1.3500735953584373,5902.15051850044
0.732,-1.3568560802683636,5889.954032078795
0.736,-1.3684629680180427,5904.193026759177
0.74,-1.3826067487671097,5899.21019806337
0.744,-1.3966764011684765,5900.270111577329
0.748,-1.4081943764897153,5896.018260237292
0.752,-1.415189292188558,5893.452014786951
0.756,-1.4165528078595129,5901.708889611518
0.76,-1.412346702617888,5899.340696599536
0.764,-1.4039091545039752,5890.904334456177
0.768,-1.393637925978962,5899.944260994955
0.772,-1.3844743932850707,5903.516265220329
0.776,-1.3792268674656976,5897.206167247499
0.78,-1.3799023235476158,5901.716558668046
0.784,-1.3872192249216537,5908.338299841558
0.788,-1.400448362765719,5903.020916162552
0.792,-1.417610471127952,5897.234522982972
0.796,-1.4358936498619181,5891.01748902052
0.8,-1.4520920053521413,5898.434775895755
0.804,-1.4629682536078312,5904.09176627397
0.808,-1.4655971491714233,5895.005830315522
0.812,-1.4578140744764119,5902.196597699103
0.8160000000000001,-1.4388233238620995,5900.560396659304
0.8200000000000001,-1.4098366154327506,5899.376800871202
0.8240000000000001,-1.3744027894058024,5895.127823167446
0.8280000000000001,-1.3380368420244284,5897.635043378136
0.8320000000000001,-1.3070178602573,5897.476246532278
0.836,-1.2866929626884047,5901.849300855208
0.84,-1.2799439962090935,5902.580951323817
0.844,-1.2864091693602175,5901.725975580653
0.848,-1.3026883489291703,5897.818757624912
0.852,-1.3233415188268378,5900.417065178116
0.856,-1.34224474308202,5893.832724082216
0.86,-1.3539130615118489,5900.769732981117
0.864,-1.3546081392599976,5901.80143304727
0.868,-1.3431568619670329,5903.362275666272
0.872,-1.3213438020464372,5904.255270275731
0.876,-1.2936869460074707,5893.522266812175
0.88,-1.2665253572444903,5901.751360938039
0.884,-1.2465928077213195,5893.033008328788
0.888,-1.2394481976818457,5890.30879446202
0.892,-1.2481672436757276,5890.259208317643
0.896,-1.2725937131156586,5906.099591198908
0.9,-1.3092970155021528,5901.777164494774
0.904,-1.3522460390423825,5900.436009908736
0.908,-1.3940707033516824,5901.279420888516
0.912,-1.4276212589801553,5897.583526478905
0.916,-1.4474162224239342,5899.20206039525
0.92,-1.4506047343133375,5899.521408685033
0.924,-1.4372755722124668,5895.036893628521
0.928,-1.4101993686745469,5902.480281969194
0.932,-1.3742336287373618,5889.782657767833
0.936,-1.335584932085636,5884.999040849487
0.94,-1.3009774924116368,5903.38995179117
0.944,-1.2766793847332139,5896.439666719886
0.948,-1.267406989801445,5896.543201980002
0.952,-1.2753143799340325,5893.247588365024
0.956,-1.2993939202464846,5901.885415487898
0.96,-1.3355482550288416,5903.473915311804
0.964,-1.3773869847456404,5902.148239098468
0.968,-1.417567937924357,5900.540199722956
0.972,-1.4493319338663526,5904.3254654619095
0.976,-1.4678377301569665,5908.511704888055
0.98,-1.4710112446137136,5903.470782831378
0.984,-1.459796315619132,5901.411039614209
0.988,-1.4378206442917674,5899.114359496615
0.992,-1.410569179281862,5893.99917990549
0.996,-1.3842393720656392,5901.489379963412
1.0,-1.3645065608339386,5889.375480192667
1.004,-1.3554086277053936,5904.708221017233
1.008,-1.3585184166513853,5894.353734573654
1.012,-1.3725718742863817,5900.657677083928
1.016,-1.393717750253845,5892.491314797135
1.02,-1.4164534304713459,5900.460388742269
1.024,-1.4350835381013864,5902.330857199769
1.028,-1.4452823146961025,5898.246648342535
1.032,-1.4452274322838694,5899.89605782137
1.036,-1.4359123080388323,5900.155041334699
1.04,-1.4205787507198728,5899.008437060421
1.044,-1.4035476169409333,5901.249450288978
1.048,-1.3888936369418416,5896.246805302175
1.052,-1.3793867662307808,5902.497386962474
1.056,-1.3759748927026243,5891.763985851885
1.06,-1.3778767518280428,5906.292933630774
1.064,-1.3831601597672405,5907.108545799612
1.068,-1.389570335349725,5900.294786412151
1.072,-1.3953311477673136,5898.122517565583
1.076,-1.3996247072690033,5893.629639270969
1.08,-1.4025305999021582,5901.084897559616
1.084,-1.404457436733484,5889.049142857648
1.088,-1.4054142112028924,5899.454294171963
1.092,-1.4045899519699998,5899.7226703987335
1.096,-1.4005053406922825,5893.974783373963
1.1,-1.3916173603139304,5902.281390738515
1.104,-1.3769924902131914,5892.003205408282
1.108,-1.3567038046687543,5900.742887100418
1.112,-1.3318784039482918,5888.951292862919
1.116,-1.304543259245614,5894.968689711328
1.12,-1.277396854661717,5899.721805294433
1.124,-1.253495343468261,5900.834712245074
1.128,-1.235825371933033,5900.626935765973
1.132,-1.2268430188968702,5901.470737142056
1.136,-1.2281023577754662,5902.940224108658
1.14,-1.2400192999241426,5893.647302534639
1.144,-1.2617450440508986,5902.847964692285
1.148,-1.2911541690648323,5906.470738939667
1.152,-1.3250100714834179,5906.280560284225
1.156,-1.3593356890080939,5905.043675598142
1.16,-1.389928842985549,5899.4419784765705
1.164,-1.412945565569693,5893.654316987479
1.168,-1.4255057655562626,5907.397270509303
1.172,-1.4262323544706739,5899.971437757896
1.176,-1.4155541711678772,5904.491142175418
1.18,-1.3956365890608113,5899.845138700093
1.184,-1.369973803391477,5886.992046873134
1.188,-1.3428357588041362,5896.8225249575935
1.192,-1.318754930603754,5901.587656151221
1.196,-1.302074033991606,5900.40641494098
1.2,-1.296454294324924,5897.909196766525
1.204,-1.3043043473151208,5906.858660986482
1.208,-1.3262094357796752,5888.645493808818
1.212,-1.360468234392255,5903.918489561941
1.216,-1.4028555354268712,5899.745870724057
1.22,-1.4468067993972922,5903.822566158973
1.224,-1.4842248837228844,5898.476210122935
1.228,-1.5069072972228836,5900.8719183254825
1.232,-1.508313989387524,5904.967815111436
1.236,-1.4852600701065715,5896.29910414322
1.24,-1.4391576279489982,5900.80864512696
1.244,-1.376532047905092,5897.860762748978
1.248,-1.3086423910622604,5883.088929590576
1.252,-1.2501702979516858,5900.860498306517
1.256,-1.2170947679178163,5902.753353459001
1.26,-1.2239494993148887,5894.519414239286
1.264,-1.2806335556297084,5904.391859393539
1.268,-1.3889505700973412,5892.402816836917
1.272,-1.5392505645565726,5906.796716310161
1.276,-1.7079080960858235,5891.564607919567
1.28,-1.8566820058429039,5904.100700387378
1.284,-1.935090182641252,5898.498845860342
1.288,-1.8866834441577478,5894.304060095727
1.292,-1.659334475623032,5908.175904580844
1.296,-1.218248972072375,5906.135246434773
1.3,-0.5586678771771548,5893.300117927108
1.304,0.2860158055019591,5893.754232810817
1.308,1.2448193748373018,5895.856081185208
1.312,2.220325209053032,5875.832011991689
1.316,3.108453224248457,5904.257672489177
1.32,3.8209629805684937,5923.345110034263
1.324,4.303348246586731,5942.865098237646
1.328,4.542899357735241,5958.924919560293
1.332,4.565857208725167,5972.624493135086
1.336,4.4262522541211355,5994.535776710444
1.34,4.190831889972702,6010.666493338288
1.344,3.9244289231359284,6028.871927820871
1.348,3.678870520967657,6054.093092033751
1.352,3.4868896336162636,6065.693595657362
1.356,3.3610938362578393,6079.570786392917
1.36,3.2970742137793807,6099.988418767538
1.364,3.2791414920041135,6114.304983382539
1.368,3.286918905757594,6128.909581224708
1.372,3.3011494259180045,6144.016028751633
1.376,3.3075799760360693,6164.153117075035
1.38,3.2985128762091103,6171.18596769908
1.384,3.272323903384165,6192.422873516034
1.388,3.23170338382846,6205.456539147996
1.392,3.1814652601563176,6222.993684267363
1.396,3.1265843723077515,6224.81510752242
1.4,3.0708715676703044,6238.008032039586
1.404,3.016455940731767,6245.5459814650585
1.408,2.9639680144767406,6270.284711130105
1.412,2.913087326026527,6288.604914902647
1.416,2.8631011245689004,6281.401815159676
1.42,2.813294176130947,6305.141202320856
1.424,2.763162095146551,6316.589951579681
1.428,2.7125098845442976,6339.079813577817
1.432,2.6614903317932366,6336.736868649199
1.436,2.6105981856738483,6352.7638736041
1.44,2.5606065391602435,6362.122900740098
1.444,2.5124362406689995,6378.487549693848
1.448,2.46695461081591,6377.068469530263
1.452,2.4246888945685994,6389.3085549608
1.456,2.385482322926318,6404.671928061171
1.46,2.348238461893498,6413.999803861955
1.464,2.310963101159944,6417.000990902145
1.468,2.2712148393386777,6433.320063787985
1.472,2.226882421634971,6440.5589404862985
1.476,2.177035981750869,6449.239641130086
1.48,2.12250692680196,6456.572963516627
1.484,2.065902499024921,6463.664378405189
1.488,2.010990307844858,6466.854452147086
1.492,1.9616622881528782,6479.954922605379
1.496,1.9208383455502525,6487.022741100682
1.5,1.889684120113382,6491.035477862672
1.504,1.8674151985721066,6509.62904937466
1.508,1.8517198777865194,6513.830565507836
1.512,1.839559849587527,6526.411593636249
1.516,1.8279995380401743,6535.19068501801
1.52,1.8147994434525758,6538.595730864121
1.524,1.7986450296437055,6538.397206362532
1.528,1.778994585096183,6548.3053835584
1.532,1.7556599664146066,6560.860310695318
1.536,1.7283713713591566,6556.761482609574
1.54,1.6966029344021243,6569.162615886205
1.544,1.659782771350027,6569.177944306142
1.548,1.617769261328816,6575.801107730518
1.552,1.5713139071039426,6591.378532253343
1.556,1.5222472210238602,6595.535543913378
1.56,1.4732794598585242,6608.923105609696
1.564,1.427499725113044,6597.483805609125
1.568,1.3877922946869647,6615.521171977931
1.572,1.3563932066381879,6609.542316503538
1.576,1.3346769695720941,6621.932194946293
1.58,1.3230997961137247,6626.297172273884
1.584,1.3211522743417903,6637.52914284764
1.588,1.327232786844112,6636.77175211003
1.592,1.3385085982542795,6644.600255271973
1.596,1.3509575994296399,6640.791769497799
1.6,1.3597477165241134,6649.428092056943
1.604,1.3599482290483025,6651.585760066099
1.608,1.3474262660569303,6658.575889773645
1.612,1.319734880641294,6663.493654657455
1.616,1.2768147705134867,6676.206811543285
1.62,1.2213405310284116,6681.121473098113
1.624,1.1585170167081216,6675.0625475063225
1.628,1.095176425005581,6693.074132586694
1.632,1.0382852134360223,6687.442179762728
1.636,0.9933478024713304,6689.300534329136
1.64,0.9633362973954908,6700.211081258559
1.644,0.9484771987612576,6712.919392012477
1.648,0.9467265933399656,6697.1571073069135
1.652,0.9544826865564657,6701.69889237528
1.656,0.9671957448549463,6711.239206981701
1.66,0.9798861038897997,6720.8491952244
1.664,0.9878377348688318,6721.607366712505
1.668,0.9876243243998912,6727.628009796765
1.672,0.9781931605288117,6725.799299108328
1.676,0.9613748513140166,6724.516232353057
1.68,0.9413031562054139,6740.266586076424
1.684,0.9228190046534177,6745.142917426772
1.688,0.9095680911480527,6737.561187909488
1.692,0.9027008969230896,6740.737571589127
1.696,0.9007255034496382,6749.17209099253
1.7,0.9004476228354893,6740.078863476479
1.704,0.8984573185337833,6746.080302110278
1.708,0.8924693895539312,6747.169990449429
1.712,0.8819757699889018,6755.337231550973
1.716,0.868037784333594,6752.828661169869
1.72,0.8524689223929889,6768.326451870009
1.724,0.8369056976428692,6765.248808128468
1.728,0.8222109858914807,6763.481717689195
1.732,0.8083910376643759,6762.839748439172
1.736,0.7949335679583671,6774.444958621438
1.74,0.7813164888199191,6779.595612476394
1.744,0.7674013535289582,6775.442529893274
1.748,0.7534969896503562,6778.435118998792
1.752,0.7400671616323232,6781.128149244166
1.756,0.7273064320808672,6779.149495678292
1.76,0.7149424803902498,6780.004466362284
1.764,0.7024814397570668,6791.951230341948
1.768,0.689771162745511,6790.695888067739
1.772,0.6775019825182972,6788.986010755008
1.776,0.6672972951480701,6797.059762778356
1.78,0.6612957431332525,6792.917432351896
1.784,0.6613816442360967,6796.644704972955
1.788,0.6683493041851226,6796.199155517618
1.792,0.6812875789477973,6803.378213753162
1.796,0.6973944988014362,6802.911139209969
1.8,0.7123299489303416,6814.7044294898205
1.804,0.7211147945821613,6798.500790780212
1.808,0.719452376759454,6806.498688756965
1.812,0.7051342715844264,6811.710139871872
1.816,0.678997795968359,6820.626128451478
1.82,0.644971550365691,6813.658833421604
1.824,0.6091451391163432,6811.78798929555
1.828,0.5782356484012691,6810.767629499143
