时间(s),电压(V),幅值(高频80K)
0.0,-1.2634494087063943,5904.206504012414
0.004,-1.2728413727052703,5901.512463460237
0.008,-1.2792663247788747,5902.566366768127
0.012,-1.279943573965927,5901.690718918621
0.016,-1.2730693780215478,5895.999207250768
0.02,-1.258090166042886,5903.8215997323205
0.024,-1.2355980273852192,5903.484422082827
0.028,-1.2068876209206025,5898.924330789683
0.032,-1.1734696537013103,5909.336462010479
0.036,-1.136844766467352,5905.947856441047
0.04,-1.0986034725833065,5904.548445599203
0.044,-1.0606551114457814,5899.558079954028
0.048,-1.0253169642726465,5895.2264089176
0.052,-0.9951359244313975,5900.740515839319
0.056,-0.9725150734599474,5894.752168728979
0.06,-0.9593218191136463,5895.860505647652
0.064,-0.9566338043108784,5909.16057458261
0.068,-0.964701080440624,5897.20001660584
0.072,-0.9830995640351048,5894.122515635898
0.076,-1.0109080975571165,5895.882993510943
0.08,-1.0466751602074849,5899.064831836928
0.084,-1.0881290666400585,5890.325923441431
0.088,-1.1319143780793055,5902.16863277106
0.092,-1.173732067246958,5897.906748656771
0.096,-1.2089753221469863,5896.794607417008
0.1,-1.2335701828676777,5908.919129336443
0.104,-1.2446106440821065,5900.349143435457
0.108,-1.2405882006407425,5898.621414878893
0.112,-1.221342466600461,5897.410199249148
0.116,-1.1880331208668709,5902.885738626137
0.12,-1.1433084847317303,5905.225458739883
0.124,-1.0915222602736732,5891.355859495593
0.128,-1.038641468769234,5891.189352711096
0.132,-0.9916092585599483,5896.964446555903
0.136,-0.9572338026748356,5899.261638590579
0.14,-0.9408854208292565,5905.6802648938565
0.144,-0.9453316354143839,5901.885114386912
0.148,-0.9700297385027555,5904.446380325181
0.152,-1.0111386907543964,5898.345228549442
0.156,-1.0623156578719999,5895.229974260888
0.16,-1.116053157382521,5906.069520613855
0.164,-1.1651068851369382,5904.219205386319
0.168,-1.2036443578725053,5901.839442016621
0.172,-1.2279927470144767,5895.632488651666
0.176,-1.2369858208660405,5903.019299312861
0.18,-1.2318585850118415,5905.0680982435
0.184,-1.2156700964231033,5900.485823418969
0.188,-1.1924578562385995,5899.568075559255
0.192,-1.1664944524232654,5896.033189253032
0.196,-1.1418937501173332,5904.702565578024
0.2,-1.1224940239140944,5900.727463068161
0.204,-1.1117132543909887,5901.091774426351
0.208,-1.11212737985588,5910.554970007299
0.212,-1.1248337129931603,5899.746857715397
0.216,-1.1489577520047844,5906.422386825186
0.22,-1.1816602784996544,5905.064515338134
0.224,-1.2187196556949647,5893.601468898558
0.228,-1.2554774943405873,5901.068119151911
0.232,-1.2878306990536066,5905.768300058255
0.236,-1.3129741576183216,5893.120751134404
0.24,-1.329651604927116,5903.19819560705
0.244,-1.3378073345619828,5899.770725151524
0.248,-1.3378162743891346,5904.288615707849
0.252,-1.3297591928356642,5894.574439540355
0.256,-1.3132131851834914,5897.425900069263
0.26,-1.2876744535528772,5902.8316283863405
0.264,-1.2533214507467505,5896.395672279977
0.268,-1.2116930105176782,5897.217495930664
0.272,-1.1659897573308298,5894.804520730066
0.276,-1.1208720743388472,5890.609524883754
0.28,-1.081729575124022,5902.377139784994
0.284,-1.0535400508591153,5896.437069894715
0.288,-1.0396387738479842,5909.302254116889
0.292,-1.0408048706632993,5897.416299871271
0.296,-1.0549324740722166,5907.042904728342
0.3,-1.0773289971224476,5901.059666309243
0.304,-1.101554587942512,5900.427981063592
0.308,-1.120687275862391,5899.908967036687
0.312,-1.1288510899797097,5898.448970935694
0.316,-1.1227279534406318,5899.418723533116
0.32,-1.102661811512735,5895.851274447156
0.324,-1.0729706199583566,5894.258513204467
0.328,-1.0412404773188673,5896.426910893213
0.332,-1.0166257607855063,5902.573776527801
0.336,-1.0074726729632573,5900.017267680199
0.34,-1.018882470393478,5902.9171840933295
0.344,-1.051001900416333,5905.549588567788
0.348,-1.0987032999189181,5890.556230168756
0.352,-1.1528726221244194,5904.595931411749
0.356,-1.202937740199053,5899.0298457276285
0.36,-1.2397991765610257,5906.451494497099
0.364,-1.2581588406498339,5900.096427813365
0.368,-1.2574470971978617,5897.63750708073
0.372,-1.241089880681383,5900.523483809949
0.376,-1.2145613606866905,5904.960473408111
0.38,-1.1831876616144041,5902.409271666796
0.384,-1.1506740306938186,5906.708690530836
0.388,-1.1188289443754886,5899.2378767148175
0.392,-1.0883198394400888,5898.656804860032
0.396,-1.0598789080162658,5899.677740291822
0.4,-1.035275870546837,5893.663670166389
0.404,-1.0175305940089427,5900.88029418075
0.408,-1.010207728949412,5896.211989754145
0.412,-1.0160871070815,5898.957260341935
0.416,-1.0357817766143202,5896.60658040653
0.42,-1.0668653511337993,5894.278282783266
0.424,-1.1039026226412372,5897.4129763456285
0.428,-1.1395393048245124,5899.91895096222
0.432,-1.166431055851603,5900.8008753006325
0.436,-1.1793524955681536,5897.59461446206
0.44,-1.1766396298004316,5902.734932011484
0.444,-1.1603915487441738,5899.324747090896
0.448,-1.1354230553088238,5908.930846616611
0.452,-1.1074688113009996,5902.415111912426
0.456,-1.0813732523657047,5901.758563595406
0.46,-1.0599180413679021,5895.112074970305
0.464,-1.0436032432301239,5899.2329135644
0.468,-1.0312840279219584,5899.06092868559
0.472,-1.0212679067604489,5896.140123563959
0.476,-1.0123702312385143,5906.753003576617
0.48,-1.0045090675985207,5910.8476287241765
0.484,-0.9986825717574851,5908.606426747896
0.488,-0.9964778700573246,5902.405630745385
0.492,-0.999412717574328,5895.59922551843
0.496,-1.0083803478650026,5898.367558057653
0.5,-1.0233623438918498,5898.374265223193
0.504,-1.0434493004889764,5903.122973544813
0.508,-1.0670830136326441,5896.35841899912
0.512,-1.0923650795530198,5898.150950408145
0.516,-1.117289684253293,5907.6598752074215
0.52,-1.139810537552375,5903.876720072101
0.524,-1.157739269892205,5904.984147551483
0.528,-1.1686368805255323,5891.042227918935
0.532,-1.1700123442601291,5898.3113674123815
0.536,-1.1600429296025572,5899.220260855496
0.54,-1.1386225886454275,5890.413605388409
0.544,-1.1081642483803986,5895.386555947202
0.548,-1.073595523665723,5900.976577778189
0.552,-1.0413717119256833,5904.95678223496
0.556,-1.017799047894459,5895.181668152812
0.56,-1.007286840320667,5901.432106033329
0.5640000000000001,-1.011206334090256,5900.355740500834
0.5680000000000001,-1.027773222281088,5904.555766985777
0.5720000000000001,-1.0528863261648473,5905.110287089787
0.5760000000000001,-1.0814314319214193,5904.415063200642
0.58,-1.1084755963908592,5902.581970085255
0.584,-1.1300299578289277,5901.14205907887
0.588,-1.143386630133565,5903.836071958331
0.592,-1.1472204371122385,5903.452814588319
0.596,-1.1416525343820698,5896.236092571628
0.6,-1.1283441641087257,5898.671305659013
0.604,-1.1105037054818092,5895.826234972645
0.608,-1.0925827694725403,5900.458828029826
0.612,-1.079517665702087,5892.354278240423
0.616,-1.0756139025010087,5903.225568156094
0.62,-1.0834098715263023,5899.351820607435
0.624,-1.1029152560755204,5901.087904485541
0.628,-1.1314605049133368,5906.295707002804
0.632,-1.164156423418139,5892.041331526012
0.636,-1.194826450062358,5897.826241423335
0.64,-1.217253883903925,5902.954032990561
0.644,-1.226543669226015,5899.07575403799
0.648,-1.2202848310847034,5903.377432925413
0.652,-1.1991603609333454,5900.538948207299
0.656,-1.1668024355282547,5894.320287868674
0.66,-1.1289350198939323,5897.725564403312
0.664,-1.0920169208153363,5896.136123268255
0.668,-1.0616813541392918,5898.471046761998
0.672,-1.0413540608955167,5905.461521587636
0.676,-1.0314954828313452,5904.990649797825
0.68,-1.0297896179471742,5895.042556718714
0.684,-1.0322498683153198,5904.631491356599
0.6880000000000001,-1.0348342436314708,5892.937381656568
0.6920000000000001,-1.0349741758086903,5891.821170302508
0.6960000000000001,-1.032452206126489,5899.191827860929
0.7000000000000001,-1.02927805941334,5895.958279929779
0.704,-1.0286060944951423,5897.003455993145
0.708,-1.0331847068399576,5897.4793375357385
0.712,-1.044043148211765,5903.80515756342
0.716,-1.0599433993111993,5898.953089176871
0.72,-1.0777235954611875,5899.058681330642
0.724,-1.0933192918980954,5897.997398930441
0.728,-1.1030712852303484,5895.945232227472
0.732,-1.1048616062484053,5906.108783053897
0.736,-1.0986657373189537,5906.572113133879
0.74,-1.0863414051439302,5897.140447560396
0.744,-1.0708368375327704,5899.252169503356
0.748,-1.0552530782822502,5898.504285827208
0.752,-1.0421492412052213,5895.532103212787
0.756,-1.0332202356763862,5902.4599620842055
0.76,-1.029251085461488,5898.917249469273
0.764,-1.030201799201489,5904.83661187637
0.768,-1.0353400080006725,5906.173107290194
0.772,-1.0433967212349617,5897.117728488204
0.776,-1.052742063014003,5895.24628985735
0.78,-1.0615883295389181,5901.403984279716
0.784,-1.068240264745717,5908.012511213104
0.788,-1.0714201172911164,5896.52018039372
0.792,-1.0706643662295294,5897.847938686388
0.796,-1.0666874843826397,5901.601084096678
0.8,-1.0614858939990186,5901.431054012841
0.804,-1.057945163703814,5900.137377490764
0.808,-1.0588986174411328,5907.928798739777
0.812,-1.0658899155594397,5904.097881584826
0.8160000000000001,-1.0781384663102862,5902.393944149151
0.8200000000000001,-1.0922447821533492,5894.819465736494
0.8240000000000001,-1.102927818656334,5884.582541856207
0.8280000000000001,-1.1046142849865777,5902.418019397415
0.8320000000000001,-1.0932724164551801,5900.197134098164
0.836,-1.067819150832015,5910.693670861699
0.84,-1.0307324670945222,5901.009354187471
0.844,-0.9878335857847113,5897.436619424248
0.848,-0.9473301691331472,5900.036096333902
0.852,-0.9182526477180865,5903.115462023973
0.856,-0.9085464425665494,5889.396990502757
0.86,-0.9232258814075989,5899.642711426544
0.864,-0.963013923797385,5894.943895571941
0.868,-1.0238176375308383,5902.057999412583
0.872,-1.0972672902617222,5903.311853563038
0.876,-1.1723149926090368,5904.000668203323
0.88,-1.2375567490408124,5897.84800531663
0.884,-1.2836701262461068,5900.0613211249
0.888,-1.3052940219285867,5901.588690979996
0.892,-1.3018439025319393,5901.593339851836
0.896,-1.2771013612394757,5898.40121890516
0.9,-1.2378180872826872,5905.806061588662
0.904,-1.1918537303347114,5904.608796712336
0.908,-1.1464037456340899,5903.046790278052
0.912,-1.1067053938383598,5909.012653207263
0.916,-1.0753936768749701,5908.216868328678
0.92,-1.0525299912705166,5900.796227792914
0.924,-1.0362235900957981,5896.416368162448
0.928,-1.0236478801505373,5900.730271235986
0.932,-1.0121553422033265,5897.106466596202
0.936,-1.0001925754990648,5894.789223906644
0.94,-0.987790646060632,5901.022007839381
0.944,-0.9764981214222025,5913.906723088684
0.948,-0.9687655572480859,5899.415005512977
0.952,-0.9669933196772756,5899.274203992558
0.956,-0.9725898115697891,5899.437492202064
0.96,-0.9853453762712869,5894.642955062025
0.964,-1.0032794844092345,5908.505228987908
0.968,-1.0229833889987006,5906.1496284831455
0.972,-1.0403700163292326,5898.120170752296
0.976,-1.0516364688132571,5898.3809626741095
0.98,-1.0541806283687831,5902.765428402596
0.984,-1.0472300896558384,5897.679983493778
0.988,-1.0320224439718038,5905.352977849463
0.992,-1.0114930090647014,5906.576213609435
0.996,-0.9895551125664509,5900.82216705967
1.0,-0.97016967570638,5898.609405181256
1.004,-0.9564795169164991,5896.439743447103
1.008,-0.950281811100952,5893.0287110918
1.012,-0.9519450479414043,5899.322093425839
1.016,-0.9606114764078184,5897.037913897639
1.02,-0.9744316956439671,5894.762190585307
1.024,-0.9907840318446867,5901.717947967358
1.028,-1.0066837392210304,5892.743881195184
1.032,-1.0195393033966997,5903.835607679937
1.036,-1.0280526477313325,5893.725453186669
1.04,-1.0327372807273811,5904.577060523134
1.044,-1.0356067392616755,5899.869086105378
1.048,-1.0390762930808053,5899.054226076631
1.052,-1.0446571056012626,5908.838142425165
1.056,-1.0521912166585325,5900.684642257591
1.06,-1.060047738246788,5905.520163630724
1.064,-1.066100038561527,5912.697343715286
1.068,-1.0688487916847857,5902.125262918733
1.072,-1.0680519989806376,5898.494503446295
1.076,-1.0646219314725929,5899.5636522532495
1.08,-1.060011066325294,5908.443040642965
1.084,-1.0555118739780323,5899.519311301306
1.088,-1.0517920528186533,5906.341891656579
1.092,-1.0487699684092753,5896.172577385692
1.096,-1.0457799265373784,5902.819957588972
1.1,-1.0419198247240533,5897.544012213811
1.104,-1.0364771035554035,5902.893894112753
1.108,-1.029320537724773,5896.743837182502
1.112,-1.0211006988646245,5900.687416670521
1.116,-1.0131369606376028,5896.153370956847
1.12,-1.0070519380165255,5898.962236381544
1.124,-1.0043594380940162,5892.774253222488
1.128,-1.0061301463746377,5898.52627062996
1.132,-1.0126844305563938,5894.889865359116
1.136,-1.0232608125074953,5886.647700815394
1.14,-1.0357872109430453,5897.169613308101
1.144,-1.0470022076361876,5903.88995966299
1.148,-1.053076712955173,5904.105110643345
1.152,-1.0506394772400136,5901.946990630088
1.156,-1.0378845588421737,5905.727460256554
1.16,-1.0153412945341413,5904.100522482293
1.164,-0.9859385214175921,5894.500308571762
1.168,-0.954220971441905,5902.20694275023
1.172,-0.9249597238252447,5889.094874049186
1.176,-0.9017487792063844,5893.3715239162575
1.18,-0.8862270801633695,5897.885129837158
1.184,-0.878229643265024,5908.526032278927
1.188,-0.8766720263332048,5889.946248063777
1.192,-0.8806391384994184,5907.275541278419
1.196,-0.8901223299993588,5896.042380540841
1.2,-0.9060311536544354,5902.165983972766
1.204,-0.929400339958768,5903.249045261686
1.208,-0.9601039213779786,5897.735384273696
1.212,-0.9957450778089414,5906.8025750162815
1.216,-1.0314268435490206,5895.441758926222
1.22,-1.0607121500363146,5892.216994620312
1.224,-1.07750561368048,5895.142466581036
1.228,-1.0781779889045178,5901.100434623866
1.232,-1.063133929866487,5893.973215814383
1.236,-1.037192440056174,5896.902967200686
1.24,-1.0085926200953739,5895.984992416345
1.244,-0.9869685425413541,5904.150928518465
1.248,-0.9809337624267903,5891.483028631096
1.252,-0.9958935895405749,5905.262560589679
1.256,-1.032569709319258,5903.046463256094
1.26,-1.0866054744560887,5900.52659797262
1.264,-1.149439216288905,5902.996536465788
1.268,-1.2103213237921648,5904.368598559772
1.272,-1.2589731263390789,5900.136701755416
1.276,-1.288077996915686,5902.18171231507
1.28,-1.29474891365067,5904.199156482105
1.284,-1.280495008098567,5909.530074094831
1.288,-1.2499023256057054,5901.7045723381525
1.292,-1.2088143682971073,5910.144446510911
1.296,-1.16285679506753,5902.247297441314
1.3,-1.116731685377916,5889.939865951995
1.304,-1.0741763315325148,5900.5968948142645
1.308,-1.0381730635861546,5900.029913472303
1.312,-1.0110101100763387,5905.801951454024
1.316,-0.9940335468813322,5900.650381897539
1.32,-0.9872175809037242,5906.3725099967005
1.324,-0.9888582397304284,5897.884648648117
1.328,-0.9956989837036399,5912.668228573633
1.332,-1.0036401926397571,5900.983749906973
1.336,-1.0089205176744835,5888.2547773828965
1.34,-1.0093794207884381,5904.067783849441
1.344,-1.0052632153679955,5898.56508783979
1.348,-0.9991591737579391,5905.932244700185
1.352,-0.99502312827321,5894.895320190646
1.356,-0.9966914950453398,5895.692167753455
1.36,-1.006475408772994,5900.301105342727
1.364,-1.0243341645546842,5893.508443175207
1.368,-1.04784308542154,5900.904029851181
1.372,-1.0728817221067335,5892.37692929564
1.376,-1.0947710808450861,5892.65873410375
1.38,-1.1095205481502899,5909.214363024411
1.384,-1.1148809577332839,5902.214158925166
1.388,-1.1109553971528918,5895.209113214984
1.392,-1.1001674459666095,5899.067965341903
1.396,-1.0865076638285374,5897.76722858145
1.4,-1.0742159976855856,5897.165878982114
1.404,-1.0663202432375856,5892.444529632835
1.408,-1.0635946459859784,5906.160011600218
1.412,-1.064413517994335,5905.601934258182
1.416,-1.0656197340672717,5903.248524069156
1.42,-1.064049072375589,5892.473290013639
1.424,-1.0580328253691005,5900.687380205256
1.428,-1.04823112230794,5897.001107579684
1.432,-1.0374734366298641,5902.579917030046
1.436,-1.0297074505903296,5896.501516802539
1.44,-1.0285050932540978,5905.184892944738
1.444,-1.0357364363971395,5899.800975547764
1.448,-1.0509336624811323,5894.37550787251
1.452,-1.0715227683207778,5897.46507270944
1.456,-1.093661521874084,5904.966146498849
1.46,-1.1131974583816284,5900.0804082660425
1.464,-1.1264114408970756,5909.526796575212
1.468,-1.1305388668815466,5901.871910930838
1.472,-1.124214255218466,5904.022879671487
1.476,-1.1078604730665538,5895.017985618054
1.48,-1.0838434015303764,5893.915114486366
1.484,-1.0561819438961182,5898.036998210571
1.488,-1.0297940449509184,5893.448377519498
1.492,-1.0095005904767718,5895.8271342442695
1.496,-0.999073903373963,5907.8116579098505
1.5,-1.000477223986527,5908.437500720658
1.504,-1.0133158322669586,5901.582089930043
1.508,-1.0345990129683642,5911.0249357449375
1.512,-1.059077739591562,5895.794560986948
1.516,-1.0803673738792392,5901.880009118047
1.52,-1.092692709612556,5897.8711709102345
1.524,-1.0926784173830295,5896.663556737854
1.528,-1.0804840853546909,5898.214688291803
1.532,-1.0598179361584519,5893.879767832823
1.536,-1.0368067365243563,5900.188164413777
1.54,-1.0181643331780066,5901.261501545736
1.544,-1.0093815697290922,5902.42671252625
1.548,-1.0135588534887983,5894.626484882348
1.552,-1.031060189210296,5902.1125236963935
1.556,-1.0597427135680053,5903.926881148682
1.56,-1.0954315774689851,5898.949987268064
1.564,-1.1325176159883048,5902.736498796083
1.568,-1.1647634510587432,5892.639351941551
1.572,-1.1864046024216564,5892.626530779405
1.576,-1.193426108660697,5901.466503758982
1.58,-1.184641085702068,5900.025319661068
1.584,-1.1621132711410356,5901.65473019409
1.588,-1.1306708729310597,5897.40207424817
1.592,-1.0966566021395614,5888.770809664893
1.596,-1.066391381354095,5896.023109978144
1.6,-1.0448727925609103,5899.318379698907
1.604,-1.0349856725306423,5906.8582559599145
1.608,-1.0372099008674656,5898.809273631406
1.612,-1.0496904569696806,5906.359274281043
1.616,-1.0685802717607384,5893.9019824682855
1.62,-1.088645285576423,5902.644306258304
1.624,-1.104146112178962,5901.025540569375
1.628,-1.1099516169750365,5898.36171124387
1.632,-1.1027174643578221,5906.586194172887
1.636,-1.0818507489349536,5904.666025449948
1.64,-1.0499399868408832,5898.589478464835
1.644,-1.012399735488512,5901.208681670399
1.648,-0.9763160511403125,5897.635348907442
1.652,-0.9488286231045989,5904.534117510377
1.656,-0.9356081303120576,5913.764419219943
1.66,-0.939881461551312,5902.048103139742
1.664,-0.9621055964593466,5897.065473272924
1.668,-1.0000874903814774,5908.284562884041
1.672,-1.0493129722458387,5893.817202155055
1.676,-1.1034424333947257,5903.424135642453
1.68,-1.1551106260598105,5898.445984251206
1.684,-1.1971117240521778,5899.895360307375
1.688,-1.2237755133102333,5902.943851995889
1.692,-1.232104535838715,5900.535295979893
1.696,-1.2222987491824768,5902.412119158906
1.7,-1.1976107475650928,5900.2486942419055
1.704,-1.163743302600491,5894.903087933037
1.708,-1.127993182287254,5897.72039462564
1.712,-1.0981735956082872,5890.853790974709
1.716,-1.081282062430986,5899.976672440357
1.72,-1.0820154153819168,5904.321967942688
1.724,-1.1014463378740995,5898.830429076956
1.728,-1.1362957739972017,5898.69635281931
1.732,-1.1791675402032111,5896.760331420329
1.736,-1.219875120857357,5903.402932963223
1.74,-1.247679719297264,5897.241559178654
1.744,-1.2539603103364632,5898.599023884651
1.748,-1.2346246813332513,5896.899515255013
1.752,-1.1915266899295913,5892.814197728633
1.756,-1.132337557439147,5895.107697990044
1.76,-1.0687476287734021,5888.228997374986
1.764,-1.0134731854082448,5904.489415934422
1.768,-0.977038020138549,5903.508498912942
1.772,-0.9653648408931305,5900.341799004592
1.776,-0.9788016897247739,5903.105492063003
1.78,-1.012619156886059,5895.786753723123
1.784,-1.0585854727095634,5904.1471056662185
1.788,-1.1070721011450764,5896.57394760119
1.792,-1.1491588075468422,5900.423752948659
1.796,-1.1782802328607733,5900.106677184479
1.8,-1.191093543149641,5896.692894400597
1.804,-1.1874846220430184,5902.959094855438
1.808,-1.1698887864023355,5891.940580383418
1.812,-1.1422454187870386,5892.36926593063
1.816,-1.1089196689220016,5894.299303577062
