时间(s),电压(V),幅值(高频80K)
0.0,-1.5683524306426149,5899.820187622655
0.004,-1.367336819179204,5893.806349359229
0.008,-1.1878141510172,5897.904557682271
0.012,-1.0473061436352613,5899.504052582964
0.016,-0.9561616925492641,5889.29255774294
0.02,-0.9164231489391265,5894.353393602459
0.024,-0.9224774432773187,5897.230671867358
0.028,-0.9629499093044559,5903.138765098288
0.032,-1.0232879537515036,5903.165754914468
0.036,-1.0885527407518867,5892.627167210456
0.04,-1.145923962703648,5896.787204516695
0.044,-1.1864506709298872,5903.3548368211605
0.048,-1.2057837747970759,5909.177378015537
0.052,-1.2039483207132409,5894.395274117569
0.056,-1.1844713198294607,5898.52223702658
0.06,-1.1532266710985377,5901.96737407374
0.064,-1.1172301609429856,5898.042546828959
0.068,-1.0834942568242651,5911.490277297575
0.072,-1.0580304925031234,5909.7585585227
0.076,-1.0450889436230504,5893.767211578157
0.08,-1.0466750682875428,5898.019181690831
0.084,-1.0623453318169935,5899.751924620214
0.088,-1.089318061169855,5904.791984494742
0.092,-1.1229601728544782,5895.527830422774
0.096,-1.1576068676557332,5898.918330924124
0.1,-1.1875078404428736,5899.426612826142
0.104,-1.207675887528172,5902.289697982559
0.108,-1.214583244415931,5901.400646841912
0.112,-1.2067695092600497,5896.74323933003
0.116,-1.1852938170854894,5896.840049930879
0.12,-1.1537458602361195,5893.963712037792
0.124,-1.1175677881931512,5905.982766135131
0.128,-1.0827989105966203,5908.821876593719
0.132,-1.0547184497149964,5905.772124097076
0.136,-1.0368788554450292,5899.275421798704
0.14,-1.0306972766141973,5892.10395556226
0.144,-1.0354488587104635,5900.331520036116
0.148,-1.0484763952408285,5896.951623665967
0.152,-1.065621704524495,5901.152977357365
0.156,-1.0819777377540158,5903.084637581801
0.16,-1.0929111143129158,5902.831671496521
0.164,-1.0950982743502358,5899.866373933626
0.168,-1.0872746043161285,5903.141277371841
0.172,-1.0704933440085027,5900.879857268196
0.176,-1.0478105460630553,5906.917156667748
0.18,-1.0234526891081277,5903.37810698833
0.184,-1.001710398361104,5900.48269474228
0.188,-0.9859369683838433,5896.014691800482
0.192,-0.9779809890067778,5901.3479845929005
0.196,-0.9781564204388316,5900.588586060685
0.2,-0.9856101517768411,5906.003799926916
0.204,-0.9988489585246457,5897.745054346264
0.208,-1.0162584649276332,5903.444105402198
0.212,-1.0365502787853487,5903.597920822958
0.216,-1.059060077078624,5897.625317323472
0.22,-1.0837255569214643,5905.227315232591
0.224,-1.11060716611156,5896.325005735066
0.228,-1.1390821714619408,5894.193695227056
0.232,-1.1671501745504704,5900.794989080071
0.236,-1.1913184978665567,5893.124169776184
0.24,-1.2072247017642528,5893.907622116365
0.244,-1.2107694529175537,5898.950015333236
0.248,-1.1993457803931513,5896.729187923896
0.252,-1.1727801095787544,5895.659581794787
0.256,-1.133730551273496,5895.867685885306
0.26,-1.0874394334485205,5899.949946989271
0.264,-1.040874873372846,5902.952644286055
0.268,-1.0014096263953238,5894.719584133641
0.272,-0.9752945561273253,5897.095822972537
0.276,-0.9662863759238665,5913.432003102147
0.28,-0.9748129713227172,5896.702404000862
0.284,-0.9979341753799225,5898.208816210924
0.288,-1.0301101133159747,5902.840826656466
0.292,-1.0645407666304902,5904.134574037682
0.296,-1.0946962772641462,5899.179872026259
0.3,-1.1156389663146673,5903.58557600296
0.304,-1.1248192859312143,5891.357207726036
0.308,-1.122201130912691,5903.345889261936
0.312,-1.1097932682660736,5902.164308493862
0.316,-1.0908226253661453,5904.10623080809
0.32,-1.068830037254672,5900.190597062211
0.324,-1.046947136076084,5902.81301055636
0.328,-1.027546184844543,5904.459251262522
0.332,-1.0123141751258609,5906.243457916214
0.336,-1.0026083989281005,5905.105328262938
0.34,-0.9998052612903052,5897.7899158283935
0.344,-1.0053640208308763,5904.85176126124
0.348,-1.0204920825357544,5902.613653990805
0.352,-1.0455154952203687,5886.587699344329
0.356,-1.0792352166624672,5896.543275969605
0.36,-1.1186206936925784,5894.194974564953
0.364,-1.159085456730776,5902.177398956658
0.368,-1.1953254889256575,5907.908856898125
0.372,-1.2224480847974706,5913.221157872589
0.376,-1.2370342811137613,5908.148728220362
0.38,-1.237861087377531,5892.523929554117
0.384,-1.2261517885306283,5894.5154739371865
0.388,-1.205335292241504,5899.3532903331925
0.392,-1.180361709136728,5906.842018871445
0.396,-1.156668146489072,5895.259143350808
0.4,-1.1389611486165523,5898.45161267503
0.404,-1.1301036901943347,5893.937335890692
0.408,-1.1304826150807812,5908.030793918436
0.412,-1.1381225545135414,5897.324368155462
0.416,-1.1494771837569846,5906.048824823297
0.42,-1.1605046618252357,5897.384660289566
0.424,-1.1675973460103863,5902.827894690937
0.428,-1.1681731818074261,5896.924315912463
0.432,-1.160965403349104,5891.755405448523
0.436,-1.146087271884619,5898.052691463274
0.44,-1.124902581478345,5902.079552806199
0.444,-1.0997330559144927,5900.27044896216
0.448,-1.073449565372518,5895.092122119094
0.452,-1.0489912886670998,5897.870191625872
0.456,-1.0288861197037191,5893.815720034666
0.46,-1.014893389632303,5898.357687064939
0.464,-1.007860672745255,5897.631018395802
0.468,-1.0077748870076,5896.955152277056
0.472,-1.0139137737252133,5898.288968234872
0.476,-1.0250356655629351,5899.685485337724
0.48,-1.0396148436158263,5893.864162837883
0.484,-1.0561504416039504,5895.88300312536
0.488,-1.0735287207698454,5898.043291308622
0.492,-1.0913239655241997,5901.514031373556
0.496,-1.1098474952518673,5895.84635432727
0.5,-1.1297836498188543,5912.315264991475
0.504,-1.1514207463999886,5908.657513739574
0.508,-1.1737530609435278,5899.606414433459
0.512,-1.193964245983218,5905.797796508608
0.516,-1.2077842093188993,5899.621790970762
0.52,-1.210815390833084,5899.943150969581
0.524,-1.2003354760964842,5906.929203381617
0.528,-1.1767094859506348,5903.734741346367
0.532,-1.1436655819986823,5894.878690091919
0.536,-1.1072359793657625,5896.831905272489
0.54,-1.0738047621310225,5909.809428851148
0.544,-1.0480846575404663,5903.163239510485
0.548,-1.031798192901018,5899.109923666945
0.552,-1.0234624001342452,5895.732128110174
0.556,-1.019220528986804,5906.348416498499
0.56,-1.0143364019590182,5901.800549346241
0.5640000000000001,-1.0048457093965901,5903.389775996692
0.5680000000000001,-0.9889141713340462,5902.026708981091
0.5720000000000001,-0.9675862433458523,5903.062866848618
0.5760000000000001,-0.9447387790242427,5907.656856650545
0.58,-0.9261969712807553,5889.086308881254
0.584,-0.9181718150794775,5902.999958825619
0.588,-0.9254060346675238,5893.049531592406
0.592,-0.9495718719592621,5896.165926841767
0.596,-0.9884618265767702,5895.70275322113
0.6,-1.0363045408914766,5902.757132486584
0.604,-1.0851632252398429,5898.313167055209
0.608,-1.1269877912836712,5908.538507644768
0.612,-1.155661122285692,5902.86789045042
0.616,-1.168386376116119,5906.207429502787
0.62,-1.1660189726634964,5897.762182810969
0.624,-1.1523773085907887,5900.313430845177
0.628,-1.132941797586912,5897.003469226051
0.632,-1.1134366031789433,5894.248715353163
0.636,-1.0986021508770019,5905.466270242145
0.64,-1.0912661536753092,5894.095183959966
0.644,-1.0917950303632977,5893.746125740968
0.648,-1.0980833754580877,5899.871490828828
0.652,-1.1062083079554872,5898.316052972105
0.656,-1.1116576455365486,5904.25189613703
0.66,-1.11077596125885,5899.1886931863655
0.664,-1.101962274276529,5905.060909733145
0.668,-1.0862614027513655,5891.907678318634
0.672,-1.0672074597887384,5900.248905550015
0.676,-1.0499578082471068,5904.1769919551
0.68,-1.0398819012986253,5901.603949044604
0.684,-1.0409169816246837,5900.48366142735
0.6880000000000001,-1.0541572605487874,5896.165996931996
0.6920000000000001,-1.0771808692870883,5898.94101776608
0.6960000000000001,-1.1044578072315545,5903.962549225995
0.7000000000000001,-1.128839800485674,5901.325943057572
0.704,-1.143699312907062,5896.777124172702
0.708,-1.1449550764988128,5900.173874760503
0.712,-1.1322341854072016,5894.82143341628
0.716,-1.10881824507534,5905.2145966756525
0.72,-1.0805494413285441,5899.337131274185
0.724,-1.0542077559262322,5906.459872488938
0.728,-1.0358867253184727,5894.311025531071
0.732,-1.0297101030288847,5894.775210389118
0.736,-1.0370644940619635,5895.023637144179
0.74,-1.0564682083266541,5896.905247473071
0.744,-1.0841326778512992,5907.506414845758
0.748,-1.1150823621892598,5900.460410934507
0.752,-1.1444848986473046,5895.64824441401
0.756,-1.1687818929621243,5908.315489754007
0.76,-1.1863262825229106,5898.420095486998
0.764,-1.1974262125939292,5903.984983233673
0.768,-1.2038691891051942,5897.460004956218
0.772,-1.2081018357251887,5895.069569738589
0.776,-1.2122792519774033,5901.955636212739
0.78,-1.217416854705286,5900.95309136813
0.784,-1.2228892128315723,5893.740962907228
0.788,-1.2264816845010547,5902.360423010915
0.792,-1.2250521790119402,5902.332305963772
0.796,-1.2156176444156608,5906.520630203315
0.8,-1.1964796846534818,5901.643389804118
0.804,-1.1679882090586309,5897.5482089319285
0.808,-1.1327089038435159,5903.062981870788
0.812,-1.0949829395466266,5900.163044377728
0.8160000000000001,-1.0600243356066106,5908.710031511515
0.8200000000000001,-1.0327622804038188,5899.894623980833
0.8240000000000001,-1.0166683815983706,5898.827022783965
0.8280000000000001,-1.0128774755865328,5909.181866462902
0.8320000000000001,-1.0199437677291918,5904.606706622891
0.836,-1.034395569222668,5899.282076444442
0.84,-1.0518536130673835,5897.9841996576215
0.844,-1.0681745846042892,5893.714289644851
0.848,-1.0801822067561075,5895.939128146847
0.852,-1.085933087827419,5904.133266678092
0.856,-1.0847343222014525,5890.303829944961
0.86,-1.0771020700666367,5892.202345295616
0.864,-1.0646780180637219,5898.247144970746
0.868,-1.0500153904314105,5899.741756326403
0.872,-1.0361749948119616,5896.264028528856
0.876,-1.0261707447145154,5896.76249773266
0.88,-1.0223791643107691,5907.409239783452
0.884,-1.0260375118526692,5909.099773861149
0.888,-1.0369276905653106,5904.664117861568
0.892,-1.0533258154260368,5910.51057258508
0.896,-1.072289618695232,5896.381098660717
0.9,-1.0902955657563014,5906.240505026484
0.904,-1.1040967393977996,5897.662129272766
0.908,-1.1115338669591512,5893.115774423607
0.912,-1.1120040616437044,5914.349363641159
0.916,-1.1064076398057936,5903.148685247019
0.92,-1.096610900627314,5904.532213661866
0.924,-1.0846773851870348,5900.878608949876
0.928,-1.0722146200469627,5895.31823395277
0.932,-1.0601191847420386,5895.44442012742
0.936,-1.048799864100687,5901.313064387759
0.94,-1.0386775046083565,5887.46885322016
0.944,-1.0305836451006036,5906.310598860867
0.948,-1.0257925848977063,5901.680916126122
0.952,-1.0257311735192707,5891.292865791284
0.956,-1.0316099231706533,5906.514240598014
0.96,-1.0441581128752493,5896.707915991461
0.964,-1.0634657516930361,5897.347914965843
0.968,-1.0888405350808732,5897.788748649246
0.972,-1.1186435373655228,5899.02279263004
0.976,-1.1502109140066616,5890.030770823752
0.98,-1.1800651795805326,5901.385317955178
0.984,-1.2045316874839296,5915.538315391263
0.988,-1.2206231453482332,5903.3405110693175
0.992,-1.2268469025241788,5890.695233198492
0.996,-1.2236006387791234,5892.243520612815
1.0,-1.2130161265629418,5906.458980900422
1.004,-1.1983347554708603,5891.645036581363
1.008,-1.183037951360162,5889.132757593876
1.012,-1.1699824442096085,5897.549749093789
1.016,-1.1607443980047907,5898.847018983362
1.02,-1.1553121825752088,5894.996875122241
1.024,-1.1521989709627842,5900.3321731878505
1.028,-1.1489525023094105,5899.349637169446
1.032,-1.142923434670299,5898.433741513454
1.036,-1.1320759093654924,5902.02940513436
1.04,-1.1156330204235634,5893.444739230095
1.044,-1.0943999525405377,5895.2081672723325
1.048,-1.0706432716106742,5899.512358248492
1.052,-1.0474876521930907,5901.253938668359
1.056,-1.0279846865025177,5894.576335292928
1.06,-1.0141956358997777,5901.704268977557
1.064,-1.0066262362175673,5893.853783225864
1.068,-1.004158743919717,5897.807331570297
1.072,-1.0044280876924414,5908.984313891565
1.076,-1.004514087489581,5902.6874144048525
1.08,-1.00181996134278,5901.294208753461
1.084,-0.9949661581110646,5895.305630804201
1.088,-0.9844425362820723,5898.410944352305
1.092,-0.9727472718291656,5897.164390671237
1.096,-0.9638963524270067,5895.70652554662
1.1,-0.9624555652796566,5903.295921917752
1.104,-0.972426576157874,5905.736746437566
1.108,-0.9962703116459245,5898.272909960373
1.112,-1.0341801911748865,5904.064592339094
1.116,-1.0836517196469952,5902.367294267952
1.12,-1.1394771286681071,5906.1839651032815
1.124,-1.1943387921795585,5895.541617113559
1.128,-1.240040218988017,5899.07302926321
1.132,-1.269175199346434,5906.1898652188565
1.136,-1.2768527232269997,5903.339266146251
1.14,-1.2620304132651428,5895.351405762087
1.144,-1.228065205078723,5894.003824758424
1.148,-1.1822765245885474,5897.076994045348
1.152,-1.1345786742882296,5898.851331306313
1.156,-1.0954539082066175,5901.835405494987
1.16,-1.0736625702364329,5892.254709865893
1.164,-1.0741785804028217,5904.529323637921
1.168,-1.0968992536739612,5904.312939928904
1.172,-1.1365838750283663,5907.89372965008
1.176,-1.1841315912842736,5893.270495995528
1.18,-1.2288368292331657,5896.319144912569
1.184,-1.2609218423925945,5903.250566595555
1.188,-1.2736035030979267,5905.819954340037
1.192,-1.2641815277435353,5894.116809037114
1.196,-1.2340116698813874,5889.741157110682
1.2,-1.1875961403660227,5906.088213526595
1.204,-1.13124539651702,5903.990950666873
1.208,-1.0717669849724956,5899.002370651611
1.212,-1.015455857325415,5908.074298702505
1.216,-0.9674326799607744,5907.788912251291
1.22,-0.9312507697770759,5903.443977892473
1.224,-0.9087209704310831,5905.89025708696
1.228,-0.8999875221650683,5911.006245851227
1.232,-0.9038724835447379,5904.3512039837815
1.236,-0.9183784526034332,5896.847634873692
1.24,-0.9411412130206098,5899.774089170196
1.244,-0.9696635544092725,5896.972815007966
1.248,-1.0013177510408156,5903.449688931988
1.252,-1.0332753582254603,5887.966089197991
1.256,-1.062584891428316,5903.32440152009
1.26,-1.0865133267492686,5899.282844359907
1.264,-1.1030803044717623,5902.602162893486
1.268,-1.1115845278581837,5896.174065494994
1.272,-1.1129059877022744,5897.12969363031
1.276,-1.1094351275903882,5897.01123734144
1.28,-1.1045912997983773,5896.652945887233
1.284,-1.1020245464308849,5899.361604539191
1.288,-1.1047142442732347,5908.711521754683
1.292,-1.1142198884995678,5898.727359035383
1.296,-1.1302592497882662,5905.264195704917
1.3,-1.150660195662823,5895.888477782441
1.304,-1.1716763635230605,5898.520903697395
1.308,-1.1886596575259416,5900.597286894654
1.312,-1.1970268310359473,5906.857137951944
1.316,-1.1933282852843345,5897.146018396268
1.32,-1.1761344374303704,5902.423823901279
1.324,-1.1464874654851716,5902.551661905909
1.328,-1.107805735916019,5907.819367403464
1.332,-1.0652747883193003,5897.881319826427
1.336,-1.0248498181316643,5902.724174241905
1.34,-0.992068150988736,5907.775628557431
1.344,-0.9709456034847596,5901.56137571089
1.348,-0.9632389485803238,5897.873042797055
1.352,-0.9682603491277084,5900.681279729338
1.356,-0.9832786346833042,5896.654226636319
1.36,-1.0043880270236654,5898.5787944189215
1.364,-1.027592226193887,5903.238878570268
1.368,-1.04978074847916,5900.383883813845
1.372,-1.0693066620660472,5903.131438697801
1.376,-1.0860121482166945,5899.515366148599
1.38,-1.1007487757234047,5899.02897323802
1.384,-1.1146293025873755,5899.707534649563
1.388,-1.1283437784324446,5902.485301962606
1.392,-1.1418242480493348,5899.2811211301205
1.396,-1.154360354321094,5902.731343530879
1.4,-1.1650319337769772,5902.122411815119
1.404,-1.173165258060509,5902.2786040756
1.408,-1.1785382884528268,5897.283224067006
1.412,-1.181247509134899,5896.826559456479
1.416,-1.1813965400200865,5898.1939741572905
1.42,-1.1789179565568084,5898.178541173815
1.424,-1.173757968056437,5905.023762146313
1.428,-1.166356223495285,5902.58278225795
1.432,-1.1580592373166676,5904.095396790675
1.436,-1.1510622992219997,5896.117231651814
1.44,-1.147733274668055,5893.923117765136
1.444,-1.149556282359769,5904.633102763031
1.448,-1.156197665052086,5904.804844187658
1.452,-1.1652019561250169,5896.021652464967
1.456,-1.1725836898922148,5905.918402242737
1.46,-1.1741947211422514,5892.684048523122
1.464,-1.167376483933612,5905.758936297801
1.468,-1.1522373252623144,5908.997257484544
1.472,-1.1320151148878816,5906.68137750026
1.476,-1.112313460911826,5900.812478369227
1.48,-1.0993902206979396,5910.461975706021
1.484,-1.0980198740921676,5906.115542585916
1.488,-1.1096399776885641,5904.870178586511
1.492,-1.1314328113863792,5895.537392926343
1.496,-1.1567069007459094,5905.219422115073
1.5,-1.1765539501934819,5896.843039401557
1.504,-1.1823692067798728,5893.609029268209
1.508,-1.1685003084568026,5897.193896232899
1.512,-1.1341529502483607,5907.988053200843
1.516,-1.083883924691557,5901.4864943460025
1.52,-1.0265217583312873,5894.822286104136
1.524,-0.9729037010156082,5894.347428233503
1.528,-0.9331619779394271,5903.494755478361
1.532,-0.9143801074317337,5901.582139180905
1.536,-0.9192807825405394,5901.067498758775
1.54,-0.9462154256372893,5893.204220016207
1.544,-0.9902429785151772,5892.351647011034
1.548,-1.0447482436865718,5902.588501316276
1.552,-1.103001177533977,5894.144114579953
1.556,-1.1592494485863816,5911.780238555349
1.56,-1.2091988384625605,5896.658587966291
1.564,-1.2499505215099935,5900.663596452311
1.568,-1.2796275429959965,5900.283481685024
1.572,-1.297017866672898,5904.881655621316
1.576,-1.301495434620715,5903.09686616745
1.58,-1.2932429905046512,5904.334227629199
1.584,-1.273562919030088,5893.08332037026
1.588,-1.2450171945228208,5896.002426988712
1.592,-1.211279783740871,5893.168233065599
1.596,-1.1767355642886994,5901.960938088635
1.6,-1.1458964562483636,5896.456299895948
1.604,-1.1226898076712895,5903.90315273371
1.608,-1.1097177724613747,5897.667464367985
1.612,-1.1076805112182615,5902.868236497336
1.616,-1.115208339562157,5898.196266838076
1.62,-1.1292835871031563,5896.260021247696
1.624,-1.1462056283306092,5897.639061989804
1.628,-1.1627281968113123,5899.350561643923
1.632,-1.1768365639883822,5908.957883972264
1.636,-1.1878385466058679,5903.892292156942
1.64,-1.1958541668417937,5897.543901752478
1.644,-1.201062762456588,5900.620742560111
1.648,-1.2030957652284213,5910.279947469254
1.652,-1.2008526680161526,5902.8969002492
1.656,-1.1928356165539382,5899.025725512709
1.66,-1.17787615125157,5894.402873386871
1.664,-1.155937867235227,5907.132317368759
1.668,-1.1285998550936294,5902.542308998634
1.672,-1.098923991379774,5895.177783046026
1.676,-1.0706998589392505,5897.864537804874
1.68,-1.0474012446007819,5895.0630891997
1.684,-1.0313255521526468,5897.1313282275405
1.688,-1.0232251732169404,5898.999601795732
1.692,-1.0224454650589485,5901.856477250107
1.696,-1.0273762554768646,5896.539490493941
1.7,-1.0359806038813433,5905.802960771614
1.704,-1.0462379730694302,5898.652216603623
1.708,-1.0564253811933673,5910.203754543594
1.712,-1.0651964275001453,5908.583651606225
1.716,-1.071459284388192,5905.98601670161
1.72,-1.0741626983791965,5894.6554441260905
1.724,-1.072188741355915,5901.503336608408
1.728,-1.064487936427675,5892.900139576321
1.732,-1.0504074326658246,5904.500137272496
1.736,-1.0300422648708996,5891.9401331382605
1.74,-1.004485352868608,5896.648204556164
1.744,-0.9759496100367353,5907.329009652125
1.748,-0.9477421363281919,5906.570421061036
1.752,-0.9240302300858916,5907.417996788903
1.756,-0.9093647465132344,5891.350436148935
1.76,-0.907985876835253,5903.123448712042
1.764,-0.9229506791630648,5899.871257111567
1.768,-0.9551618981408488,5906.74734365594
1.772,-1.0025412699240746,5906.7095111590825
1.776,-1.059754391917227,5899.755287204668
1.78,-1.1188292262065456,5895.241889347262
1.784,-1.1706971879239112,5898.772464580728
1.788,-1.207321420025994,5911.944375071807
1.792,-1.2238598670990979,5899.131432648893
1.796,-1.220318873034374,5902.53810635596
1.8,-1.2022910685669805,5892.877019341287
1.804,-1.180475006863494,5901.280777914692
1.808,-1.1687493447313497,5897.090096971918
1.812,-1.1807719728691575,5896.494300231319
1.816,-1.2254583187067054,5893.593064977357
