时间(s),电压(V),幅值(高频80K)
0.0,-1.4626091771805347,5899.607920165392
0.004,-1.3201447001098219,5897.386613555581
0.008,-1.1950214784803486,5904.905198840415
0.012,-1.1004366274030077,5904.1920905821735
0.016,-1.0430937690306734,5907.871502941901
0.02,-1.0224180445432494,5904.34368661233
0.024,-1.0314198016519935,5902.2925199168985
0.028,-1.0587092734151302,5907.423773974058
0.032,-1.0912003661259113,5895.835838655684
0.036,-1.1170365052338926,5898.811604179112
0.04,-1.1281136049988432,5893.090824775771
0.044,-1.1215387476199243,5901.381130120682
0.048,-1.099653530729516,5897.306197025136
0.052,-1.0687339691235611,5904.129586406711
0.056,-1.036870488255665,5896.47773234219
0.06,-1.0116868193784125,5900.234585763647
0.064,-0.9985058986611731,5904.459194098881
0.068,-0.9993780567948757,5898.556030214879
0.072,-1.0130979369617712,5905.307902541296
0.076,-1.0360274220922427,5896.98210408289
0.08,-1.0633311706391586,5891.703959586725
0.084,-1.0902286090233921,5899.823030614856
0.088,-1.1130385878159303,5897.376942289639
0.092,-1.1299179476816037,5899.6889459403965
0.096,-1.1411262063923122,5908.085044363225
0.1,-1.148582706810682,5907.827773991948
0.104,-1.1547206820654088,5905.453716030387
0.108,-1.161101794154122,5906.129588855515
0.112,-1.1674850310818372,5899.990327207624
0.116,-1.171776564168055,5906.370214492988
0.12,-1.170767570385858,5901.049267079635
0.124,-1.1612613006383286,5898.568280115177
0.128,-1.1412507311054008,5895.62747070818
0.132,-1.1109454136674937,5909.1123066799255
0.136,-1.0733744507843241,5895.243280430037
0.14,-1.0341536198835937,5902.005422359479
0.144,-1.0001835240955357,5908.309992031052
0.148,-0.9776141817133001,5893.819005541988
0.152,-0.9699372003777168,5905.754310309184
0.156,-0.9770563665797336,5903.700492383808
0.16,-0.9956411635044228,5902.702266300415
0.164,-1.0204453442361787,5900.520379868993
0.168,-1.0459528119549104,5906.292197402669
0.172,-1.0677236034104571,5899.963863666481
0.176,-1.0830560994766931,5902.033718338319
0.18,-1.0909670242983605,5899.578179344164
0.184,-1.0918157174288714,5904.39381712279
0.188,-1.0869330513505762,5895.490892260958
0.192,-1.0783697699706156,5906.445215287925
0.196,-1.068618885389254,5900.785749251126
0.2,-1.060141219480195,5904.739254352548
0.204,-1.0547282624033654,5905.669218292064
0.208,-1.052944294048518,5902.634172888484
0.212,-1.0539270384563206,5892.580678000899
0.216,-1.0557110902757982,5901.46305766834
0.22,-1.0560213820382118,5894.935541968077
0.224,-1.053222064735788,5910.722394567943
0.228,-1.0469834389753578,5895.755630919943
0.232,-1.0383866190897886,5892.497591504371
0.236,-1.02948769633201,5898.248139517947
0.24,-1.0225604877472814,5897.606799630449
0.244,-1.019256137367933,5902.317043900194
0.248,-1.0198810817367348,5901.201996436162
0.252,-1.0230126342964956,5900.020840364748
0.256,-1.0256756016628836,5898.093980677138
0.26,-1.0241504926936678,5903.458196937275
0.264,-1.0152064157981315,5910.970482328251
0.268,-0.9973459409842474,5894.505920572623
0.272,-0.9716230053759031,5898.553836644743
0.276,-0.9417141233431123,5893.909675509077
0.28,-0.9131579829403971,5903.904826641404
0.284,-0.8919936908146915,5898.190696438071
0.288,-0.883275398671121,5891.017545403089
0.292,-0.8899566440594824,5898.971868344142
0.296,-0.9124240196458251,5891.86253018947
0.3,-0.9486763985956732,5904.610054487681
0.304,-0.9949622320283344,5897.738109370134
0.308,-1.0466472778914575,5905.793017723479
0.312,-1.0990848814964704,5905.211369783488
0.316,-1.1482323376879682,5889.210429514307
0.32,-1.190811337476745,5893.8458823931605
0.324,-1.224050017380603,5895.820995282977
0.328,-1.2453369849370521,5901.712679721028
0.332,-1.2522151516104811,5904.386149405331
0.336,-1.2429406061989685,5893.573204414442
0.34,-1.2174454888798298,5900.824685575523
0.344,-1.1782046718495331,5908.407740313774
0.348,-1.1304312917839046,5895.896727838005
0.352,-1.0813048364816453,5893.623037305774
0.356,-1.03841734389175,5897.277238273056
0.36,-1.007991640719783,5905.344392492293
0.364,-0.9934895097623264,5898.005198843579
0.368,-0.9950558212344626,5895.315094847314
0.372,-1.0099696375941585,5908.2550983255815
0.376,-1.03393665497333,5899.23804819987
0.38,-1.0627210581408137,5908.850879756737
0.384,-1.0934472177800225,5901.158161000811
0.388,-1.1250368205336143,5899.838243446838
0.392,-1.1576512805878054,5890.219944017266
0.396,-1.1914974793286748,5907.14783444398
0.4,-1.2256660989868964,5906.682416525364
0.404,-1.2576221528604934,5889.380360692161
0.408,-1.2836081856730928,5900.0595085784535
0.412,-1.2997799743250658,5896.170816745082
0.416,-1.3035800467766485,5900.449404393081
0.42,-1.2947663953134183,5896.741087204701
0.424,-1.2756671329729692,5905.963395046052
0.428,-1.2505643824211816,5901.833385040879
0.432,-1.2244727582282033,5903.608079740675
0.436,-1.2017866698058068,5898.162490747843
0.44,-1.1852447239923165,5897.526520987466
0.444,-1.1754786416752712,5899.708424639847
0.448,-1.1712029871445395,5902.189039770282
0.452,-1.1699078589911287,5898.63276073701
0.456,-1.1687589379661805,5897.480191083217
0.46,-1.1653633325448796,5896.837177028036
0.464,-1.1581801061705845,5896.69825087178
0.468,-1.1465652222425105,5891.874486679841
0.472,-1.1306048102328208,5909.254619614202
0.476,-1.1109369557205928,5888.746981626821
0.48,-1.0886881283617524,5899.98095389753
0.484,-1.065504589059651,5889.778137395248
0.488,-1.0435438131896322,5902.477373648602
0.492,-1.0252837484937702,5900.636335716476
0.496,-1.0130972640972373,5897.47216677275
0.5,-1.0086626782167853,5898.00851670976
0.504,-1.0123776869997207,5896.588393243723
0.508,-1.0229830439835543,5898.651439436946
0.512,-1.0375902126067509,5903.996903044637
0.516,-1.0522411347465361,5903.327697978919
0.52,-1.0629580077058736,5896.432741537242
0.524,-1.066965063626833,5899.084606712882
0.528,-1.0635664242857887,5902.465578614956
0.532,-1.0542815051403227,5899.614540465444
0.536,-1.0422399311204211,5906.090548029354
0.54,-1.03119690047574,5907.338148713515
0.544,-1.0245870850012186,5900.702278738843
0.548,-1.024845288453845,5898.972665221661
0.552,-1.0330148651597197,5895.850404012381
0.556,-1.0485766621045869,5903.700654157603
0.56,-1.069449086490727,5890.383885453482
0.5640000000000001,-1.0921754025540211,5895.468742791955
0.5680000000000001,-1.1123635357959134,5892.597521975454
0.5720000000000001,-1.1254080501357697,5903.705297074199
0.5760000000000001,-1.127395795190891,5894.674135807841
0.58,-1.1159641361020638,5898.356560766341
0.584,-1.0908608203582555,5908.2505157542855
0.588,-1.0540884975688956,5909.231268953536
0.592,-1.0096939113962156,5894.1014656314255
0.596,-0.963308886144235,5901.172656608826
0.6,-0.921472113466605,5892.917242482215
0.604,-0.890743875753141,5890.712463259257
0.608,-0.876733293243426,5893.521960114687
0.612,-0.8832294233757039,5901.833254242938
0.616,-0.9115542405319024,5903.995965161317
0.62,-0.9601495149990025,5901.439010953094
0.624,-1.024421375184951,5899.8958631819305
0.628,-1.0969733038381457,5897.822610555567
0.632,-1.1684094799030773,5893.865070674521
0.636,-1.228782068569609,5909.495422449014
0.64,-1.2695185244881149,5896.004569013348
0.644,-1.285408611428425,5894.102890280076
0.648,-1.2760681307948305,5890.6961915738375
0.652,-1.2463264196856225,5897.824962264397
0.656,-1.2052471246931575,5900.667043774532
0.66,-1.1639070315590199,5891.106363134489
0.664,-1.132492025544677,5898.700684892197
0.668,-1.117586615318041,5907.830383669899
0.672,-1.120555341801632,5900.509678701897
0.676,-1.137537534971722,5891.180024203915
0.68,-1.160970283764709,5900.3286774279
0.684,-1.1820486721952776,5898.077852177379
0.6880000000000001,-1.1933217633214686,5901.98811882269
0.6920000000000001,-1.190685185533947,5901.584563442261
0.6960000000000001,-1.1742578750351567,5895.189668137897
0.7000000000000001,-1.1479543342995446,5899.829376060764
0.704,-1.1179671042537864,5901.338401414771
0.708,-1.090754998432785,5905.338787643085
0.712,-1.0712641835206809,5893.001578174197
0.716,-1.061896131013828,5891.78836723024
0.72,-1.062378912044578,5900.963750884701
0.724,-1.0704176404397279,5896.522509684344
0.728,-1.0828069558475093,5901.829788430178
0.732,-1.0965676444146852,5901.417165026135
0.736,-1.1097096300527454,5897.157220450963
0.74,-1.1214325864117634,5905.890775384426
0.744,-1.1318084856868869,5909.11137391336
0.748,-1.141148180145463,5897.420054127421
0.752,-1.1493571630016386,5893.804318605474
0.756,-1.1556114884754414,5904.451342978205
0.76,-1.1585370515738813,5900.0643950115
0.764,-1.1567797197944767,5894.894634514991
0.768,-1.1496209918781883,5896.096828073276
0.772,-1.137307636311365,5897.661551723098
0.776,-1.1209836516531024,5897.046497081902
0.78,-1.1023422485271122,5889.045497008239
0.784,-1.0832142567392846,5899.64505011874
0.788,-1.0652774554275033,5903.758957338071
0.792,-1.0499701901276723,5898.085126884528
0.796,-1.0385738259062205,5893.19802700991
0.8,-1.0323346870178267,5907.476798690935
0.804,-1.032470384073382,5906.20178283346
0.808,-1.039972083587433,5894.777660421221
0.812,-1.0552427244360132,5891.819180193493
0.8160000000000001,-1.0777191886269701,5899.745231961443
0.8200000000000001,-1.1056551930248166,5898.646983462852
0.8240000000000001,-1.1361999118806994,5891.641722188395
0.8280000000000001,-1.165819011939322,5900.808146832409
0.8320000000000001,-1.1909904483741447,5891.329025261844
0.836,-1.2090102733511396,5896.841936353777
0.84,-1.2186748041308564,5893.935956088451
0.844,-1.2205539779449361,5888.137598698769
0.848,-1.2166369008647486,5906.29284582403
0.852,-1.2094190994035312,5906.135284413162
0.856,-1.2008531327734853,5897.84268790917
0.86,-1.1916959552162372,5898.992541991279
0.864,-1.181563368541043,5898.1952386868725
0.868,-1.1696091272302058,5884.573587293029
0.872,-1.1554176527123239,5908.514104542905
0.876,-1.1395987628143593,5901.742005212682
0.88,-1.123738393064283,5895.645718298829
0.884,-1.1097166561352212,5901.142960540522
0.888,-1.098793769437402,5908.881085810506
0.892,-1.091036708842135,5898.045077367509
0.896,-1.0854294655653947,5900.464484357184
0.9,-1.0805335864628087,5903.235816525488
0.904,-1.0752586517081477,5894.938183733214
0.908,-1.0693610470521093,5902.268359635501
0.912,-1.0635216536459164,5906.848087737969
0.916,-1.0590395349563126,5905.128080736044
0.92,-1.0573049850034635,5899.681995318924
0.924,-1.0592853631217665,5903.396686022333
0.928,-1.065206789530059,5897.9222027655205
0.932,-1.074481674063766,5896.400002814112
0.936,-1.0858423711346454,5906.181633682678
0.94,-1.0976239312161467,5897.086849503931
0.944,-1.1081283002702105,5901.782414174423
0.948,-1.115967231058025,5894.296988202147
0.952,-1.1202642643010352,5901.315967557603
0.956,-1.12066119522285,5897.088442826993
0.96,-1.117208759715737,5903.013970114056
0.964,-1.110297183803861,5905.239140062384
0.968,-1.1007028368577523,5898.843288044757
0.972,-1.0896881583002527,5897.277969163474
0.976,-1.0790540487024989,5901.182971687418
0.98,-1.0710812762008974,5897.41766353764
0.984,-1.0682809917301972,5902.224681537522
0.988,-1.072857182244692,5907.513441371745
0.992,-1.0859213939331953,5904.254880445404
0.996,-1.1067283826866956,5904.286730226162
1.0,-1.1322977270332433,5899.348179304594
1.004,-1.157685108169426,5885.796053315574
1.008,-1.176962205448375,5912.024316848978
1.012,-1.1847202254672977,5899.228040057612
1.016,-1.1776723652476244,5902.064678169376
1.02,-1.1558066111533154,5898.54481006768
1.024,-1.1226386523421563,5896.812665226383
1.028,-1.0844201283751966,5895.896295602739
1.032,-1.0485393147359663,5895.559967726064
1.036,-1.021624471689852,5896.569680304697
1.04,-1.007890148433447,5904.44552404322
1.044,-1.008116001266014,5898.237645290151
1.048,-1.0194961267344258,5902.560514222208
1.052,-1.0364635973486382,5897.193641133746
1.056,-1.052349250761425,5900.800293313584
1.06,-1.0614091903377976,5902.421385651001
1.064,-1.0605852732011216,5907.201395826917
1.068,-1.0504603367121494,5896.499193978797
1.072,-1.0351304981545109,5900.8287339823855
1.076,-1.021040783997359,5895.632747929205
1.08,-1.0151546587182116,5899.383193313536
1.084,-1.0230076274691586,5907.3029536457
1.088,-1.047137481275895,5902.610329068813
1.092,-1.0861910545160354,5891.0105571251015
1.096,-1.134834586491702,5906.3705504942245
1.1,-1.1844986054357078,5897.720304831381
1.104,-1.224916573777078,5905.577337376164
1.108,-1.246263909336084,5905.796836367206
1.112,-1.2414532889716259,5899.80808296467
1.116,-1.2079541994993903,5897.735109038666
1.12,-1.1485766772065544,5896.992201848601
1.124,-1.0710074539249013,5899.942769087829
1.128,-0.9863116841882084,5897.141173090224
1.132,-0.9068712810499627,5887.554039445781
1.136,-0.844239933557405,5899.626013255735
1.14,-0.80727226542203,5893.442503671871
1.144,-0.800775306869177,5901.138624761059
1.148,-0.8248450696368979,5905.925535285379
1.152,-0.8749331283553262,5907.326962051263
1.156,-0.9425747163975917,5906.947440268612
1.16,-1.0166832790266818,5897.889303642718
1.164,-1.0853372639037624,5893.495827588504
1.168,-1.13792008896816,5902.119200522513
1.172,-1.167280280540162,5896.066425475469
1.176,-1.1713749468513952,5896.983911991973
1.18,-1.1538226746772735,5899.427197874448
1.184,-1.1230133430589813,5904.818287644994
1.188,-1.0898630183528548,5895.960910425232
1.192,-1.0648151612316288,5900.733127472033
1.196,-1.0550436716942901,5901.655008830594
1.2,-1.0627837790381833,5902.624093991291
1.204,-1.0852756191394255,5907.000002537126
1.208,-1.116193636524266,5907.446448368393
1.212,-1.1479525852453913,5904.155585644551
1.216,-1.1740622404838998,5903.630665413533
1.22,-1.1907509048427574,5901.861148443742
1.224,-1.1973788312050901,5897.502566843349
1.228,-1.19565540563867,5896.313103446771
1.232,-1.1881668982179772,5908.228041454267
1.236,-1.1769577328554022,5908.3402326112855
1.24,-1.162766409936967,5907.98375316175
1.244,-1.1451169537952566,5898.969236698589
1.248,-1.12305059074379,5892.428137179918
1.252,-1.0960412603369363,5893.421018444121
1.256,-1.0646446825307994,5897.529236639607
1.26,-1.0306397531399314,5905.019632329449
1.264,-0.9966971862875651,5894.013058987916
1.268,-0.965809804756399,5906.9549160853685
1.272,-0.9407744730559967,5899.550743320513
1.276,-0.9239231038065263,5896.10184693991
1.28,-0.9170918347968678,5905.411608744877
1.284,-0.921612297339695,5903.157474696795
1.288,-0.9380849499904997,5902.357539235061
1.292,-0.965901753722099,5903.252513110742
1.296,-1.002757745466587,5897.721726801207
1.3,-1.0445163738870311,5894.198430004271
1.304,-1.0856898928714493,5898.345864718911
1.308,-1.120510150965932,5894.031150666167
1.312,-1.1442414427576646,5894.111531242144
1.316,-1.1542382148855799,5900.929907120109
1.32,-1.150391760279885,5899.522255375098
1.324,-1.1349181616692836,5908.572778019635
1.328,-1.111682774895291,5898.643905844041
1.332,-1.0853273172418219,5902.880021406198
1.336,-1.0604207698882517,5901.818753771552
1.34,-1.0407936346957152,5894.898706994606
1.344,-1.029160623740402,5896.386237080851
1.348,-1.0270315910579606,5901.144940540644
1.352,-1.0347591368457465,5898.067525774522
1.356,-1.0515275654467513,5894.6909387760215
1.36,-1.0752548997772373,5904.738868214104
1.364,-1.102599252335902,5901.058508836875
1.368,-1.1292856580353876,5906.215808279594
1.372,-1.1507903873992607,5909.369038191836
1.376,-1.1632411027586844,5905.114541395603
1.38,-1.164324578314415,5901.850865990929
1.384,-1.153967607741604,5907.249722157819
1.388,-1.1345248497708948,5896.873730759154
1.392,-1.1102754834869353,5902.252513775682
1.396,-1.0863034936144391,5902.949738595586
1.4,-1.0671922591262044,5901.422847662851
1.404,-1.0560915856351822,5902.938161142674
1.408,-1.0544547451446042,5887.304780024734
1.412,-1.0623073277685018,5908.098179274651
1.416,-1.078658211882596,5895.911301875225
1.42,-1.1017321834978215,5895.541721352362
1.424,-1.1289513622074512,5900.206546231709
1.428,-1.156811538570655,5904.146555901772
1.432,-1.1808874403786447,5897.991289298583
1.436,-1.1961764488256397,5897.741134463592
1.44,-1.1978977269545217,5891.660651385606
1.444,-1.1826811184035286,5904.822419601563
1.448,-1.1498075693473127,5887.853715540972
1.452,-1.1019702173729515,5894.449435801793
1.456,-1.0451311560524603,5908.334400807678
1.46,-0.9874414542306278,5896.000689112216
1.464,-0.937599248796065,5892.129552824756
1.468,-0.9031674471831622,5898.005079299749
1.472,-0.8892308543311339,5891.58832468373
1.476,-0.8975580126823792,5895.263151394772
1.48,-0.9263418977781316,5897.999076320412
1.484,-0.9705912651693583,5898.715770055906
1.488,-1.023183189798726,5902.290514353062
1.492,-1.0764272062981786,5909.396392110862
1.496,-1.1237891769850035,5897.088422653075
1.5,-1.1612564208798022,5889.748544982553
1.504,-1.1878390354502069,5899.076713589954
1.508,-1.205016385935738,5899.3390200835975
1.512,-1.2154200653497673,5899.154034868007
1.516,-1.221368933095131,5897.277149254353
1.52,-1.2238533340149402,5895.050775953408
1.524,-1.222301662156088,5902.507837845181
1.528,-1.2151477950763556,5903.56490081129
1.532,-1.2009378537095237,5893.079184330912
1.536,-1.1794859148110817,5900.166363013812
1.54,-1.1525310037224419,5903.143568997611
1.544,-1.1235997053644273,5903.449191817355
1.548,-1.0972099740505068,5890.413126588204
1.552,-1.077821734020429,5890.370973703231
1.556,-1.0688847108488193,5889.826028456285
1.56,-1.0721190298272305,5898.529367681717
1.564,-1.0870651156539073,5900.577035995914
1.568,-1.1110231668210968,5899.521439402784
1.572,-1.1395333185715664,5905.898848388291
1.576,-1.16733048587298,5901.317020132808
1.58,-1.1894330336918426,5901.270082799923
1.584,-1.2020096183884343,5900.696947556198
1.588,-1.2028972131955025,5899.695596058723
1.592,-1.1918348662197524,5898.333797731315
1.596,-1.1704744115741712,5901.207710103291
1.6,-1.1421193014565076,5899.1946665502965
1.604,-1.111113305367769,5899.024662511967
1.608,-1.0819449838282682,5898.757134468784
1.612,-1.0583321286906389,5897.841748301347
1.616,-1.0425865686932787,5894.0062713417365
1.62,-1.035391428063402,5905.298880620933
1.624,-1.0359204476279136,5895.722599889148
1.628,-1.0421354303709265,5896.050091639952
1.632,-1.051119296801611,5898.645842422631
1.636,-1.0594101642089018,5905.889770886748
1.64,-1.0634294732983458,5899.2556332216245
1.644,-1.060103108422492,5900.1638122178665
1.648,-1.0476147193101681,5900.437593948123
1.652,-1.0260513799975808,5903.0252984091485
1.656,-0.9976551648511126,5894.982341828083
1.66,-0.9665018270851651,5900.6011039390905
1.664,-0.9376279510308854,5899.213240174959
1.668,-0.9158413686802414,5899.187469967543
1.672,-0.9046014076313803,5896.900843219903
1.676,-0.9053546898584955,5904.568935889496
1.68,-0.9175031341350254,5896.6173159126265
1.684,-0.9388840545624945,5904.559462214737
1.688,-0.966468902898096,5900.930152144362
1.692,-0.9969908511639292,5906.885474495872
1.696,-1.0273212432704948,5900.999381778242
1.7,-1.0545945036503783,5900.853480057704
1.704,-1.0762727827029772,5896.838546205542
1.708,-1.0904074519096816,5895.46376887596
1.712,-1.096189644192871,5899.589536543906
1.716,-1.0945639068495305,5894.269216541728
1.72,-1.08847260448872,5908.760991334697
1.724,-1.0824054813539123,5905.136897317195
1.728,-1.0812566365021037,5898.924545352281
1.732,-1.0888109784680418,5901.185672285455
1.736,-1.1063838410381,5904.226269916608
1.74,-1.1321719007132331,5893.255175183677
1.744,-1.1616516185864691,5903.029759570382
1.748,-1.1889245266173352,5896.664352785716
1.752,-1.2085273780138264,5899.798197500629
1.756,-1.2171177218772373,5899.70265933379
1.76,-1.2145413888462626,5900.688506128059
1.764,-1.2039344987161154,5903.988877442279
1.768,-1.190731359745307,5893.217623920712
1.772,-1.1808167697296363,5901.811827906316
1.776,-1.1784612397199252,5894.439831173084
1.78,-1.1848475225399577,5903.776481489717
1.784,-1.1977915379793347,5896.668534224203
1.788,-1.2127752100705844,5893.840237868061
1.792,-1.224855217357546,5908.630327521349
1.796,-1.2306137657306262,5892.597291198417
1.8,-1.2292884683489946,5898.474038027714
1.804,-1.2226322753079149,5912.010876170985
1.808,-1.2136990964586691,5895.632906777342
1.812,-1.2052382479925556,5903.08847577796
1.816,-1.1984536678797024,5892.851883800967
