时间(s),电压(V),幅值(高频80K)
0.0,-0.8652684275776573,5908.032244950142
0.004,-1.0148845579556809,5904.345163661049
0.008,-1.1499562668597334,5888.686556673546
0.012,-1.258157434968295,5898.01648391895
0.016,-1.3321226903537293,5897.380901120891
0.02,-1.3702278812159066,5896.276382522726
0.024,-1.3759591184251727,5910.732287090785
0.028,-1.356379740898842,5901.48819880899
0.032,-1.3203978079909626,5901.10232135463
0.036,-1.2772863275776045,5904.3354551403145
0.04,-1.2355203777531352,5895.964306488234
0.044,-1.201861350933257,5901.412089676961
0.048,-1.180778602609703,5906.265064583888
0.052,-1.1744054664922987,5908.094315922072
0.056,-1.183021758836739,5895.727392474493
0.06,-1.205719405808205,5889.340852464702
0.064,-1.2408098256987934,5896.823813274394
0.068,-1.2857768935507368,5905.868348736882
0.072,-1.3369405121882019,5907.435457072671
0.076,-1.3892064238222788,5909.940724698697
0.08,-1.4362574088032465,5883.689569558754
0.084,-1.471350278259473,5894.499009840779
0.088,-1.4886206406819684,5897.736540760625
0.092,-1.4845620112514206,5900.937891734514
0.096,-1.4591975088103,5896.904294524264
0.1,-1.4164500779774631,5892.242044460222
0.104,-1.3634342499548524,5902.017851451191
0.108,-1.3088375383585935,5903.717197048291
0.112,-1.2609692110671442,5902.686297835635
0.116,-1.2261039796644846,5904.036808706522
0.12,-1.2074482524669912,5900.918129830186
0.124,-1.2047575212548225,5907.284798670997
0.128,-1.2145845190127331,5898.544187293166
0.132,-1.231200761047771,5895.022577024053
0.136,-1.2481203387224677,5899.803142899002
0.14,-1.2598382607746061,5899.973639699209
0.144,-1.2631686702909584,5906.66940004543
0.148,-1.257692705520376,5904.908096669169
0.152,-1.245245688481813,5899.974704481374
0.156,-1.2288055803733917,5892.021980648715
0.16,-1.2113369428044205,5908.711003555756
0.164,-1.1950369974585773,5899.9422985540505
0.168,-1.1811552545968884,5894.991079430571
0.172,-1.1702888124173014,5903.522796273389
0.176,-1.1628755003337086,5904.100882096535
0.18,-1.1595514197762475,5893.509666213018
0.184,-1.1611452161837674,5898.535495662254
0.188,-1.1683150071419088,5896.508509574079
0.192,-1.1810570442626394,5892.741505374665
0.196,-1.1983869394088371,5895.226290025483
0.2,-1.2183747815288621,5894.727313958551
0.204,-1.2385005459409777,5898.065517146329
0.208,-1.2561648833583443,5893.837862214227
0.212,-1.2692179006198367,5896.768095919865
0.216,-1.2764201328620404,5904.60271964685
0.22,-1.2777037549221548,5893.606213349537
0.224,-1.2740795069895565,5906.060770788298
0.228,-1.2672021494530121,5909.817822687384
0.232,-1.2588384561204162,5902.32878222319
0.236,-1.2504829682243164,5897.888456681223
0.24,-1.2431404427657193,5899.629876067741
0.244,-1.2371724801983892,5895.512642513671
0.248,-1.232229836610248,5905.303880740044
0.252,-1.2274037478399564,5894.804814516678
0.256,-1.2216188874826766,5893.677562375656
0.26,-1.2140959030649545,5902.943413092692
0.264,-1.2046621785161213,5913.770650686608
0.268,-1.1938155787056843,5895.4880607122695
0.272,-1.1825994268055382,5905.998204701809
0.276,-1.172383091415837,5893.823024425254
0.28,-1.1645843950666432,5893.985319065929
0.284,-1.160366294965016,5899.018006344294
0.288,-1.1604186967870445,5901.25164312334
0.292,-1.164943283820158,5892.920652228407
0.296,-1.1738143708882094,5895.105705165528
0.3,-1.1867336461757605,5896.977664064299
0.304,-1.203208544420212,5900.9618802474015
0.308,-1.2223500649487353,5905.945289080647
0.312,-1.2426424153462667,5900.575681824977
0.316,-1.2618791933582538,5900.79335089545
0.32,-1.277416308210502,5907.896269828106
0.324,-1.2868007226745397,5901.129246808385
0.328,-1.2886734847151444,5908.891433726524
0.332,-1.2836162507022015,5896.692001349846
0.336,-1.2744472296073792,5907.754556373226
0.34,-1.2655826878755427,5897.635989277802
0.344,-1.2615185642435707,5901.028275839859
0.348,-1.2650257360092185,5898.3336575748735
0.352,-1.2759195506356422,5910.23879972648
0.356,-1.2910236406579052,5903.338895865975
0.36,-1.3053193083476704,5911.700004953257
0.364,-1.3136891990236639,5898.814911081062
0.368,-1.3125079378776852,5902.567353284381
0.372,-1.3005784651540322,5893.258750599
0.376,-1.2792487672032906,5896.903066519429
0.38,-1.2517827209583599,5890.808293157033
0.384,-1.2222548253636965,5890.903348909283
0.388,-1.1944198193212205,5897.728199830358
0.392,-1.1710259351877574,5900.939504730552
0.396,-1.15377755766523,5900.186130947503
0.4,-1.1437535171936515,5894.513275167264
0.404,-1.1418454096647372,5898.688126861887
0.408,-1.1488384907698965,5909.6449390534935
0.412,-1.1650302931085001,5905.968426896198
0.416,-1.1896043973465062,5913.1359883551295
0.42,-1.220174333456858,5901.34130131595
0.424,-1.2528405643873681,5903.3722823080925
0.428,-1.2827967406663674,5901.128185915341
0.432,-1.3052249610604199,5894.996783054966
0.436,-1.316164663995763,5895.325478556915
0.44,-1.313212621133703,5898.523837375499
0.444,-1.2960652377360853,5900.374305930538
0.448,-1.2668469652108794,5900.698976067205
0.452,-1.2299980910380361,5903.058979842016
0.456,-1.1915239195590626,5899.718675224588
0.46,-1.1577021723054,5898.642168736922
0.464,-1.1336509131704848,5891.396475105603
0.468,-1.1222339541885202,5893.634030055384
0.472,-1.1236174854322518,5901.269334734307
0.476,-1.1355198610754433,5888.436170770307
0.48,-1.153954315298144,5907.990493224218
0.484,-1.174167830301019,5897.958299683809
0.488,-1.1915559319664712,5894.426819573368
0.492,-1.2024696445355674,5902.365073836393
0.496,-1.204890307266092,5907.5193803968095
0.5,-1.1989107491504252,5896.365987869847
0.504,-1.1868897323390273,5897.245267909391
0.508,-1.1731147931071413,5906.385987840491
0.512,-1.1629020782906503,5905.081049876303
0.516,-1.1612873312577972,5907.300705021565
0.52,-1.171662827321921,5901.392349722417
0.524,-1.1947398252970673,5905.69878372326
0.528,-1.2281047932350284,5902.916642422852
0.532,-1.2665014665000642,5891.311639838703
0.536,-1.3028245230403543,5894.85041123191
0.54,-1.32963478799723,5901.880771077434
0.544,-1.3408457335052317,5899.442154198964
0.548,-1.3331634158415473,5901.84806643808
0.552,-1.3069246346411854,5895.804550631654
0.556,-1.266137430844036,5895.523636892346
0.56,-1.2177187103061677,5903.990183411126
0.5640000000000001,-1.1701178035893152,5897.361858575848
0.5680000000000001,-1.1316802058798994,5896.551993010716
0.5720000000000001,-1.109148524569265,5897.0310869837385
0.5760000000000001,-1.106571715378629,5894.096745057983
0.58,-1.1247128382878329,5902.975675898202
0.584,-1.1609692372574247,5897.809823313196
0.588,-1.2098447935577294,5891.57916430556
0.592,-1.263986011675302,5898.719718278772
0.596,-1.3156394469702521,5901.90020785622
0.6,-1.3582137470510052,5902.829702543877
0.604,-1.3875508453586334,5908.11866091005
0.608,-1.4025519308569991,5905.854304355521
0.612,-1.404972270578925,5904.036307570099
0.616,-1.398481359062571,5903.62184496898
0.62,-1.3873605439976076,5901.389523443038
0.624,-1.375308551750139,5890.636814315929
0.628,-1.3646966232809121,5906.370037156069
0.632,-1.3563708057582076,5896.322439322848
0.636,-1.3498856464730915,5896.730762472994
0.64,-1.343955363350183,5897.788841257541
0.644,-1.3369320616005391,5905.587253284248
0.648,-1.3272013231466555,5900.530537757601
0.652,-1.3134647606168233,5890.232113481156
0.656,-1.2949578024069917,5898.328381484824
0.66,-1.2716884166541793,5897.717663673208
0.664,-1.2446917365072794,5896.476869348607
0.668,-1.2161437231134125,5902.881583053601
0.672,-1.189161541211856,5899.521024219014
0.676,-1.1672764531909232,5901.145335869916
0.68,-1.1537370869666648,5901.117901938789
0.684,-1.1508618680067106,5897.566168237856
0.6880000000000001,-1.1596065317372006,5898.804869149632
0.6920000000000001,-1.1794031998758527,5890.176545849887
0.6960000000000001,-1.2082350841253076,5900.79397587556
0.7000000000000001,-1.2428795250777407,5892.832281747132
0.704,-1.2792679585345572,5897.524689982605
0.708,-1.3129351777077953,5895.342692988503
0.712,-1.339533357451257,5902.390030123935
0.716,-1.3553729595635775,5900.465654256395
0.72,-1.3579507239695536,5897.694739299852
0.724,-1.346419524127848,5893.274557102871
0.728,-1.321904613084904,5903.019284542736
0.732,-1.2875248697452761,5901.385643918423
0.736,-1.2480249233108571,5897.968975705023
0.74,-1.209031575398996,5897.323487086657
0.744,-1.1760279101296924,5909.386225708805
0.748,-1.1532111608867623,5900.475618688169
0.752,-1.1425244578333942,5901.983782289118
0.756,-1.1432531158019932,5903.07140589411
0.76,-1.1524704111850594,5897.901373127238
0.764,-1.166244079487207,5900.637813996444
0.768,-1.181091270042532,5898.949989449293
0.772,-1.1950310073496373,5895.872494307072
0.776,-1.2078396375812954,5904.4396966171125
0.78,-1.2205548830976725,5909.5695539214685
0.784,-1.2345956726878902,5898.386132520556
0.788,-1.250916266417761,5900.018866974585
0.792,-1.2694478468138457,5898.937874608549
0.796,-1.2888785087373826,5908.814217864425
0.8,-1.3067437046265762,5901.281655346225
0.804,-1.3198480646758197,5906.038999382844
0.808,-1.3250660590305472,5901.448365839568
0.812,-1.3204310742679597,5896.605774577475
0.8160000000000001,-1.3061595052248705,5896.951329667933
0.8200000000000001,-1.2850886062729487,5898.128164854312
0.8240000000000001,-1.2621459526257666,5903.387602992645
0.8280000000000001,-1.2429219272527734,5895.485682284806
0.8320000000000001,-1.2319341039839602,5893.9328268670215
0.836,-1.2313763039541676,5888.940711191809
0.84,-1.2408419366750567,5889.040944231873
0.844,-1.257933145477176,5892.228996237966
0.848,-1.2792707444823308,5896.803449328629
0.852,-1.3014148712988067,5906.329520729164
0.856,-1.3214339771364534,5895.902860986218
0.86,-1.3371000297050988,5899.174385158557
0.864,-1.3468648923049866,5915.922495234615
0.868,-1.3498458907196447,5900.383055657809
0.872,-1.3459440342250943,5897.068126990607
0.876,-1.3359959458625998,5908.407902117636
0.88,-1.3217485501063437,5894.761286637495
0.884,-1.3055557345829907,5891.027298444465
0.888,-1.2898785792487455,5896.557768733068
0.892,-1.276759525620874,5899.761066507316
0.896,-1.267443457591844,5897.112578282441
0.9,-1.2622780247291603,5890.884167947877
0.904,-1.2609075786308852,5904.434905488557
0.908,-1.2626067849276321,5901.287428901544
0.912,-1.2665434867250136,5908.428560111664
0.916,-1.2719020278649467,5896.119292909039
0.92,-1.2779785936179233,5902.081209349325
0.924,-1.2843577939921265,5903.58470813589
0.928,-1.291103027609881,5898.344194021232
0.932,-1.2987669022875847,5895.7278764853145
0.936,-1.308111223072442,5892.540131085147
0.94,-1.3196452917966903,5905.071712614261
0.944,-1.3332463602703473,5898.975204304579
0.948,-1.3480859319952145,5901.1750070383
0.952,-1.3628904894713982,5889.16682357381
0.956,-1.3763727425447276,5904.381041371894
0.96,-1.387601218729205,5904.767271219211
0.964,-1.3961349987625387,5905.685243651578
0.968,-1.4018733320771535,5908.474449695632
0.972,-1.4047060736491979,5900.872052418366
0.976,-1.4041728698357112,5896.261750915086
0.98,-1.3993891053160088,5904.008963390148
0.984,-1.3893885665021248,5899.165486275522
0.988,-1.37377666720761,5893.95989078096
0.992,-1.353353162091784,5900.128319929036
0.996,-1.3303314962969404,5904.080205316855
1.0,-1.3079794149307327,5898.1644013246505
1.004,-1.2898031150220284,5896.099078732213
1.008,-1.2786101590541963,5902.160349806389
1.012,-1.2757893151668762,5898.50261545581
1.016,-1.2809828396803349,5897.8565756322605
1.02,-1.2921731181317422,5892.715415860759
1.024,-1.306151453323204,5906.895799962284
1.028,-1.3193006815227493,5903.153411182612
1.032,-1.3285204357312614,5896.522725125377
1.036,-1.3320011771039162,5902.1825498011885
1.04,-1.3295291743890547,5897.188566201978
1.044,-1.3221667165826323,5898.306294343844
1.048,-1.3114754009957243,5905.8179910156105
1.052,-1.2987320494148467,5904.593105922553
1.056,-1.284560120889699,5904.149373346765
1.06,-1.2690496920549095,5905.3440420120805
1.064,-1.2520924623614538,5899.953967995116
1.068,-1.2336219455338056,5897.0869127784445
1.072,-1.2136748077681938,5902.283017034868
1.076,-1.1923996755436002,5903.36554658326
1.08,-1.170165287340838,5895.778918825354
1.084,-1.1477997263324813,5900.125639569291
1.088,-1.126842039950931,5897.806770451591
1.092,-1.1096065984027759,5890.609055862719
1.096,-1.0989067756630193,5904.05021023618
1.1,-1.0974263412645715,5903.511715214495
1.104,-1.1068764313600847,5904.560128086313
1.108,-1.1271914512685572,5893.68298460385
1.112,-1.1560863392216068,5898.229992985749
1.116,-1.1892533378502244,5906.088745487156
1.12,-1.2212582507049823,5901.178069696048
1.124,-1.2468887943460345,5893.559729079928
1.128,-1.262508504030501,5905.568379889243
1.132,-1.266986613503796,5902.983941223646
1.136,-1.2619333729205147,5907.047797416263
1.14,-1.251162663929848,5891.746816394506
1.144,-1.239510946519198,5896.381292646903
1.148,-1.231341974484532,5893.427708177045
1.152,-1.2291799346316648,5900.067227197059
1.156,-1.232908700339867,5905.312136302073
1.16,-1.2398652529661973,5891.33760425262
1.164,-1.245901801741189,5900.013179973921
1.168,-1.2470888759779002,5903.829335871722
1.172,-1.24135808045731,5903.031095096977
1.176,-1.2293332070838145,5910.069743063932
1.18,-1.2140068558865913,5893.323178180726
1.184,-1.1995371953001999,5903.227896941931
1.188,-1.1898191837834162,5901.958298958578
1.192,-1.187431038727154,5898.347039020796
1.196,-1.1932405570083708,5901.296222284989
1.2,-1.206636528995956,5894.0569428930585
1.204,-1.2261488616405196,5901.9767258885
1.208,-1.2501320265059954,5902.153451365674
1.212,-1.2772025478905396,5903.738148372477
1.216,-1.3062561514093465,5898.753245214152
1.22,-1.3361034779244998,5898.729889254732
1.224,-1.364970304504494,5897.844700755431
1.228,-1.3902231497266013,5906.32125183928
1.232,-1.4086116592147522,5898.963905720638
1.236,-1.4170481745560666,5899.387555241779
1.24,-1.4136192383532713,5903.984755461225
1.244,-1.3983539373893412,5895.85675632727
1.248,-1.373373718670038,5899.606160249085
1.252,-1.3423643006853707,5893.59960282417
1.256,-1.309626327315995,5907.005073725258
1.26,-1.279062905783213,5898.2440772704285
1.264,-1.253370457199618,5895.586207666343
1.268,-1.23360307668933,5898.710272168074
1.272,-1.2192360258145505,5898.575716456129
1.276,-1.208743191491491,5897.854512716749
1.28,-1.2004824519538773,5899.874888716405
1.284,-1.1935010620012705,5900.344339993184
1.288,-1.187898986393704,5893.072939826462
1.292,-1.184615805167023,5902.916022983817
1.296,-1.1847915002456488,5897.736798191158
1.3,-1.1890443257382695,5896.690059717343
1.304,-1.1970154103670831,5899.497457244013
1.308,-1.2073468809783339,5904.933496059817
1.312,-1.218008892966391,5901.236493700138
1.316,-1.2267533880337576,5896.342479193604
1.32,-1.2315409339105656,5899.798770832756
1.324,-1.2309478856956417,5897.565434598101
1.328,-1.2245966273763003,5908.308060501914
1.332,-1.2135065116514516,5893.77510567485
1.336,-1.200118749266288,5901.717597516694
1.34,-1.1877983982213445,5890.4810976171975
1.344,-1.1798647074017097,5901.938037756096
1.348,-1.1784940767441958,5895.394446855433
1.352,-1.1839859372307333,5893.971962395321
1.356,-1.1947384037078037,5896.96837583566
1.36,-1.2078931971532414,5894.681416577306
1.364,-1.220269164371169,5899.086737781213
1.368,-1.2291807455513972,5893.706340777781
1.372,-1.2329743208761843,5899.587770398636
1.376,-1.2313259194001331,5902.413882642677
1.38,-1.2253495479111849,5896.807635232432
1.384,-1.2174370979198412,5898.460502663575
1.388,-1.2106971514786344,5896.80925500266
1.392,-1.2080197802320278,5891.170221276648
1.396,-1.2110772404527812,5905.439251703622
1.4,-1.2197035221925498,5888.102408713271
1.404,-1.2319072922518324,5895.992244463584
1.408,-1.2444213752863973,5908.918638879409
1.412,-1.2535011628941448,5895.410109772656
1.416,-1.2557597710986048,5894.78538916132
1.42,-1.2489753725972637,5906.8878195380885
1.424,-1.2328110015528457,5897.918267871356
1.428,-1.2092472751085452,5894.670943622122
1.432,-1.1824359712877668,5892.502376176582
1.436,-1.1578272875961853,5902.4688736691705
1.44,-1.140773479125116,5908.634616641912
1.444,-1.1351009624269737,5890.566780836787
1.448,-1.142143858351804,5896.894008536754
1.452,-1.160486038129757,5901.405594979705
1.456,-1.1863856974792244,5896.954565492504
1.46,-1.2147027919174613,5904.040529354109
1.464,-1.2400972315269438,5896.412470072248
1.468,-1.258238159289811,5888.813277755902
1.472,-1.2667391938969799,5895.234641956402
1.476,-1.2655585790534398,5896.125645757122
1.48,-1.2567440601478999,5889.02191406375
1.484,-1.2436403629538073,5902.236733616644
1.488,-1.2298548788038808,5904.026222362161
1.492,-1.2182693483921805,5910.493654568632
1.496,-1.2102827772868434,5897.059115303922
1.5,-1.2054394801418562,5896.089638603029
1.504,-1.2016172675670964,5897.6395981951455
1.508,-1.1958513471029992,5899.963858074536
1.512,-1.185579627782144,5891.006057266372
1.516,-1.1698046841680099,5900.318514502843
1.52,-1.1496632006750112,5895.069723781587
1.524,-1.1282026192471264,5897.130081847258
1.528,-1.1095197538842796,5895.261173963007
1.532,-1.0976116201085808,5901.027487809449
1.536,-1.095322577352771,5900.836362379457
1.54,-1.1036785344435174,5899.713110229789
1.544,-1.1217240338894918,5902.934207726183
1.548,-1.1468160114028503,5907.276876290191
1.552,-1.175216204129278,5908.629693320013
1.556,-1.2027558507266916,5899.146620653996
1.56,-1.2253906191028021,5892.73171100453
1.564,-1.2396502050607068,5907.882402670187
1.568,-1.2431348702052578,5897.502891032472
1.572,-1.2351245554293262,5892.544971554296
1.576,-1.2171579832287893,5897.424977821504
1.58,-1.193388157117259,5890.272002924216
1.584,-1.1706230834221278,5895.889533991581
1.588,-1.1579465040355394,5900.504393598526
1.592,-1.1656300025592499,5901.354893047871
1.596,-1.2029893935376996,5896.225137071006
1.6,-1.2751370026884723,5899.82728288974
1.604,-1.3791244768569408,5906.283459710123
1.608,-1.500470124064486,5898.635282137796
1.612,-1.6113273882560717,5911.210624650246
1.616,-1.6715214207865094,5893.945544274364
1.62,-1.6333164534591014,5903.926334613774
1.624,-1.4500011764204574,5902.534859542843
1.628,-1.0872006254701938,5897.769389887517
1.632,-0.5344532508431773,5895.720758733005
1.636,0.18652597074482913,5907.959545521411
1.64,1.020651298709438,5903.048916613943
1.644,1.8875610867899348,5889.275336832488
1.648,2.697864500799489,5905.535636143481
1.652,3.3726506069858653,5934.214432245604
1.656,3.8596830229754153,5936.554429186667
1.66,4.141348335527449,5951.351988600202
1.664,4.233141534207051,5962.803923407516
1.668,4.174870785183533,5982.84169410588
1.672,4.018418097708848,6005.560147616422
1.676,3.81577050121123,6022.891140161249
1.68,3.6098627663974274,6030.072009755179
1.684,3.4293913484107654,6045.745375731043
1.688,3.2876635176991815,6049.2276714812815
1.692,3.1847937161818827,6064.164594658921
1.696,3.112087806887091,6075.826127970516
1.7,3.0572512738372426,6095.8725987543485
1.704,3.0090781223839445,6103.757859034064
1.708,2.960512896695746,6120.452054849909
1.712,2.909515262214299,6125.289768670093
1.716,2.857941174267651,6154.564880154889
1.72,2.8093297552134158,6153.895854431426
1.724,2.766688376628313,6176.1042227389225
1.728,2.731081714285094,6187.936804450572
1.732,2.7013120528491013,6195.332929886768
1.736,2.674496394002101,6204.712093941028
1.74,2.647072858883703,6217.874917447557
1.744,2.6157752596877533,6227.571264837194
1.748,2.578326197920816,6230.738564407093
1.752,2.5338233439191207,6254.92699077676
1.756,2.4828827013379593,6251.681445217161
1.76,2.4275616469958035,6275.335767077804
1.764,2.3710232161638083,6282.00420137046
1.768,2.3169262644363897,6280.935592065898
1.772,2.268641283457607,6300.246094094751
1.776,2.228507703725287,6310.56482863005
1.78,2.197374129109768,6309.360274490723
1.784,2.1745704453448265,6333.051993275223
1.788,2.15828327077725,6332.521569606939
1.792,2.146139818111159,6336.554190093559
1.796,2.1357509840854263,6342.7134384361925
1.8,2.1250244619347605,6358.901799700108
1.804,2.112179918093814,6361.47166933919
1.808,2.0955697100896025,6374.964323998084
1.812,2.073569620732532,6382.528946039707
1.816,2.0447840814072142,6380.471880668351
1.82,2.0085544085508644,6389.877127473646
