时间(s),电压(V),幅值(高频80K)
0.0,-1.0809044250670803,5898.568526410295
0.004,-1.090340936577356,5896.650531870736
0.008,-1.101167164464976,5898.822814569277
0.012,-1.1139914277126617,5899.111616084903
0.016,-1.1282301545418822,5904.358165118768
0.02,-1.14237406327064,5895.706329178788
0.024,-1.154601266830902,5904.81496835116
0.028,-1.1633150030403345,5898.281628003161
0.032,-1.1674220991117092,5890.995607532783
0.036,-1.1664398566118186,5906.55050453823
0.04,-1.1605576636422916,5905.003967756554
0.044,-1.1506447382459761,5900.3467612495615
0.048,-1.1381171713418805,5902.756133627595
0.052,-1.1246680077681361,5907.973548092527
0.056,-1.1120046090906166,5894.604109391374
0.06,-1.1017357708205298,5900.047583148978
0.064,-1.0953983198391546,5902.135268502013
0.068,-1.0944858559574466,5906.939672044759
0.072,-1.100341173662862,5895.8425211066215
0.076,-1.1138320767082934,5899.347167735358
0.08,-1.13481511982422,5897.567263019893
0.084,-1.1615564800673035,5903.648708842446
0.088,-1.1904451199264376,5901.918767833709
0.092,-1.2163039431942244,5903.826349888803
0.096,-1.2333620599481494,5896.537564496967
0.1,-1.236665084276649,5894.028614832951
0.104,-1.223490625902124,5899.733999900992
0.108,-1.19428002408827,5896.289880202328
0.112,-1.1527738959859561,5902.3514176696
0.116,-1.1053536326519182,5905.457233972649
0.12,-1.0598071200816972,5899.533079853767
0.124,-1.0237973812371812,5902.865534689244
0.128,-1.0033635663491043,5903.714237919655
0.132,-1.0018441582057267,5903.836856204566
0.136,-1.0195083491074626,5906.770753694249
0.14,-1.0538797387814882,5911.024078363508
0.144,-1.1004900176247099,5897.160468699214
0.148,-1.153805623788614,5897.158217025984
0.152,-1.2081771294581223,5902.278421356854
0.156,-1.2586513856745,5897.773311919902
0.16,-1.3014549481328224,5901.2313452997705
0.164,-1.3341093624340483,5899.084758726609
0.168,-1.3553700948564715,5893.616995731376
0.172,-1.3651984368253396,5906.659334403968
0.176,-1.3647545907560041,5896.07609674255
0.18,-1.3562237482431065,5904.883821809773
0.184,-1.3423547845731452,5897.777248266619
0.188,-1.3258052763715658,5900.985304026697
0.192,-1.3085294628061686,5902.085294038871
0.196,-1.2914190521769504,5903.785268745477
0.2,-1.2742766599163071,5907.714926530418
0.204,-1.256087958400205,5896.049883266957
0.208,-1.2355162030494764,5903.645806389552
0.212,-1.2115324858991616,5903.482878485877
0.216,-1.1840375968697687,5897.605906104567
0.22,-1.1542334624270658,5897.901743586289
0.224,-1.124523162027964,5912.370027112742
0.228,-1.097960702586064,5901.289449400758
0.232,-1.0775393509515345,5905.194495282066
0.236,-1.0656135133420916,5895.629759327599
0.24,-1.063527229604763,5895.4246532135485
0.244,-1.0713821593807555,5897.705575269701
0.248,-1.0879649494600998,5900.542355026661
0.252,-1.1109719267938334,5892.882586105065
0.256,-1.1375855704736546,5894.869481323548
0.26,-1.1652240111010308,5901.344609540757
0.264,-1.192151066410339,5897.752188288024
0.268,-1.2177245242158716,5904.532448345747
0.272,-1.2422632351068084,5892.471165273463
0.276,-1.2666462578949385,5905.04469760096
0.28,-1.2917405870922047,5900.0819179126665
0.284,-1.3176891940667128,5901.747294962065
0.288,-1.343187444886752,5897.869634562405
0.292,-1.3651472188502372,5902.612352970882
0.296,-1.3792443843398234,5898.93988756703
0.3,-1.381457907522953,5906.32902546252
0.304,-1.3700477319067443,5897.031452210308
0.308,-1.3470047432667651,5911.225977130904
0.312,-1.3181260545172073,5899.246504772934
0.316,-1.2914486903512903,5897.852072054177
0.32,-1.2745602656565034,5892.511644710212
0.324,-1.27191867177434,5904.387107523553
0.328,-1.2833525747326626,5902.807889875669
0.332,-1.3042978622818517,5904.391934565199
0.336,-1.327464716485038,5890.625117478303
0.34,-1.3451017915626613,5898.789568423582
0.344,-1.351070689131513,5884.21991004829
0.348,-1.342318222502639,5906.070285990936
0.352,-1.319604894025818,5901.198556683737
0.356,-1.2873697284101868,5893.071166389233
0.36,-1.2526239499518907,5904.606146812876
0.364,-1.2230126450539986,5905.997673974996
0.368,-1.2045766586004736,5890.1420244333
0.372,-1.1999694893570856,5903.12441107707
0.376,-1.2077388333355212,5904.964176639846
0.38,-1.2228779007711519,5904.679680491351
0.384,-1.2384337987925316,5891.020291255349
0.388,-1.2476607953340062,5904.146751115404
0.392,-1.2460578054759115,5893.462853786555
0.396,-1.2326865236366378,5899.302661784171
0.4,-1.210428906558277,5901.403152091331
0.404,-1.1851733871690324,5891.64971809766
0.408,-1.1641849067748915,5898.773862969302
0.412,-1.154098686013617,5891.918651214428
0.416,-1.1590841603720414,5895.187796355669
0.42,-1.179690839786753,5890.644462402655
0.424,-1.2126691027372754,5893.383559184689
0.428,-1.2517366514452937,5896.752118181557
0.432,-1.2890063202106459,5909.593137314637
0.436,-1.3167028805668042,5901.011552565237
0.44,-1.3288104697171195,5897.446626246718
0.444,-1.322321431428178,5896.416516646737
0.448,-1.297839173078997,5898.346556172562
0.452,-1.2594574205333682,5892.089424609569
0.456,-1.2139911630391191,5904.261994546896
0.46,-1.1696824606267717,5900.9590767584095
0.464,-1.1345509996319476,5901.7783784740805
0.468,-1.1147282073497788,5899.339826734146
0.472,-1.1132688005010583,5907.935550091305
0.476,-1.1298073666799304,5888.93596858703
0.48,-1.1610377771347216,5898.810853722882
0.484,-1.2016758463878379,5900.008062649808
0.488,-1.2455379726793783,5906.474865205932
0.492,-1.2865130278123464,5904.249852788057
0.496,-1.3193264928573551,5900.567466558327
0.5,-1.3400505928322082,5895.25668130962
0.504,-1.34635168554158,5902.014397096992
0.508,-1.3375158767261668,5900.924259491234
0.512,-1.314344625101342,5912.601975101524
0.516,-1.2790376729149047,5905.5483770789815
0.52,-1.235136378146864,5897.460009504562
0.524,-1.187446390367592,5895.860120637476
0.528,-1.141684691456526,5903.041035007904
0.532,-1.1036295742286992,5903.113375459535
0.536,-1.0778737072240525,5896.176394088858
0.54,-1.0666381626564085,5901.420060102443
0.544,-1.0691859595391215,5907.926483689451
0.548,-1.0821528695627498,5916.389403220058
0.552,-1.1007719813155463,5902.995480555379
0.556,-1.1206081398994356,5898.090077734575
0.56,-1.1391037645141058,5899.905361077043
0.5640000000000001,-1.156192348477473,5898.164080954231
0.5680000000000001,-1.1736560525209008,5898.568278231257
0.5720000000000001,-1.1935956548491338,5899.096725237872
0.5760000000000001,-1.2168496291556332,5906.180386442004
0.58,-1.242127678752561,5900.721407032108
0.584,-1.266144085381062,5893.202548031663
0.588,-1.2845293033003364,5900.236222768462
0.592,-1.2930466466553485,5904.340208973766
0.596,-1.2886886150676842,5897.55240147868
0.6,-1.2704339048813178,5903.979391109328
0.604,-1.2396111524333246,5896.038616116434
0.608,-1.1998487222521876,5901.315161711658
0.612,-1.1565687188403135,5902.474044360105
0.616,-1.1160216256710993,5898.846264671098
0.62,-1.0839943335240507,5893.604523473669
0.624,-1.064510584328426,5891.695564144561
0.628,-1.058949532035304,5897.655761797176
0.632,-1.065903410885135,5906.254567469568
0.636,-1.0817940057170337,5913.812215456134
0.64,-1.1019668910802385,5903.650304534637
0.644,-1.1218913993774513,5897.76369934925
0.648,-1.1382033131482616,5905.6871463688085
0.652,-1.1494221624164933,5901.619097253667
0.656,-1.1561541203891732,5905.058350910442
0.66,-1.1606253764799581,5900.228699186312
0.664,-1.1656345008684599,5892.2300544854
0.668,-1.1733199279670963,5891.21946598516
0.672,-1.1842320759316696,5898.895290350909
0.676,-1.197017416501666,5907.276049003632
0.68,-1.2087515871098753,5891.893753260007
0.684,-1.2157761378182972,5907.476725163664
0.6880000000000001,-1.2148074346654072,5893.527994676432
0.6920000000000001,-1.2040307482636297,5901.467929146721
0.6960000000000001,-1.1838636278690375,5899.704048386314
0.7000000000000001,-1.1571246301494809,5911.422366026342
0.704,-1.1284897668383196,5898.654730323396
0.708,-1.1033198915587397,5900.812104595361
0.712,-1.0861668245329568,5900.930768586195
0.716,-1.0794437366366634,5902.733199819717
0.72,-1.0827292700538549,5908.67212979121
0.724,-1.0929245130423297,5894.14375660764
0.728,-1.1051756578771168,5899.204136369998
0.732,-1.1142871918058237,5895.46697135727
0.736,-1.1162688147871238,5894.355546871179
0.74,-1.1096329669742342,5901.518139660676
0.744,-1.0961136014554271,5899.078606232903
0.748,-1.0805954888714364,5905.972227706184
0.752,-1.070161723979574,5906.711108179683
0.756,-1.072321919310059,5892.78783109143
0.76,-1.0927673656111603,5902.811493313017
0.764,-1.13332361813361,5907.031691634584
0.768,-1.190867039482957,5893.700974033294
0.772,-1.2576938086989284,5900.177880774007
0.776,-1.3233041996992911,5907.044317215373
0.78,-1.3770291618244817,5903.182218738875
0.784,-1.4105957215348501,5906.421167377664
0.788,-1.4197736843388533,5899.547435909179
0.792,-1.404682273886014,5900.120707016485
0.796,-1.3689268278209457,5905.668469206906
0.8,-1.3181498653822739,5893.900856613566
0.804,-1.2586404629116568,5895.897964077078
0.808,-1.1964176818410948,5893.97995681232
0.812,-1.1368753242670622,5899.587705110763
0.8160000000000001,-1.0847986118409687,5909.833860634394
0.8200000000000001,-1.0444296413979255,5892.798193114728
0.8240000000000001,-1.0193109902191775,5904.131746574816
0.8280000000000001,-1.0118278937798315,5888.962753768033
0.8320000000000001,-1.0225890618939102,5902.70049201979
0.836,-1.0499477378240174,5908.195871443796
0.84,-1.089991383849828,5901.775989899013
0.844,-1.1371524869408582,5898.748516857015
0.848,-1.1852861697767334,5905.112688148186
0.852,-1.2288537147053569,5898.512493374433
0.856,-1.2638801661794288,5893.659367538367
0.86,-1.288504124790498,5892.025846002012
0.864,-1.3030635103816812,5895.665998923863
0.868,-1.3097564008344997,5898.642442715213
0.872,-1.3119838880513417,5896.629420240953
0.876,-1.3134985187709962,5894.799193811108
0.88,-1.3175009419133152,5911.480943481259
0.884,-1.3258856476953327,5898.589667490957
0.888,-1.3388392873146584,5903.320488080219
0.892,-1.3548692445063646,5905.752013093455
0.896,-1.3711794386027532,5895.674093304192
0.9,-1.384241398363698,5894.987394292687
0.904,-1.3904305706469893,5893.9461038032405
0.908,-1.3866391400676041,5902.556231349545
0.912,-1.3708055679501272,5903.150266631394
0.916,-1.3423204815391563,5906.978607953106
0.92,-1.3022843433126792,5895.9941914865
0.924,-1.2536002754843973,5903.728185270841
0.928,-1.2008552717953258,5903.443741886347
0.932,-1.1498814755471856,5899.5876746040285
0.936,-1.1069044183535823,5907.969873181424
0.94,-1.0773554249413007,5898.402054503412
0.944,-1.0646462565692207,5908.909083295482
0.948,-1.0693087208923215,5894.346561134981
0.952,-1.0888515937493082,5903.797749350849
0.956,-1.11850298863182,5898.487751919866
0.96,-1.15266871638819,5906.165358602936
0.964,-1.1865557445304666,5901.608470893591
0.968,-1.2172977020761069,5903.615852615581
0.972,-1.2442239057005842,5894.028293724852
0.976,-1.268359933130567,5897.300739471725
0.98,-1.2914904381368564,5901.3619964015625
0.984,-1.3151245843211405,5895.631737656379
0.988,-1.339639274165336,5903.7085008778895
0.992,-1.363813968373519,5905.566604096964
0.996,-1.3848988210491906,5899.76438001671
1.0,-1.3992320334380637,5894.67279695588
1.004,-1.4032234975843352,5911.319701074799
1.008,-1.3943539817017343,5892.465859752748
1.012,-1.3718703907616423,5898.830085143849
1.016,-1.3370683554661156,5899.094403037869
1.02,-1.2932236397748293,5895.249170163069
1.024,-1.2452506332816256,5904.271575676828
1.028,-1.1991257010623264,5905.330988609287
1.032,-1.1611009355103146,5897.72566799797
1.036,-1.1367532335114012,5899.987139565565
1.04,-1.129994710623105,5914.856027129756
1.044,-1.1422919886022336,5915.947401539902
1.048,-1.1723404678387894,5897.228501895838
1.052,-1.2162424439477237,5905.7784728989
1.056,-1.2680412848261888,5896.600950799369
1.06,-1.3204667816190419,5906.728793080576
1.064,-1.3658681257537357,5900.571760305878
1.068,-1.3973317551243403,5896.335118733959
1.072,-1.4098418794247172,5900.379516707531
1.076,-1.4011989206677213,5896.423729198567
1.08,-1.3724302326587652,5891.428191197791
1.084,-1.3275792885054212,5903.29859847474
1.088,-1.2729046874462655,5897.2951597184765
1.092,-1.2156290793545284,5901.783544551974
1.096,-1.162519237095798,5896.830399918535
1.1,-1.1187165867021627,5908.171515333602
1.104,-1.087200706772331,5905.481326557231
1.108,-1.0689835345636909,5901.996714485666
1.112,-1.0637743611682462,5901.3149150989375
1.116,-1.070666704312417,5900.895786679449
1.12,-1.0884739528062433,5902.116742888084
1.124,-1.115632614899223,5901.93332000712
1.128,-1.1499185039066133,5900.167457487842
1.132,-1.188323802584132,5904.007580027494
1.136,-1.2272623972782148,5903.354216561908
1.14,-1.263047674849302,5891.167505846472
1.144,-1.2925218109384395,5895.270092836205
1.148,-1.3137271584422274,5904.847053369459
1.152,-1.3264437087535441,5900.489154017379
1.156,-1.332308355300531,5895.25243381161
1.16,-1.334268458200395,5903.996674243063
1.164,-1.3354039810583127,5900.030650866764
1.168,-1.3375477868504275,5903.522329229071
1.172,-1.3403644328185522,5897.226342256099
1.176,-1.3414071240231216,5909.810515661402
1.18,-1.3371924907999502,5904.633390290752
1.184,-1.324790943842985,5900.405904988359
1.188,-1.303178817236963,5896.736124198256
1.192,-1.273802994210441,5899.731442694365
1.196,-1.2402850075387675,5894.4033818775215
1.2,-1.2075511802669032,5903.357153610064
1.204,-1.1807149904166854,5904.437588710664
1.208,-1.1639204481859082,5902.98949906454
1.212,-1.1593339999008208,5900.755025369644
1.216,-1.1665489735973316,5891.965950806928
1.22,-1.1826493222421344,5897.781460874322
1.224,-1.2029926713509125,5905.026881791354
1.228,-1.222521563800617,5900.154509036778
1.232,-1.2372089633029502,5897.058618736152
1.236,-1.245172858622054,5895.036805023973
1.24,-1.2471119791760943,5892.551001956712
1.244,-1.2459368529867019,5897.201376350749
1.248,-1.2456608567830032,5898.705861476683
1.252,-1.2498006583375627,5897.194334228299
1.256,-1.259788607808375,5898.274093387953
1.26,-1.2740813652380512,5903.848263556382
1.264,-1.288495362815496,5902.219312372875
1.268,-1.297766229648867,5894.985435753345
1.272,-1.2977113179099988,5896.493086613379
1.276,-1.2870581153709626,5900.1041894904
1.28,-1.268156363083424,5905.847769159926
1.284,-1.246295264201978,5893.581671199289
1.288,-1.2279241838068873,5891.698186473626
1.292,-1.2184768335812872,5895.476475127479
1.296,-1.220589458402045,5908.622296536299
1.3,-1.233285119192093,5905.064867020224
1.304,-1.2523062961649722,5891.109149875018
1.308,-1.2713952334730285,5907.772432475308
1.312,-1.284050776185947,5910.334734591159
1.316,-1.285188288489504,5898.1726943106
1.32,-1.2722433061838452,5903.678970692266
1.324,-1.2455333319055892,5902.396205858053
1.328,-1.2079547968844373,5895.58052852558
1.332,-1.1642327512692807,5883.087841603442
1.336,-1.1199831909629478,5891.626402069367
1.34,-1.0808475353513478,5897.35754935901
1.344,-1.0519019031661603,5905.642039381673
1.348,-1.0373631144954092,5904.77597581714
1.352,-1.0403557464576598,5901.1161415112665
1.356,-1.0624218484821615,5900.368308645545
1.36,-1.102729073834349,5893.88567462714
1.364,-1.1573686712138127,5901.765162106143
1.368,-1.2193339177208329,5902.4289589555065
1.372,-1.2795486186668976,5897.248551967108
1.376,-1.3288175302587915,5896.524781244037
1.38,-1.3600817477667855,5898.619768156198
1.384,-1.370140688384098,5897.651684118991
1.388,-1.3601978373281225,5901.681516671508
1.392,-1.3351384531144035,5894.9287703916025
1.396,-1.3020096020490366,5907.300771794483
1.4,-1.2683460277549925,5900.731425134845
1.404,-1.2407445901923644,5892.363906301959
1.408,-1.2237977812398602,5899.330944113495
1.412,-1.2194103149371964,5893.214796310014
1.416,-1.226553846096956,5900.80784958898
1.42,-1.2415174807331644,5904.289617848986
1.424,-1.2586942135531305,5887.525251412717
1.428,-1.271906412772977,5901.562631233997
1.432,-1.2761012771177322,5894.125919817347
1.436,-1.2689330072240133,5903.1934253641
1.44,-1.251569817613559,5902.8353809851005
1.444,-1.2283028264692093,5900.758055693773
1.448,-1.205083523841032,5906.7616039390605
1.452,-1.187579880611211,5895.536821671786
1.456,-1.1794634497956793,5909.283837728781
1.46,-1.181464450361254,5899.676858854137
1.464,-1.1914159544254674,5903.085593285002
1.468,-1.2051669190051537,5904.636738092579
1.472,-1.2179666161264406,5894.253367832816
1.476,-1.2258157288822742,5898.509724125628
1.48,-1.2263848924078087,5892.796254554213
1.484,-1.2193204988745567,5899.506578353744
1.488,-1.205963770762351,5896.070336091857
1.492,-1.1886803560862582,5893.124347770797
1.496,-1.1701179183666088,5902.106883193396
1.5,-1.1526736708885468,5894.98515772889
1.504,-1.1382375701479024,5901.410557165552
1.508,-1.128072696644596,5895.188726378748
1.512,-1.1226998567364637,5912.770876573039
1.516,-1.1218083461144597,5894.680882507542
1.52,-1.1243065899481364,5903.050978888267
1.524,-1.1285724636254884,5904.409426358601
1.528,-1.132851601618474,5905.395060240574
1.532,-1.135682150303839,5898.1705830763085
1.536,-1.1362249894020962,5898.815431926061
1.54,-1.1344276083401583,5900.081507839837
1.544,-1.1310049284950143,5894.3056967497205
1.548,-1.127262006121311,5900.511182639733
1.552,-1.1248180357589526,5893.411190036807
1.556,-1.1252923325945852,5895.724427463887
1.56,-1.1299631034057926,5899.459353813511
1.564,-1.1393910678308574,5892.982379561825
1.568,-1.153090823976426,5902.184166893992
1.572,-1.1694425966512187,5896.837468680131
1.576,-1.1859944420326327,5904.3281746276425
1.58,-1.2000893702680988,5897.264176671347
1.584,-1.2095436110914262,5895.415170295079
1.588,-1.213084397861399,5896.882536761569
1.592,-1.2104187138530993,5896.583866607798
1.596,-1.2020085259801176,5895.581470073141
1.6,-1.1887656712090031,5898.985889357209
1.604,-1.1718911192922838,5893.922830974998
1.608,-1.1529421553758625,5898.091969339694
1.612,-1.133988604420825,5900.880048061375
1.616,-1.1175825627363412,5896.094242604551
1.62,-1.10633789753556,5905.180745698468
1.624,-1.102156514487848,5897.011272812159
1.628,-1.1054000664061363,5898.907736268552
1.632,-1.1144517550260313,5897.443301913731
1.636,-1.1260433883999295,5907.178538278863
1.64,-1.1363940096754974,5890.154233333976
1.644,-1.142735853677411,5900.837647101498
1.648,-1.1444969170404824,5902.761708561786
1.652,-1.1435455998696504,5893.515820971789
1.656,-1.143432643684348,5897.659051736686
1.66,-1.148097857478032,5903.878749812476
1.664,-1.1606682762706113,5885.640981855841
1.668,-1.1827252244910629,5904.128434518338
1.672,-1.214025650807457,5896.417684151268
1.676,-1.2524390499163354,5902.632130904926
1.68,-1.2939495994675916,5907.883961034487
1.684,-1.3328577621434965,5905.481010480285
1.688,-1.3624950631468795,5904.884491683785
1.692,-1.3766057544904913,5900.66128013847
1.696,-1.3711099064537933,5903.859956145834
1.7,-1.3455699678421864,5896.49608760837
1.704,-1.3036688207478506,5910.215898005041
1.708,-1.252430506713233,5897.197431813927
1.712,-1.2004927939646695,5898.548628239298
1.716,-1.1560961676110304,5909.014246698205
1.72,-1.1254354227493923,5899.3758436575945
1.724,-1.1117458345702453,5909.438033544878
1.728,-1.1151611575902018,5899.717880970599
1.732,-1.1331306341873084,5904.16512465454
1.736,-1.1611065340287239,5897.590735830266
1.74,-1.1933276212679198,5903.284103864785
1.744,-1.22371276057436,5903.388262739698
1.748,-1.246928236066844,5900.479157019035
1.752,-1.2594918245259963,5904.674722131732
1.756,-1.2605167950349214,5906.394992920664
1.76,-1.251719807472524,5902.029104610656
1.764,-1.2366887472643844,5901.414035677501
1.768,-1.2198054010435788,5910.702944148816
1.772,-1.2052962836891545,5902.851572764175
1.776,-1.196636317476657,5893.402699517472
1.78,-1.196217953976169,5894.05299298696
1.784,-1.2050698508038857,5892.676302148114
1.788,-1.2225345040859668,5903.673206363811
1.792,-1.2460695449338977,5910.798434109231
1.796,-1.2714778882253273,5890.4297590642245
1.8,-1.2937179005999488,5901.609047286369
1.804,-1.3080909921481825,5895.578368824555
1.808,-1.311376010058623,5906.3924900140655
1.812,-1.3025602018823705,5912.050249572869
1.816,-1.2830302077584217,5891.092805839332
