时间(s),电压(V),幅值(高频80K)
0.0,-1.2195405419931737,5897.690638325543
0.004,-1.3126636988189901,5899.327772467797
0.008,-1.3955267292048341,5902.098590544367
0.012,-1.4597751047464802,5894.506660090802
0.016,-1.5004672399331895,5894.861737344748
0.02,-1.5170721377761385,5892.6533153722885
0.024,-1.5135132075292306,5906.803872770129
0.028,-1.497103157958998,5901.757505226956
0.032,-1.4766432630109196,5904.423519594452
0.036,-1.4602251675909135,5914.4259076748895
0.04,-1.4533020197119357,5903.19939326424
0.044,-1.4575091847499013,5894.252252307227
0.048,-1.4705765918877733,5901.864705194071
0.052,-1.4874368999831766,5908.951613375992
0.056,-1.5022501796163765,5907.145285818587
0.06,-1.510631098361776,5906.613527892676
0.064,-1.5111703903223919,5899.430894708642
0.068,-1.5056526306426263,5903.908224266981
0.072,-1.4980463421612857,5900.800691620534
0.076,-1.4928779478299368,5898.9052103450285
0.08,-1.4936670292753726,5902.829865430386
0.084,-1.5018454720322854,5891.717508601095
0.088,-1.5163341866964286,5890.106378501187
0.092,-1.5338153696144996,5901.596869992297
0.096,-1.5496240677191748,5900.849525714
0.1,-1.5590340458321548,5900.986914402774
0.104,-1.5585820639196788,5902.820325513148
0.108,-1.547047199509745,5897.854002314484
0.112,-1.5258124862344853,5903.433982709475
0.116,-1.4985312813249438,5895.422355472862
0.12,-1.4702113381545592,5909.190190383416
0.124,-1.4459791772728976,5895.852320976184
0.128,-1.4298948081337934,5897.7184140851805
0.132,-1.424192549949231,5900.630417476133
0.136,-1.4291382755602797,5900.518801822498
0.14,-1.4433760255189103,5899.213706024349
0.144,-1.4644468246853768,5896.275975120777
0.148,-1.4892814208510976,5906.23536107743
0.152,-1.514718423289046,5894.506595834363
0.156,-1.5381414405812093,5884.69680458829
0.16,-1.5581223383152263,5902.893831711521
0.164,-1.574786061679198,5908.7221558042365
0.168,-1.5896739996430227,5902.258096093544
0.172,-1.605094165645552,5911.659831512762
0.176,-1.6231455097212506,5902.957818977424
0.18,-1.6447305377970585,5904.343063309999
0.184,-1.6689133493625237,5902.327350965156
0.188,-1.6928974540875814,5899.039489556972
0.192,-1.7126725392075606,5900.222555117687
0.196,-1.724097910107504,5903.604313049755
0.2,-1.7240122864108924,5897.013272147893
0.204,-1.7110059723675826,5895.851791475544
0.208,-1.685726788025183,5904.810388893998
0.212,-1.650817884464582,5904.000948381774
0.216,-1.6106229240442604,5896.535037107553
0.22,-1.5706635309711006,5902.506145769074
0.224,-1.5367970145255496,5894.737339832929
0.228,-1.5140759632125735,5900.160618147583
0.232,-1.5055920344115366,5897.836651717816
0.236,-1.5117161467792046,5898.027577105966
0.24,-1.5299823591134758,5897.676013092107
0.244,-1.5555729673601804,5895.252986751701
0.248,-1.5822200684211076,5897.95239937951
0.252,-1.6033675952490807,5896.642059452586
0.256,-1.6134439066290516,5900.736848800265
0.26,-1.6089866766295158,5902.690404644107
0.264,-1.5892850623218078,5900.870215131492
0.268,-1.5563386826909087,5901.121156499817
0.272,-1.5142356523250287,5896.4209375087785
0.276,-1.4682745628612204,5895.317008835601
0.28,-1.4241194932585122,5898.893391407246
0.284,-1.3870737498626489,5896.03047561718
0.288,-1.3614302393262023,5892.040083306014
0.292,-1.3499101685058328,5905.609860202809
0.296,-1.3533086731482262,5897.511206810416
0.3,-1.3704632931109162,5895.124392428839
0.304,-1.3985533297289283,5897.556323973585
0.308,-1.4336442860904626,5900.25500111145
0.312,-1.4713632068477598,5896.064555568122
0.316,-1.507584774051438,5905.597852463598
0.32,-1.5390139037828123,5893.789063770235
0.324,-1.563596367588875,5897.343045165878
0.328,-1.5807360534490407,5896.577058790968
0.332,-1.5912805687348401,5903.600763150282
0.336,-1.597192484757152,5902.2864394535545
0.34,-1.6008705610826224,5905.4401187640415
0.344,-1.6042691833773968,5900.402438252506
0.348,-1.6081636939013082,5902.970190428206
0.352,-1.6119286392752235,5900.249151290872
0.356,-1.6139573226891806,5905.117463128211
0.36,-1.6124961620044702,5903.615597730375
0.364,-1.6064530855400942,5900.945515671509
0.368,-1.5958031182656065,5905.859873591893
0.372,-1.5814697536219782,5905.323838319925
0.376,-1.5648292857659494,5903.901869170271
0.38,-1.5471507627014545,5897.8076376312
0.384,-1.5292972957863322,5906.7416619375645
0.388,-1.5118535855631374,5892.538989658313
0.392,-1.495562985593759,5890.720690811929
0.396,-1.4817284842261231,5898.923023588085
0.4,-1.4722363263323839,5897.484054364612
0.404,-1.4691003390330606,5896.956965704993
0.408,-1.4737071395429597,5902.850973981685
0.412,-1.4860777926351159,5897.514055604282
0.416,-1.5044325175862183,5903.403928148548
0.42,-1.5252527825572881,5895.500115489566
0.424,-1.5439303344272994,5893.616233719423
0.428,-1.555930144306468,5900.425561938352
0.432,-1.5581608833293545,5899.709040585066
0.436,-1.5500679212919874,5906.047693277485
0.44,-1.5340046089706108,5902.68243792964
0.444,-1.5147085058119025,5896.827763278548
0.448,-1.4980443411573934,5893.433536012159
0.452,-1.4894041263043039,5898.172577026518
0.456,-1.4922325782136743,5898.158247259819
0.46,-1.5070997294212327,5899.449551045733
0.464,-1.531580565042397,5901.301287550772
0.468,-1.5609487293923183,5899.376131613
0.472,-1.5894362805034632,5901.473104809159
0.476,-1.611652456651185,5895.345117274937
0.48,-1.6237392515325921,5893.902953083186
0.484,-1.6239734513611852,5897.493585785245
0.488,-1.6127644510748693,5893.714935836389
0.492,-1.5922283605753342,5899.390280029736
0.496,-1.5656002548866732,5898.096346372212
0.5,-1.5366604448701,5897.544654764029
0.504,-1.5092163463623993,5895.607552970795
0.508,-1.4865967536184566,5903.015777489701
0.512,-1.4711050191120345,5894.649817589522
0.516,-1.4634763949811005,5906.469512473118
0.52,-1.462576334563093,5896.853882552344
0.524,-1.4656641359033984,5901.263330075036
0.528,-1.4693274006909953,5903.092925589646
0.532,-1.4707757792084288,5897.766320371611
0.536,-1.4689121219655232,5906.076393425607
0.54,-1.464676488543754,5898.540054712049
0.544,-1.4605094081332648,5904.247459534542
0.548,-1.4592217914392023,5898.76368706293
0.552,-1.462872268568052,5904.345561396383
0.556,-1.4722015087337277,5907.511320864539
0.56,-1.4867352287051445,5898.416194129011
0.5640000000000001,-1.5052007841162445,5902.441495203952
0.5680000000000001,-1.5258243353158605,5906.415133055851
0.5720000000000001,-1.546406723330753,5900.902023235132
0.5760000000000001,-1.5644272898022347,5900.186141050322
0.58,-1.5774202668136248,5896.779865701079
0.584,-1.5835435570379173,5897.167526125476
0.588,-1.5820126305595088,5894.865470340685
0.592,-1.5731848106227584,5901.959862829584
0.596,-1.5583807469495876,5893.600943377223
0.6,-1.5396584141524983,5908.164591887879
0.604,-1.5196331486422858,5900.973926948001
0.608,-1.501281135517344,5900.737341517424
0.612,-1.4876295229576262,5902.188850716155
0.616,-1.4813076288477303,5901.65217917556
0.62,-1.4840522228406938,5888.327175798555
0.624,-1.496340420510573,5891.624861356712
0.628,-1.517274222808987,5906.6645361108085
0.632,-1.5447117102647898,5895.694241526419
0.636,-1.5755820930326914,5894.03273200125
0.64,-1.606350962940724,5893.864122695757
0.644,-1.63359903578213,5900.179428640057
0.648,-1.654607478698459,5901.885725565911
0.652,-1.667790852677791,5895.4356641960185
0.656,-1.672842531304234,5900.197069679055
0.66,-1.670544710815987,5901.228244707007
0.664,-1.662310124692054,5906.084042987458
0.668,-1.6496095996586457,5901.863883453163
0.672,-1.6334534884575629,5901.032994451279
0.676,-1.6140615969465135,5902.684881096194
0.68,-1.5908271659174595,5896.157093087804
0.684,-1.5626370043677924,5896.338409924669
0.6880000000000001,-1.5284996086421758,5905.475138192997
0.6920000000000001,-1.4882837470599684,5893.474465858042
0.6960000000000001,-1.4432795192380943,5895.938291363854
0.7000000000000001,-1.396336966070604,5900.933703951732
0.704,-1.351516007329898,5904.638759923147
0.708,-1.313398844519626,5900.344286030276
0.712,-1.2863199591600514,5903.608543089595
0.716,-1.273699351837713,5896.461853009838
0.72,-1.2775130936402277,5895.023966282527
0.724,-1.2978477078491415,5897.824644598093
0.728,-1.3325501901669543,5902.594445652204
0.732,-1.3771584883016759,5903.001203516722
0.736,-1.4253953736682277,5894.114496469264
0.74,-1.4703570918888624,5907.443995022875
0.744,-1.5061513566275007,5904.267591353807
0.748,-1.5293846935625885,5892.722982543803
0.752,-1.5398476545963358,5901.072905416957
0.756,-1.5400860654895678,5911.970992842573
0.76,-1.5341007844665193,5910.574276928684
0.764,-1.5258599690421348,5900.341704659161
0.768,-1.5183602759363781,5906.54732259265
0.772,-1.513577886763655,5894.191965943962
0.776,-1.513041048083376,5901.377852224734
0.78,-1.5183683239311623,5894.935702455915
0.784,-1.5312349171754251,5912.466744344603
0.788,-1.5526911838252642,5910.567591760167
0.792,-1.5821750681318265,5900.630447139518
0.796,-1.6167437695742761,5902.834784719758
0.8,-1.6510178573176932,5895.46948055961
0.804,-1.6780906179492894,5892.575061419962
0.808,-1.6912438885080752,5907.230944777224
0.812,-1.6859298085427836,5904.391429173473
0.8160000000000001,-1.661344267019817,5894.060496410603
0.8200000000000001,-1.6210456679911538,5903.129231265058
0.8240000000000001,-1.572347163856013,5902.399523343995
0.8280000000000001,-1.5245797203167861,5899.882590128526
0.8320000000000001,-1.4867361791609357,5903.014947840033
0.836,-1.4652697271319421,5898.331722411529
0.84,-1.4627229505159567,5899.931261573358
0.844,-1.477447670022797,5893.484698640476
0.848,-1.5042615684015275,5901.265391434723
0.852,-1.5357446769878058,5899.04397797244
0.856,-1.5639258037305162,5909.589974487592
0.86,-1.5820857343693042,5903.097773686738
0.864,-1.586273896047553,5900.908731677987
0.868,-1.5761078170374943,5903.040961146912
0.872,-1.5546303900241025,5899.503036826658
0.876,-1.5273355897500318,5894.335612448633
0.88,-1.500742734117064,5894.889113034732
0.884,-1.4809759556834297,5903.16338192853
0.888,-1.4726763152948836,5901.294100825407
0.892,-1.478332691425351,5901.699552829702
0.896,-1.4979384261436737,5903.062992666413
0.9,-1.5289020779501121,5899.032119636949
0.904,-1.5662990904241525,5902.032706285471
0.908,-1.6036053321903712,5899.824532895103
0.912,-1.6338797640162224,5897.7077173309945
0.916,-1.65113558767186,5891.909918762111
0.92,-1.6515715738166266,5899.183208490194
0.924,-1.6344074409531015,5901.979948829597
0.928,-1.602159677543572,5901.693082110235
0.932,-1.560284419442937,5901.624164545162
0.936,-1.516219691148697,5899.97532432177
0.94,-1.4779710146154619,5894.298984512415
0.944,-1.4524901049007255,5898.910453128604
0.948,-1.4441796572717784,5896.31248667126
0.952,-1.4538819500102649,5897.651864011738
0.956,-1.4786370509027462,5898.328087760595
0.96,-1.512328448367599,5895.146034209077
0.964,-1.5471162320497223,5906.087459558716
0.968,-1.5753379351967294,5895.288587752822
0.972,-1.5913807435925564,5897.014246930573
0.976,-1.5929717756903798,5906.743342423894
0.98,-1.5814661933081546,5903.3618504812985
0.984,-1.561038819270328,5905.764865387734
0.988,-1.537101682117441,5892.124838217839
0.992,-1.514565327532814,5907.285679953239
0.996,-1.4965432312413551,5901.468041971236
1.0,-1.4838137922591073,5898.35791192159
1.004,-1.4750660031501046,5898.34701822119
1.008,-1.4678115899582629,5900.560105015862
1.012,-1.45972938791081,5897.239039600065
1.016,-1.4500059695864065,5892.078173774809
1.02,-1.4400917609393185,5907.836682105845
1.024,-1.433424640822659,5899.324800844855
1.028,-1.434106737793652,5902.981479405936
1.032,-1.4450608243605372,5899.7867062768055
1.036,-1.4665367477551776,5895.169972227269
1.04,-1.4957176081828447,5903.411530552427
1.044,-1.527606395326971,5899.006429267035
1.048,-1.5567329352082673,5906.1510785164255
1.052,-1.5789028634783484,5887.884937926981
1.056,-1.592294426871217,5899.8231411085135
1.06,-1.5975502716718466,5900.567176540061
1.064,-1.5969489707568514,5899.609890361938
1.068,-1.5931071154085448,5901.910683988979
1.072,-1.5877990843794352,5893.36021870896
1.076,-1.5813570023287484,5897.31097712295
1.08,-1.572826837611259,5901.278600237209
1.084,-1.5607358625815246,5892.149591813416
1.088,-1.5440977383534449,5896.157415639529
1.092,-1.5232458471103831,5893.955957432412
1.096,-1.5002220038499317,5900.538662805363
1.1,-1.4786128240913254,5902.220193465584
1.104,-1.4628383949547505,5906.495515404904
1.108,-1.4570273276078631,5896.142033152165
1.112,-1.4638012374079323,5901.188130863073
1.116,-1.4834054784225685,5898.205248177979
1.12,-1.5135033154155215,5919.712662397924
1.124,-1.5496495867281768,5900.990014334983
1.128,-1.5861989658973654,5913.26962523464
1.132,-1.6173390119205728,5892.55042790095
1.136,-1.6380477378983849,5897.003052452397
1.14,-1.6449217478130347,5908.041940458566
1.144,-1.6368619647950151,5906.087284190357
1.148,-1.6155083451423358,5899.104312419689
1.152,-1.5852000080004778,5904.586501152516
1.156,-1.5522744306430913,5913.386316106663
1.16,-1.5237745196434982,5899.855112924192
1.164,-1.5059374014075044,5900.306948890359
1.168,-1.5029065103538595,5898.806333689198
1.172,-1.5158976771789894,5900.650444697892
1.176,-1.5428402352822708,5899.324130496042
1.18,-1.5785051091734827,5907.413957177161
1.184,-1.615213910761048,5900.724711299071
1.188,-1.6442018511731358,5897.825556514183
1.192,-1.6575168891519445,5903.376166592799
1.196,-1.6500488023365452,5906.562912670656
1.2,-1.6210678089640405,5901.12875320979
1.204,-1.5746980308381475,5905.5671793457295
1.208,-1.519086903971456,5900.588953903809
1.212,-1.4644728649824998,5892.378923917318
1.216,-1.4206798411462895,5902.035732575781
1.22,-1.394727297146385,5905.499686937465
1.224,-1.3892595394129774,5900.262905016665
1.228,-1.402276132719359,5902.67415329226
1.232,-1.4281600748680314,5890.1506473493655
1.236,-1.4595176672092531,5897.127908563284
1.24,-1.4891720613746275,5896.026825814785
1.244,-1.5117870100312452,5898.064166699355
1.248,-1.524824073007907,5907.999546791815
1.252,-1.5287220789078104,5907.367199469524
1.256,-1.5263251114805751,5895.590321174457
1.26,-1.5217093606388508,5896.274023485943
1.264,-1.5187120388628643,5900.399945018649
1.268,-1.519634273738133,5905.858711193563
1.272,-1.5246356996728458,5898.971795832369
1.276,-1.532097670576666,5899.864487558661
1.28,-1.5397440736044083,5900.028739177534
1.284,-1.545875547251021,5900.938985624722
1.288,-1.5500251947046144,5906.200501491987
1.292,-1.5527338180780963,5898.298598489018
1.296,-1.5546801774797985,5897.058888264005
1.3,-1.5557295417863886,5911.466178101415
1.304,-1.5544670574217367,5892.131413300792
1.308,-1.5485712502372142,5902.926416569899
1.312,-1.5360617866928332,5899.78051207114
1.316,-1.517056114597442,5906.670261433257
1.32,-1.4952863033699402,5900.090072980986
1.324,-1.4784644371695101,5895.266520510483
1.328,-1.47680709774774,5903.993764081769
1.332,-1.4996360805033573,5908.083001723031
1.336,-1.5507796011559167,5904.029085255155
1.34,-1.624156288517849,5898.785460553373
1.344,-1.701097319742226,5899.058680037214
1.348,-1.7506246702237827,5896.512467347987
1.352,-1.7333068854283675,5912.757018311382
1.356,-1.6085992289364606,5891.614823073186
1.36,-1.344653232402756,5903.918270649741
1.364,-0.9284703865234804,5901.547145739268
1.368,-0.3733544189511138,5904.607143907203
1.372,0.27950543982723797,5898.330311745568
1.376,0.9672389079524252,5900.046628198835
1.38,1.6184832237440818,5915.785539794643
1.384,2.1695915800062453,5909.241575490874
1.388,2.5783030833499114,5935.263952793426
1.392,2.830532492963752,5929.916277310909
1.396,2.939080761156313,5961.972515647614
1.4,2.936073588321197,5964.595373827312
1.404,2.8624408750919623,5978.2902160821095
1.408,2.7577006637886923,5987.18034005191
1.412,2.652370047897259,5999.041110792187
1.416,2.564153166474735,6002.771080603847
1.42,2.4979932071186357,6018.652957798849
1.424,2.4492214526976044,6029.729436425923
1.428,2.408439309819344,6030.554260604266
1.432,2.3665019753940455,6046.2604069796125
1.436,2.3181184608071406,6050.149209247195
1.44,2.2631740165988976,6065.525566506471
1.444,2.2057859493555556,6080.077798747806
1.448,2.151958154803069,6087.984355823583
1.452,2.1070693579396047,6095.202106699361
1.456,2.07416269156879,6083.926689331476
1.46,2.053379453453876,6099.119781852382
1.464,2.0423361724420537,6116.843181302147
1.468,2.0370109768239217,6125.992460864347
1.472,2.032742503677157,6123.372521080125
1.476,2.0251069570366056,6141.588899977831
1.48,2.010591825311089,6146.36065530132
1.484,1.9870476001609323,6148.723188587779
1.488,1.9538780514517522,6158.8625074053925
1.492,1.911911025111657,6165.898482006727
1.496,1.8629699734709704,6185.607628829918
1.5,1.8093296784729318,6177.158965370972
1.504,1.7533279607616097,6196.106314159533
1.508,1.6972885946621843,6191.033668366938
1.512,1.643680940102032,6204.993150428163
1.516,1.5952895507289082,6205.670218175342
1.52,1.5551612883288886,6216.180387940437
1.524,1.5262119590668382,6216.803279275028
1.528,1.5105675984494376,6227.341093677019
1.532,1.5088872750481108,6229.2457819290985
1.536,1.5199484607574554,6235.085341071114
1.54,1.5406696468230388,6242.338183598982
1.544,1.5665803159711111,6243.7241962876615
1.548,1.592582033016064,6255.749471643328
1.552,1.6137329502750222,6261.075586578389
1.556,1.6258277206123581,6271.144402444422
1.56,1.6257411390016714,6281.666099923946
1.564,1.6116781191545977,6279.903887496639
1.568,1.583447322173618,6279.216399463591
1.572,1.542695795371623,6286.985191023679
1.576,1.4928965599743904,6283.265643310247
1.58,1.4388946533535985,6291.748755123786
1.584,1.385995529428006,6297.317505369285
1.588,1.3388365457687186,6308.891845063237
1.592,1.3004583809282042,6310.157791730642
1.596,1.2719530488220052,6305.616466766769
1.6,1.2528120783795564,6316.398046146209
1.604,1.2417647207651488,6324.332367851217
1.608,1.2376545870332853,6322.530204970845
1.612,1.239901400604613,6321.102197122038
1.616,1.2483607183007897,6334.714200025945
1.62,1.2627551821545104,6330.706018225323
1.624,1.2820586462878771,6333.590851068612
1.628,1.3041772670496241,6337.898274843133
1.632,1.3260707585998295,6338.229084401092
1.636,1.3442226285285441,6354.407812092627
1.64,1.3552268478161558,6358.429153958196
1.644,1.3562866083792229,6360.905818145773
1.648,1.3455605474890489,6363.39684251005
1.652,1.322382381293123,6357.775199187311
1.656,1.2873497062699042,6359.526714241894
1.66,1.2422510320110938,6373.592492556822
1.664,1.1898877971215904,6376.996117738541
1.668,1.133909506555222,6371.80855192759
1.672,1.0786337893011975,6376.3698030399455
1.676,1.0286262608455075,6369.865388703536
1.68,0.9878973070556054,6371.301548476458
1.684,0.9589168056732607,6384.511878197897
1.688,0.941885975403688,6390.745233184731
1.692,0.9346186166814286,6390.2395651234565
1.696,0.9330911262173558,6389.102260960015
1.7,0.9324455583262239,6395.604314560172
1.704,0.9281245550609923,6392.487819000734
1.708,0.9169061910811728,6403.649641334383
1.712,0.8977498717336823,6395.441118455472
1.716,0.872366758129217,6394.454253818189
1.72,0.8452715415679665,6397.948060604036
1.724,0.8229843550476569,6409.043485048278
1.728,0.8122871089642609,6408.6784000455855
1.732,0.8179676386641896,6413.493349568389
1.736,0.8409278171507291,6411.813473315078
1.74,0.8774815494556231,6419.452982519957
1.744,0.9201190989631175,6416.252603292228
1.748,0.9593808176321744,6420.55392451321
1.752,0.9861553291164835,6418.9374488385065
1.756,0.9937345330539623,6432.880072718599
1.76,0.9791662492851432,6420.980891478921
1.764,0.943731700537201,6422.774210954791
1.768,0.8926333098610589,6426.4619397316255
1.772,0.8340765334661518,6427.694861340118
1.776,0.7778810516545603,6425.582976498971
1.78,0.7337386746796782,6435.212086972445
1.784,0.709328483575625,6442.270131935013
1.788,0.7086150177429305,6440.667259872075
1.792,0.7307322756608424,6441.278326380757
1.796,0.7698734458701165,6436.996513985557
1.8,0.816437305271297,6446.778226177692
1.804,0.8592483244562258,6448.386786761184
1.808,0.8881913285348597,6439.893221790922
1.812,0.8964319620235462,6455.046705836396
1.816,0.8816228458561549,6447.203301019837
1.82,0.8459238580574592,6442.840724063172
1.824,0.7950563775317756,6446.61057642518
