时间(s),电压(V),幅值(高频80K)
0.0,-1.4242498522420886,5898.394226932403
0.004,-1.415480703084733,5906.90784919633
0.008,-1.414416083699646,5908.562224259307
0.012,-1.4269354141992978,5897.567432514
0.016,-1.4555838064298208,5899.803926288899
0.02,-1.4990066336855579,5899.535245087378
0.024,-1.5521560410804114,5897.529165820272
0.028,-1.6071473123044377,5900.008513322699
0.032,-1.6547794032143077,5904.877173472542
0.036,-1.6866505427616902,5900.37790334851
0.04,-1.6973225500629967,5906.578559317413
0.044,-1.6856166156808359,5904.5471968984175
0.048,-1.654453208076511,5894.599634851327
0.052,-1.6094987580713305,5902.293683806147
0.056,-1.5574545814731033,5897.444206615222
0.06,-1.504696546955353,5898.675743689792
0.064,-1.4564988067836981,5899.205135289011
0.068,-1.4167686196646763,5904.854178630245
0.072,-1.3881605756775972,5895.965587014643
0.076,-1.3723925367948295,5905.055866021104
0.08,-1.3704749681637802,5900.744915602829
0.084,-1.3825924172503035,5897.754609587404
0.088,-1.4076698291958143,5902.665240784058
0.092,-1.4429967489868942,5899.494803314319
0.096,-1.4843418258923264,5906.933012701905
0.1,-1.526716567005682,5899.490105030825
0.104,-1.5655617984030994,5907.9185405174185
0.108,-1.5978797401269058,5895.209755735478
0.112,-1.62282325266785,5902.169158080674
0.116,-1.6414349163105078,5897.781395003754
0.12,-1.6555428637633236,5901.229292646817
0.124,-1.6662490251717548,5904.067092948508
0.128,-1.6728195008584616,5903.647382040177
0.132,-1.6727339403942838,5895.235460101183
0.136,-1.662993377583394,5918.929403070401
0.14,-1.6419226030420053,5902.19673843223
0.144,-1.6103539561468987,5897.104226997475
0.148,-1.5715736861692016,5900.359100130406
0.152,-1.53031074622389,5903.2558915949785
0.156,-1.4915573346873607,5898.427978686043
0.16,-1.4597760448554238,5901.649772158583
0.164,-1.4384611770280222,5897.998161504391
0.168,-1.4297227742207421,5901.5226405826015
0.172,-1.4337695525737855,5903.7207805818325
0.176,-1.4485572303539187,5886.134970147459
0.18,-1.4700044414836029,5900.811442773113
0.184,-1.492935305130071,5898.0779147642525
0.188,-1.5124979962958716,5896.450340221494
0.192,-1.5255135347719133,5892.468937780876
0.196,-1.5311929970628433,5907.155961539544
0.2,-1.530952832237638,5903.908788235969
0.204,-1.52751353131211,5905.504818012312
0.208,-1.523787262426146,5896.09788579041
0.212,-1.5220338882286344,5906.2084441441175
0.216,-1.5234891600317026,5898.03904227137
0.22,-1.5284156722978568,5885.365395984862
0.224,-1.5364242943327244,5894.409687022074
0.228,-1.5468587773883826,5902.563538443932
0.232,-1.5589617828483024,5905.667122042546
0.236,-1.571614576731349,5900.551136960875
0.24,-1.582780815556531,5899.502945352169
0.244,-1.5891290266817497,5902.180007592453
0.248,-1.5863179294459249,5906.12970490349
0.252,-1.5701138654001146,5893.274353536995
0.256,-1.5381028264158567,5893.559251759659
0.26,-1.491417728629599,5899.882864960863
0.264,-1.4357372229112522,5892.131713310383
0.268,-1.380945440190397,5899.96805219706
0.272,-1.3392762164170446,5895.936677231111
0.276,-1.3223379845125167,5903.707618747675
0.28,-1.3378789378858025,5900.481150655512
0.284,-1.3872999890037654,5902.513810578283
0.288,-1.4647135715198314,5897.347338230688
0.292,-1.5578963686202139,5890.005338679132
0.296,-1.6509464760181791,5898.869153371235
0.3,-1.727950466499834,5902.903765278429
0.304,-1.7766205210225277,5891.434452782696
0.308,-1.7908481132885703,5896.921616473575
0.312,-1.7715294133875406,5896.84111810078
0.316,-1.725664906666632,5895.482699847319
0.32,-1.6642563470172713,5903.3662234237
0.324,-1.5997095459201884,5888.660025915996
0.328,-1.543379769365388,5899.913118022638
0.332,-1.5037328465989213,5901.016718902317
0.336,-1.4853851231453024,5913.6590465722975
0.34,-1.489013811804293,5898.061440062035
0.344,-1.5119042328727308,5912.522058627309
0.348,-1.5488762447908002,5900.601564668082
0.352,-1.5934382992255995,5897.913109874441
0.356,-1.6390169159799455,5899.098486025293
0.36,-1.6799781536967306,5897.734717506806
0.364,-1.7121544608806818,5900.858756147187
0.368,-1.7328546041302266,5892.942302025264
0.372,-1.740634848940195,5895.289006668358
0.376,-1.735142062736835,5900.567735968841
0.38,-1.7171220509682772,5897.696656811058
0.384,-1.6884883869169018,5905.42973493778
0.388,-1.6523288097006785,5900.2929766527
0.392,-1.612807260570322,5900.355709506012
0.396,-1.5749411796465123,5892.724251182965
0.4,-1.5441547636702444,5901.549388286341
0.404,-1.525463444751958,5897.901251642786
0.408,-1.522306937351597,5893.135955653629
0.412,-1.5353911215405591,5893.881392495403
0.416,-1.5621304852123112,5886.090402180887
0.42,-1.597123969465962,5897.157078520859
0.424,-1.6336061164436864,5894.779151929547
0.428,-1.665320814183151,5898.526025743758
0.432,-1.6880428666416813,5894.528148818367
0.436,-1.7001211560035276,5898.147431082517
0.44,-1.701893093810951,5900.478084202665
0.444,-1.6944163893341495,5895.941995284846
0.448,-1.6783518463456917,5900.883353898155
0.452,-1.6537463575739466,5897.884769811637
0.456,-1.6209000715009867,5892.1659197541485
0.46,-1.5817734772501166,5897.87401716391
0.464,-1.5409778495245536,5906.981311642843
0.468,-1.5055706020180812,5897.567677323156
0.472,-1.4835065274750983,5903.356775905161
0.476,-1.48128841597942,5907.329418365783
0.48,-1.5017635308865918,5905.649877568873
0.484,-1.5429485654308814,5899.441937385508
0.488,-1.5982833155457525,5897.327353664196
0.492,-1.6581003560421308,5899.868224030028
0.496,-1.711712576473873,5908.969906114289
0.5,-1.749492131052146,5900.49144370343
0.504,-1.764498993085408,5895.863237416107
0.508,-1.7534501673119018,5899.326316242756
0.512,-1.717032802762249,5901.680791520911
0.516,-1.6596796693255378,5902.923070845376
0.52,-1.5888954260915078,5900.279736847444
0.524,-1.5141598859971848,5903.7378688393055
0.528,-1.4454938628935299,5897.812052581361
0.532,-1.391915889060759,5897.422423375342
0.536,-1.3600715995851094,5901.765220055858
0.54,-1.3532336044076616,5908.179192275776
0.544,-1.3707812868533116,5891.7081714409815
0.548,-1.4082677638018273,5894.39787387834
0.552,-1.4581607221793345,5893.814230736713
0.556,-1.5112007345033833,5901.284500463185
0.56,-1.5581564206432794,5897.9272150553625
0.5640000000000001,-1.5916752796138345,5902.948705980262
0.5680000000000001,-1.6078483661890708,5890.996214692802
0.5720000000000001,-1.607016976396036,5905.226247699424
0.5760000000000001,-1.5934518612467465,5905.14934087252
0.58,-1.5738962955384839,5898.171706518521
0.584,-1.5553897171158826,5900.509353466979
0.588,-1.5431034090203821,5898.487062114305
0.592,-1.5390107961875308,5902.350239381319
0.596,-1.5419348130572472,5905.526904039039
0.6,-1.5488834100212505,5896.907663655393
0.604,-1.5569337615821814,5898.81627801663
0.608,-1.5646716065282926,5896.788259445417
0.612,-1.5725159290596724,5896.980819819748
0.616,-1.5819494404090693,5890.196660914791
0.62,-1.5942736214765263,5899.564814964487
0.624,-1.6096842430807565,5898.172282907163
0.628,-1.6271807890729464,5910.384309674429
0.632,-1.6452452861253337,5902.882488754453
0.636,-1.6626996334464146,5903.9071244519655
0.64,-1.6790753227431496,5902.508968101432
0.644,-1.694281097315397,5896.508337729791
0.648,-1.7079444491242868,5902.82111056214
0.652,-1.719037463231275,5895.512371761648
0.656,-1.7261240241651294,5900.9433922263925
0.66,-1.7280651957812905,5891.178256659572
0.664,-1.7247060693727563,5906.28812395361
0.668,-1.7171192271500417,5893.448660005917
0.672,-1.7072687814404932,5898.569727829089
0.676,-1.6972643130731973,5903.182369815671
0.68,-1.688564045199398,5901.547548693783
0.684,-1.6815033649043514,5892.94913530568
0.6880000000000001,-1.6753510057117005,5902.167741600491
0.6920000000000001,-1.668817510284615,5901.517394359371
0.6960000000000001,-1.6607434891146915,5896.7594195751735
0.7000000000000001,-1.650695864368214,5893.384184170635
0.704,-1.6393303646914883,5906.033829790726
0.708,-1.6284768427388838,5899.852799379287
0.712,-1.6208956724411863,5905.66202295549
0.716,-1.619628727825043,5908.234010634919
0.72,-1.6269884744940684,5900.322591599257
0.724,-1.6434968835315795,5899.337159271613
0.728,-1.6672557684412719,5900.986491044659
0.732,-1.6940760142146742,5908.3640634860285
0.736,-1.718313991424105,5903.091942488081
0.74,-1.7340851047000827,5903.988603048072
0.744,-1.7365283082847263,5910.380318754507
0.748,-1.7229328937258492,5897.210213699557
0.752,-1.6935750311796471,5893.661096801675
0.756,-1.6520599489649361,5893.634948198546
0.76,-1.6049990617340586,5900.491051353574
0.764,-1.5610085684772375,5902.817003013851
0.768,-1.529206915830019,5895.527696126656
0.772,-1.5175220408660677,5901.734459409375
0.776,-1.5311124736671429,5898.817854726895
0.78,-1.5710818449011483,5899.513310018476
0.784,-1.6336250063664186,5898.755661351024
0.788,-1.7098878268383029,5903.770445076332
0.792,-1.786914922461547,5906.12296736935
0.796,-1.8498221555746026,5899.38907886958
0.8,-1.8848442537363292,5895.191475275782
0.804,-1.8824979456374293,5894.841263098929
0.808,-1.8399784036412683,5906.274554066744
0.812,-1.7620884469902447,5894.105754885105
0.8160000000000001,-1.6604189373354206,5896.679482713227
0.8200000000000001,-1.551023088568231,5899.172140853182
0.8240000000000001,-1.4512503106444656,5900.0260523065
0.8280000000000001,-1.376534289470199,5898.3036973083135
0.8320000000000001,-1.3377504560583815,5905.694062605252
0.836,-1.339487958829868,5906.431601572589
0.84,-1.3794284233227476,5905.051204224571
0.844,-1.4489252159608477,5899.117233119876
0.848,-1.5346745493285174,5903.5233846406245
0.852,-1.6211315261035242,5894.4694524292
0.856,-1.693225420399878,5896.646420271197
0.86,-1.7389418176716205,5900.56296482159
0.864,-1.7513314946849552,5893.937433185144
0.868,-1.729524439864901,5903.0215050620345
0.872,-1.6785120306760088,5894.857202465307
0.876,-1.6077747667989153,5898.648177799267
0.88,-1.529122615669764,5906.478897204677
0.884,-1.4543135384953232,5896.830931426768
0.888,-1.3930865501887277,5903.530860095121
0.892,-1.352071053561451,5904.112286632698
0.896,-1.3345869776096435,5896.354983374416
0.9,-1.3409009721526868,5894.58282812957
0.904,-1.368461159137691,5896.394400436566
0.908,-1.4120794772061902,5892.841835640632
0.912,-1.4644934835917063,5901.217452874187
0.916,-1.5176502381556334,5893.90664298556
0.92,-1.5644627568102318,5900.061545375854
0.924,-1.6003143966579698,5900.057755623941
0.928,-1.6236550852756406,5892.278124474531
0.932,-1.635523499183375,5902.240129589583
0.936,-1.6383800950308924,5895.528899444516
0.94,-1.6349171433709146,5894.950458832412
0.944,-1.627353282615281,5908.824762591754
0.948,-1.6172848240329964,5903.360608941548
0.952,-1.605836036191368,5903.437147558633
0.956,-1.5938242511321823,5891.2267020265535
0.96,-1.5818095048597658,5894.297316192267
0.964,-1.5700251535870162,5901.775866642479
0.968,-1.5582319662162571,5904.294187208807
0.972,-1.5455815089061586,5902.022630647537
0.976,-1.5306311198088738,5900.031095831839
0.98,-1.5116448043976507,5899.199670330524
0.984,-1.4872138929922436,5901.921687393372
0.988,-1.4570731031442123,5904.224440963238
0.992,-1.4228328429927637,5896.7224996008845
0.996,-1.3883194841864281,5908.852830413875
1.0,-1.3593629290948457,5905.374647522693
1.004,-1.3430286648209169,5891.761988214961
1.008,-1.346304218066013,5906.393606815384
1.012,-1.3742649579730066,5898.2450295844665
1.016,-1.4280236242219868,5895.71157972229
1.02,-1.503217281580628,5897.806741217612
1.024,-1.5899281707214796,5897.335263872806
1.028,-1.6744803883424164,5895.106892653674
1.032,-1.7427493744316456,5905.433543010588
1.036,-1.783928791253212,5907.828051059423
1.04,-1.793432269880789,5901.214323831719
1.044,-1.7739129023319993,5897.102305462783
1.048,-1.7341704158310207,5903.408659198311
1.052,-1.6865413421547104,5898.679304334917
1.056,-1.6437543837316346,5900.236643895012
1.06,-1.61610733124308,5895.906167732383
1.064,-1.6094519822990796,5905.403748869139
1.068,-1.6241625768100048,5897.968167501195
1.072,-1.6551709263296712,5902.760731149111
1.076,-1.6931753257951334,5902.821528299076
1.08,-1.7269745931278644,5896.812836509579
1.084,-1.7464317468843036,5897.255465190448
1.088,-1.7451451531354423,5902.360043979
1.092,-1.721923187617505,5893.849539149584
1.096,-1.6806636354094502,5897.9762982911625
1.1,-1.628870556647209,5896.031194213359
1.104,-1.5754595360124166,5904.941065982027
1.108,-1.5286121226835494,5897.591924877385
1.112,-1.4942595862427017,5899.646703991129
1.116,-1.4753900894875185,5896.322554338804
1.12,-1.4720115737255084,5897.075442949417
1.124,-1.4814972869971166,5912.652285041572
1.128,-1.4991892504306548,5909.18375368739
1.132,-1.5193044830791766,5900.618318147072
1.136,-1.5361526538500008,5911.507122485669
1.14,-1.5454575585457184,5899.086519259244
1.144,-1.5454366085054214,5904.0698135393095
1.148,-1.5373958211046133,5896.448223662635
1.152,-1.5258053529312816,5900.253527956112
1.156,-1.5178915210872899,5896.040325849463
1.16,-1.5226684995961994,5907.565047917339
1.164,-1.5491988943163915,5889.843094064594
1.168,-1.6038926239378772,5901.791290180169
1.172,-1.6869224904697655,5905.20364207061
1.176,-1.7883635884756743,5895.978180238969
1.18,-1.8852942786731344,5896.853413950553
1.184,-1.941493911738891,5903.508414856686
1.188,-1.9112009814886353,5900.064843484528
1.192,-1.7474637881213209,5897.729259234671
1.196,-1.4139882555047636,5901.22197250385
1.2,-0.8975421453386928,5904.364933656772
1.204,-0.21674954206475877,5892.395311689733
1.208,0.5766777398586489,5895.48877046883
1.212,1.4061772786708828,5901.608021011799
1.216,2.1864421614305494,5909.4289117643
1.22,2.842338157252019,5918.492785655235
1.224,3.3242814958170004,5932.349683732613
1.228,3.6155304556913865,5946.680369793299
1.232,3.7304327133134465,5956.477195873897
1.236,3.705838860039005,5974.106166906986
1.24,3.589401027450546,5985.304836816379
1.244,3.4283363319567735,5998.272986944241
1.248,3.2610754618976907,6008.235241585176
1.252,3.1128012508922343,6019.506537961388
1.256,2.9947827460949736,6034.454851664514
1.26,2.9067736200603806,6046.234706551749
1.264,2.8413695800328505,6054.467248525769
1.268,2.7889511466145795,6067.626792516292
1.272,2.741805434726392,6079.258163889786
1.276,2.696384377073918,6084.747971651075
1.28,2.6533163385817193,6094.251148009699
1.284,2.615517335821543,6105.657023824075
1.288,2.5853793050595457,6119.21871556823
1.292,2.562348984822921,6119.235110928437
1.296,2.542028735484998,6136.953551881397
1.3,2.5172272915275187,6147.58125965756
1.304,2.4804817795161345,6154.271008811499
1.308,2.4268968081714735,6151.340819497931
1.312,2.356025487430695,6161.902939054107
1.316,2.272024436240536,6184.938358658469
1.32,2.1821722249566813,6178.236230382389
1.324,2.0945484200956104,6195.495573334161
1.328,2.0158912630810475,6204.469684322806
1.332,1.9503897341904826,6207.35642975182
1.336,1.8996051510649172,6220.3739727003785
1.34,1.8631364647906896,6224.916565103286
1.344,1.8393893420036336,6232.43560253968
1.348,1.826029696509002,6235.812054283759
1.352,1.820141335831332,6246.361204988925
1.356,1.8183719469193498,6247.367271117176
1.36,1.8173005870614911,6256.769068630141
1.364,1.8140244130620333,6268.179321598262
1.368,1.8067327641511495,6268.42037885472
1.372,1.794962010286887,6284.560337027482
1.376,1.7793893929817919,6282.538433815275
1.38,1.7613342088034813,6287.712929052656
1.384,1.7423028918544547,6296.72520330075
1.388,1.7237634447776538,6302.897943723385
1.392,1.7070607588492992,6312.955458491493
1.396,1.6933140925879553,6321.90264966512
1.4,1.683279476450588,6322.333513397541
1.404,1.6772384255289674,6323.97960257946
1.408,1.6748908953007293,6332.006267638285
1.412,1.6751982646624746,6339.812222073105
1.416,1.6762697437819971,6350.627084530985
1.42,1.675508378780536,6343.828359768316
1.424,1.6701121001500336,6350.887326323522
1.428,1.6577668633595772,6358.1948521494205
1.432,1.6372418444445553,6364.679163590752
1.436,1.6086870012189358,6367.20249203479
1.44,1.5735985937385044,6374.013495824647
1.444,1.5345080854780053,6369.504896446229
1.448,1.4944640469278176,6375.247094155253
1.452,1.4563994196351386,6387.703822179341
1.456,1.4225358122707061,6382.3724201258265
1.46,1.3940085548101058,6396.948030604417
1.464,1.3708092726052534,6407.508405437356
1.468,1.351947080946059,6394.528358024707
1.472,1.335607879767616,6411.531986251291
1.476,1.319218274050698,6398.678071770417
1.48,1.2996110408747168,6415.004223107199
1.484,1.2736258122776292,6422.603976267805
1.488,1.239219911844562,6420.425554996276
1.492,1.1966509898849644,6414.427622601583
1.496,1.1489985680192787,6431.254676399534
1.5,1.1015467972317345,6430.032554251848
1.504,1.0601912017958703,6441.150151637919
1.508,1.029593626563563,6434.471726836704
1.512,1.0119351154085912,6442.189104839176
1.516,1.006744587232636,6439.450261879568
1.52,1.0116513804039975,6451.453927352133
1.524,1.0234570282203297,6449.039566564787
1.528,1.038954710245063,6444.637613225585
1.532,1.055297912861905,6444.242045323173
1.536,1.0700064878373154,6456.530812546491
1.54,1.080741931534251,6466.664008065873
1.544,1.085005098795661,6460.5481170571165
1.548,1.0800305182495622,6472.212951611268
1.552,1.0631726078686525,6467.908496410981
1.556,1.0328381145294703,6471.810452378557
1.56,0.9896590136615016,6469.240175369488
1.564,0.9373658723981426,6477.625480461453
1.568,0.8828192649380733,6477.848171461586
1.572,0.8348878283713274,6488.422840564402
1.576,0.8023014851690871,6492.405000612884
1.58,0.7911307265164635,6481.536984372061
1.584,0.8028481061715136,6486.500669313961
1.588,0.8337326400571792,6497.289368848777
1.592,0.8757653690455237,6489.372060317595
1.596,0.9185783221740188,6490.134755961137
1.6,0.9517828465685766,6495.139827683438
1.604,0.9670651833963522,6498.066003376383
1.608,0.9596340003295828,6495.078399792561
1.612,0.9288427197889602,6504.902980828078
1.616,0.8779893587671117,6501.9902031416295
1.62,0.8133878372652953,6507.631113659684
1.624,0.7429218187449744,6510.031254163766
1.628,0.6744616729509395,6510.71338200789
1.632,0.6145674555273348,6512.331424561439
1.636,0.5677273170530834,6506.0902447093495
1.64,0.5361649604660667,6506.302935776082
1.644,0.5201434188747047,6509.386994104419
1.648,0.5186130273569801,6518.333343127726
1.652,0.5299084964890625,6519.834338643239
1.656,0.5521285189312655,6521.239028747967
1.66,0.5830159736400098,6521.243914234055
1.664,0.6195283247610855,6517.556497212045
1.668,0.6575471972852427,6518.594061220556
1.672,0.6921038757007664,6522.286397250951
1.676,0.7181610533061167,6527.148699427762
1.68,0.7316456049688944,6530.975537635806
1.684,0.730291569783777,6535.790135221218
1.688,0.7139896157402906,6533.343575712431
1.692,0.6846326611383139,6529.046519026116
1.696,0.6456721683240023,6533.542878810103
1.7,0.601603174800463,6533.695802659708
1.704,0.5574292761534237,6534.138381540816
1.708,0.5180208164377095,6532.07097064368
1.712,0.4873243571529509,6546.512280354851
1.716,0.4675669412768301,6541.58560595913
1.72,0.45874983693984417,6543.626990062173
1.724,0.4587093827755772,6537.9279359409575
1.728,0.4638235836226736,6541.211044224456
1.732,0.47016241711653267,6538.835598265253
1.736,0.4746698507732165,6550.4813335807685
1.74,0.4759281242253141,6544.948969026218
1.744,0.4742185234018863,6555.018610709992
1.748,0.47092913789775626,6536.552614988977
1.752,0.46770466664130605,6557.985232559083
1.756,0.4658167563515019,6547.587399862833
1.76,0.465978813665116,6545.476547113269
1.764,0.46849760798607415,6549.298435506453
1.768,0.4735238893723581,6551.069282879912
1.772,0.4812222570282281,6567.371292416627
1.776,0.49176868318266104,6559.826489816926
1.78,0.5051571671556176,6550.781518490348
1.784,0.5208893025137467,6562.105750474055
1.788,0.5377213688386392,6561.03598407722
1.792,0.5536943892961049,6562.8740654367175
1.796,0.5665917392526943,6557.725757426014
1.8,0.5747249052637913,6560.484419418515
1.804,0.5776829852344684,6555.601177530016
1.808,0.576627848815431,6557.191423330867
1.812,0.5739430509690545,6562.2160249636245
1.816,0.5723930225476123,6556.500578126797
1.82,0.5741907050730137,6567.530481200535
1.824,0.5803613591127393,6555.402030716229
1.828,0.5905643569899173,6567.7028857859805
