时间(s),电压(V),幅值(高频80K)
0.0,-1.301723136093678,5900.742197219077
0.004,-1.2604280146592004,5897.282508166938
0.008,-1.2261411539728926,5895.134480618338
0.012,-1.204063504113028,5893.481770007462
0.016,-1.1963655803373123,5896.006805603
0.02,-1.2018160505539333,5902.421263834392
0.024,-1.216288643756948,5899.527402031951
0.028,-1.2339832195004559,5900.36092183233
0.032,-1.2490842590078888,5902.609976547423
0.036,-1.2574026149394488,5897.111420897051
0.04,-1.2574573295067326,5897.453142204252
0.044,-1.2506356557277116,5889.931113710203
0.048,-1.2404539059336808,5904.777967427459
0.052,-1.2312719985018368,5900.696100115703
0.056,-1.2269420415012702,5905.950473418095
0.06,-1.2298272096737972,5892.003607406522
0.064,-1.2404452300862854,5892.054948003326
0.068,-1.2577136018196828,5907.295750722588
0.072,-1.279552551200104,5902.4198636175615
0.076,-1.3035486691952456,5901.604825821068
0.08,-1.3274530732880494,5895.561286513927
0.084,-1.3494230949203527,5900.939583330962
0.088,-1.3680819807917348,5894.117386683831
0.092,-1.382549939697415,5905.022018474951
0.096,-1.3924900886473164,5899.069306132064
0.1,-1.3980382308838502,5903.139338031246
0.104,-1.3995037680571287,5898.73637847554
0.108,-1.3969771395685762,5907.601673106707
0.112,-1.3901657962925533,5898.270647170321
0.116,-1.3786418920550956,5909.140169051261
0.12,-1.3623309945209707,5905.197563997302
0.124,-1.3418664065038663,5894.9961036261
0.128,-1.3185828009114444,5891.538727049522
0.132,-1.2942440954292387,5907.0495781445225
0.136,-1.270737328234268,5893.967322619016
0.14,-1.2498191871406281,5901.294154333999
0.144,-1.232844717420046,5907.732989592812
0.148,-1.220478044361782,5904.713656349626
0.152,-1.2125562579105127,5911.601661486876
0.156,-1.2082729647859025,5895.065761989256
0.16,-1.2066420027533524,5894.848168646235
0.164,-1.2070255367927272,5904.845008958292
0.168,-1.2095185674983442,5903.224144618032
0.172,-1.2150779739832436,5900.499058642396
0.176,-1.225326136905731,5902.257080483527
0.18,-1.2419926187571835,5897.00231530045
0.184,-1.2660958760247254,5897.705758303764
0.188,-1.2971395571575697,5892.841555449527
0.192,-1.3326297010540504,5899.028578905652
0.196,-1.3681010114270586,5903.180810035025
0.2,-1.3977031083787415,5899.769824526844
0.204,-1.4152832039666146,5890.170837413086
0.208,-1.4157687088353539,5895.797159211164
0.212,-1.3965304960503537,5899.720143050239
0.216,-1.3583553742086865,5900.251986546941
0.22,-1.3056786431025897,5902.269050815101
0.224,-1.2458680487661726,5895.5624987878
0.228,-1.187692396806264,5896.863914253383
0.232,-1.1395091348396833,5905.558242695531
0.236,-1.1077943181387395,5893.133402462417
0.24,-1.0963001623129311,5904.359080343491
0.244,-1.1057243840775768,5892.544474372509
0.248,-1.1336993821699126,5902.716613328306
0.252,-1.1751152852679807,5903.345242871917
0.256,-1.2229389421144903,5890.887029874482
0.26,-1.269558369716982,5908.229898512087
0.264,-1.3083623272002092,5897.294807304735
0.268,-1.335043679532895,5893.066730626649
0.272,-1.3481889601413222,5905.375791185004
0.276,-1.3490140332178786,5903.848933446308
0.28,-1.340410294119946,5903.426363162981
0.284,-1.325660339584347,5894.822462652717
0.288,-1.307280409553796,5899.985455613266
0.292,-1.286432465391845,5902.983513511871
0.296,-1.2631372579565763,5896.994263905572
0.3,-1.2371385159623105,5899.1506256933735
0.304,-1.2089459241619183,5890.509537097118
0.308,-1.1805350148841478,5898.740610872404
0.312,-1.1553785402273058,5894.615913855126
0.316,-1.1377510500272754,5896.713882351295
0.32,-1.1314930277734474,5898.441895510889
0.324,-1.1386529154933034,5901.722698629988
0.328,-1.1585847587124638,5908.7866090197285
0.332,-1.1879808375410785,5903.365187748312
0.336,-1.221877923937445,5908.68216201804
0.34,-1.255134526165234,5896.990659998357
0.344,-1.2836486342568878,5903.019482206424
0.348,-1.3048528473400434,5900.698309591432
0.352,-1.3175623693893628,5894.886345156973
0.356,-1.3216405735739214,5903.666313012872
0.36,-1.3179094237701703,5905.84036806103
0.364,-1.3083472814726282,5894.267190394346
0.368,-1.2962507894718058,5907.672808935099
0.372,-1.2859977784236831,5901.159572308681
0.376,-1.2822962394891475,5896.938666959155
0.38,-1.2890787515038014,5894.409302089234
0.384,-1.308351472670335,5892.466379903624
0.388,-1.3393555825537125,5891.657877848754
0.392,-1.3783604657675088,5909.795978362329
0.396,-1.4192466105276318,5896.086290049254
0.4,-1.454782991139079,5901.619734550589
0.404,-1.478268553089159,5900.048757913178
0.408,-1.4850900483890785,5891.065812001574
0.412,-1.4737811705058754,5892.690596928994
0.416,-1.446325621444923,5907.477247531368
0.42,-1.4076780803051945,5901.0913789734
0.424,-1.3646982835141301,5903.578565965594
0.428,-1.3247973253152847,5909.499328251231
0.432,-1.2945529136457772,5905.071109060516
0.436,-1.2784733660188206,5898.391495699138
0.44,-1.2780975714572702,5901.41818751715
0.444,-1.2916683975532903,5898.200713111931
0.448,-1.314560527639493,5902.874329230574
0.452,-1.3404247981723227,5895.823022305998
0.456,-1.3627478142455658,5892.96273808073
0.46,-1.3763848595545798,5899.543872890385
0.464,-1.3786592227874264,5902.322420779093
0.468,-1.3697603087978438,5899.526825484824
0.472,-1.352349070949874,5895.851558114975
0.476,-1.3305033199168597,5895.100993440487
0.48,-1.3083953889991162,5904.036513560543
0.484,-1.2892361461020272,5897.20979608724
0.488,-1.2748551210966113,5902.863284769649
0.492,-1.2658709731368658,5900.367984262569
0.496,-1.2620731934257636,5910.723902077068
0.5,-1.262653215362999,5895.353371904526
0.504,-1.2662081383098183,5894.971775883223
0.508,-1.270703346158475,5910.387552215983
0.512,-1.2736513245596588,5900.051785480829
0.516,-1.2726721453968493,5898.960158598648
0.52,-1.2664070068207662,5896.940435298972
0.524,-1.2554844709370492,5912.256294906961
0.528,-1.2430134707601688,5908.973684654211
0.532,-1.2341263784017464,5892.690151085425
0.536,-1.2344958459638409,5889.947917876598
0.54,-1.2482869116441055,5899.3223997979685
0.544,-1.2763651100749935,5903.352289053011
0.548,-1.315557060512415,5908.236480464911
0.552,-1.359328605955233,5899.194824898611
0.556,-1.3996147816073317,5900.124383688086
0.56,-1.4290776005756993,5901.382645115604
0.5640000000000001,-1.4430279075451455,5902.042342887962
0.5680000000000001,-1.440532312400328,5904.307859585806
0.5720000000000001,-1.4245391301288985,5903.865718685823
0.5760000000000001,-1.4010264567394537,5900.930872702321
0.58,-1.3772984745398416,5899.0415331493
0.584,-1.3598006445879434,5902.633874048542
0.588,-1.352135296818868,5909.347274009702
0.592,-1.3540543176597506,5896.382426952733
0.596,-1.3618754376502051,5899.34022654519
0.6,-1.370130599743061,5900.391888531296
0.604,-1.3737097758314414,5904.192158730583
0.608,-1.3696651228650172,5904.195133320514
0.612,-1.3581546975800451,5897.614644387383
0.616,-1.3423829509999587,5901.918646603702
0.62,-1.3276278059629005,5895.451749682861
0.624,-1.319643782196963,5896.959485764945
0.628,-1.3229725705160416,5887.643023808322
0.632,-1.3397584638785323,5899.8640051675975
0.636,-1.3693728074112008,5906.625520686265
0.64,-1.408721378899634,5897.0441582858575
0.644,-1.4529180354725915,5903.048106110605
0.648,-1.4961145082546405,5904.051821450741
0.652,-1.5324437584632535,5891.560473847229
0.656,-1.5570545528264874,5894.351447022169
0.66,-1.5670594167959968,5905.584552063057
0.664,-1.5620603937649113,5904.98083608242
0.668,-1.5439931831224893,5905.876665255813
0.672,-1.5163404884402394,5901.033447717062
0.676,-1.4830605517170117,5896.620792813508
0.68,-1.4476737294994138,5900.728868143683
0.684,-1.412842229020141,5892.762017067807
0.6880000000000001,-1.3805065288575253,5901.453914649185
0.6920000000000001,-1.3523067038778704,5898.698097520876
0.6960000000000001,-1.3298318098925301,5891.709038896083
0.7000000000000001,-1.314366701137799,5891.854851225697
0.704,-1.306173627230217,5901.29056818202
0.708,-1.3037337747039546,5896.482664473835
0.712,-1.3035751247816456,5899.22615902025
0.716,-1.3011693996427025,5910.966776214181
0.72,-1.292833254120649,5898.921746652771
0.724,-1.2778501329303527,5892.910010087235
0.728,-1.2596549171906612,5893.883703280775
0.732,-1.2452588793535464,5889.533457399711
0.736,-1.2429649804021639,5900.423743322626
0.74,-1.2592779804801404,5898.729482916443
0.744,-1.296285928621656,5905.75635324361
0.748,-1.350559816253553,5908.138344425759
0.752,-1.4139515236991993,5900.525040984211
0.756,-1.475897623009467,5895.352276190784
0.76,-1.5263232778338611,5899.131665904504
0.764,-1.5581703493507804,5902.075537752212
0.768,-1.5688588334708007,5898.112593830929
0.772,-1.5604259101239373,5903.1368317643455
0.776,-1.5384949115576885,5896.942024481535
0.78,-1.51049255928507,5899.078453613233
0.784,-1.4836389288881895,5903.329235412667
0.788,-1.4632295141063543,5902.658632742974
0.792,-1.4516343631874196,5897.7757719210695
0.796,-1.4482401061017418,5898.449764478552
0.8,-1.450266035734109,5908.604554313271
0.804,-1.454075398573387,5897.267555469943
0.808,-1.456421421893356,5905.964247101775
0.812,-1.455141569255078,5894.535272502225
0.8160000000000001,-1.4491418262091402,5892.437820831018
0.8200000000000001,-1.4379167455892339,5900.990226641816
0.8240000000000001,-1.4210734260226054,5899.02853887832
0.8280000000000001,-1.3982449390610807,5900.530109185119
0.8320000000000001,-1.369495419581668,5897.680792125617
0.836,-1.336020201655997,5902.090925336421
0.84,-1.3007411180297797,5899.911015181719
0.844,-1.2683533415187682,5897.138530529472
0.848,-1.2445540012556726,5901.657728537268
0.852,-1.2345431286360178,5903.330902802329
0.856,-1.24126606436087,5898.423280700605
0.86,-1.264072769745367,5896.931575622502
0.864,-1.2983982822667839,5899.093136684089
0.868,-1.3367038697128963,5903.710229821445
0.872,-1.3703898186524512,5894.768859070199
0.876,-1.3919921478418842,5895.242221871837
0.88,-1.3969357168232648,5897.780256146272
0.884,-1.3843792912165709,5908.509815943324
0.888,-1.3570260732058574,5898.621408739372
0.892,-1.3200491491434991,5892.019099057287
0.896,-1.2795091994917756,5904.329337474485
0.9,-1.2408073625565852,5905.944851658966
0.904,-1.2076824417894747,5896.340077296944
0.908,-1.181974082546539,5897.807921803472
0.912,-1.1640287962195421,5892.966518173052
0.916,-1.1534460646268294,5903.711656665075
0.92,-1.1498326228636988,5896.9487291240575
0.924,-1.1532507546802662,5898.86009523537
0.928,-1.1641428674037209,5902.524071582573
0.932,-1.182745306444628,5890.842693694648
0.936,-1.2082767324772081,5907.675818379066
0.94,-1.2383369058696958,5906.531742415416
0.944,-1.2688977975586804,5898.576416353977
0.948,-1.2950369725553053,5900.145689948992
0.952,-1.312250273676879,5898.36137235651
0.956,-1.3179199443002927,5901.138364986541
0.96,-1.31241614564925,5891.932757825983
0.964,-1.299403668761714,5893.517282826389
0.968,-1.2851608289639338,5907.04596150964
0.972,-1.277009330906191,5894.245655388632
0.976,-1.281231942210485,5892.441840988728
0.98,-1.3010758628861847,5903.313061692163
0.984,-1.3355369430820552,5904.727315011476
0.988,-1.379475866497733,5887.728084316404
0.992,-1.425170359353585,5902.563412265427
0.996,-1.464794532377446,5900.006164169182
1.0,-1.4928499746983612,5898.067094587935
1.004,-1.507545644864157,5906.810365344743
1.008,-1.5106057200748702,5905.842535443265
1.012,-1.5057412251482971,5890.069300262965
1.016,-1.4966283721988523,5904.723373156076
1.02,-1.48536423087094,5896.993990008507
1.024,-1.471992846944623,5896.283736907017
1.028,-1.4550811684103788,5906.714539931443
1.032,-1.4328630169253131,5903.979833346242
1.036,-1.4043903160354234,5896.600728773415
1.04,-1.3703243011766435,5907.115076920918
1.044,-1.3331978108866993,5900.343723743289
1.048,-1.2970879609555197,5904.319956590003
1.052,-1.2667558844233529,5902.623952283621
1.056,-1.2464866833698314,5904.900843891973
1.06,-1.2389925744346064,5900.395986449992
1.064,-1.2447018607601024,5905.37850164848
1.068,-1.261570725349587,5907.200751044637
1.072,-1.2853898313788161,5900.300348109748
1.076,-1.3105233444842221,5905.589087614748
1.08,-1.3310201743056247,5901.961844107756
1.084,-1.341927380586312,5894.879385073926
1.088,-1.3404705104810024,5904.9307430276
1.092,-1.326748219043135,5891.489658357549
1.096,-1.3037635545912196,5907.906218520509
1.1,-1.276824321254198,5909.35735643353
1.104,-1.2524738333722516,5901.597307253311
1.108,-1.2371644793087835,5896.3901623368765
1.112,-1.2358797436182631,5894.082010424607
1.116,-1.2508958142337279,5897.19888045081
1.12,-1.280932933984358,5900.10716928391
1.124,-1.321027606444724,5896.844038304061
1.128,-1.3633753412673446,5903.998970845368
1.132,-1.3990909043098219,5901.326283553205
1.136,-1.4204530423022763,5891.39888472319
1.14,-1.4229292182153155,5904.919105032184
1.144,-1.4062710979655522,5894.172588168887
1.148,-1.3743061903992064,5897.649881355912
1.152,-1.3335776222981959,5911.559185414548
1.156,-1.2914089665484885,5910.137455947631
1.16,-1.2541053902604042,5901.838422422031
1.164,-1.2258460928402053,5903.528516558992
1.168,-1.2084791342390513,5900.239490283203
1.172,-1.2020426530517896,5890.790449484358
1.176,-1.2055733023612867,5895.923307536326
1.18,-1.217750036870717,5895.148258268563
1.184,-1.2371368239259888,5899.385480450024
1.188,-1.2620646480223658,5899.478169799983
1.192,-1.2903857897254545,5900.427146391212
1.196,-1.3193954542323376,5901.777223305094
1.2,-1.3461182724474485,5897.254241501961
1.204,-1.367918549477493,5899.210643808492
1.208,-1.3831735655331912,5904.10658574311
1.212,-1.3917126769934023,5899.051883530302
1.216,-1.3948578820889725,5898.949293675878
1.22,-1.395078090511057,5897.47851133882
1.224,-1.3953815581005973,5901.047065740356
1.228,-1.3985698618611873,5895.415734029875
1.232,-1.4064193486834067,5890.337641710637
1.236,-1.4188853942562738,5895.293418494122
1.24,-1.4335850181687324,5904.106910274133
1.244,-1.4459248155616664,5906.194674613548
1.248,-1.4500837091168322,5908.819716392721
1.252,-1.4406709378388274,5904.452540546176
1.256,-1.4145443822453942,5898.432542722177
1.26,-1.372193178518773,5896.18744243948
1.264,-1.318197344416805,5899.10471362493
1.268,-1.2604739432625598,5905.1175845232765
1.272,-1.2083673063888616,5903.146615851323
1.276,-1.1701382321535883,5897.982565928105
1.28,-1.1507494156042346,5903.9544025511705
1.284,-1.1507229091872309,5902.115806526111
1.288,-1.166351629756616,5902.913147056385
1.292,-1.1910412340633367,5896.129040838211
1.296,-1.2172870102948519,5909.46111520947
1.3,-1.2387497253107955,5906.874605081313
1.304,-1.251929944887677,5905.766898437926
1.308,-1.2569676338706446,5896.1429738086445
1.312,-1.2572422717463658,5897.758411153927
1.316,-1.2578476239315335,5898.685823360878
1.32,-1.2635128204050454,5898.533716547046
1.324,-1.2768097765369784,5899.577660215191
1.328,-1.2973290945438445,5908.832176415122
1.332,-1.3220146360013876,5888.932192829101
1.336,-1.346331033032039,5899.736960694423
1.34,-1.365673678689531,5898.06417878743
1.344,-1.3764915866547613,5902.95369158552
1.348,-1.3769150695439936,5907.179365306535
1.352,-1.3670803093092292,5903.223439656484
1.356,-1.349503796013934,5905.217942047721
1.36,-1.329589947885324,5904.01971119941
1.364,-1.3158726733496335,5897.543249142566
1.368,-1.3192997672948321,5896.614615219825
1.372,-1.350968569264835,5902.637860676562
1.376,-1.4182218491740868,5904.174136317097
1.38,-1.5198074457691224,5899.256984084159
1.384,-1.641542758112516,5909.720151415702
1.388,-1.7541795257808903,5894.348040320116
1.392,-1.8148381939317584,5898.536300179764
1.396,-1.7726667739247195,5902.483533927245
1.4,-1.5784197049432982,5905.779413697543
1.404,-1.1965063305266586,5894.913427996136
1.408,-0.6168708628610188,5901.827656562269
1.412,0.13685556006612198,5892.970635364764
1.416,1.0065879431056683,5903.267830923314
1.42,1.9085637437441778,5886.857050212177
1.424,2.750458113461582,5902.230032598054
1.428,3.4517477775005663,5919.998520822316
1.432,3.9604076965046398,5940.789933995052
1.436,4.260719758721408,5950.127071702712
1.44,4.370956542145243,5969.955644195721
1.444,4.333418768343091,5988.267367960979
1.448,4.201135807034656,5992.11024391812
1.452,4.025402684731153,6017.605757877559
1.456,3.8469582159441,6025.931229216805
1.46,3.691856264817248,6033.117520901251
1.464,3.571584169776192,6060.629915998238
1.468,3.486071538298235,6075.460484987452
1.472,3.4279667790075328,6073.926855271915
1.476,3.386808446113339,6101.030562582362
1.48,3.3522497124654693,6120.229198902301
1.484,3.3160493391697203,6112.5370755184085
1.488,3.272943244125407,6133.059788143561
1.492,3.220708133776341,6147.39644273156
1.496,3.1597518126787714,6161.159728215589
1.5,3.0924684869084023,6164.507890593965
1.504,3.022464199985451,6171.440337395328
1.508,2.953689566162463,6191.044271787757
1.512,2.889567905400995,6204.304988867095
1.516,2.8323101936215065,6222.962260606086
1.52,2.782623885338156,6222.951012105469
1.524,2.739896402313329,6228.280445174658
1.528,2.702747968577283,6239.348226012911
1.532,2.6696967060340073,6248.825626466976
1.536,2.6396242693291723,6268.21654397438
1.54,2.611851573409705,6263.969880099423
1.544,2.5859027618943906,6287.146370890223
1.548,2.561225776627957,6291.992731642765
1.552,2.5370751715251285,6306.670064330308
1.556,2.512548113696962,6305.5627398317765
1.56,2.486638440919827,6319.652848946978
1.564,2.458252200777239,6327.939038987043
1.568,2.4262792958716193,6329.622929772297
1.572,2.3898117074360257,6342.934729113423
1.576,2.348425534557873,6346.259760432706
1.58,2.302325070484345,6347.143198289637
1.584,2.2522385984396682,6357.189810841268
1.588,2.199170784799381,6368.326448616779
1.592,2.1442316574224125,6393.105476491999
1.596,2.0886509140875607,6387.660767221455
1.6,2.033882102509439,6390.849430208043
1.604,1.9816329923611562,6404.41309209643
1.608,1.93372878509039,6413.0815786255625
1.612,1.891761768996832,6416.749670235647
1.616,1.8565154228336143,6414.867346860088
1.62,1.8273163903547154,6421.81908613509
1.624,1.8016987651880638,6431.513694216385
1.628,1.7757891513066186,6439.302866153209
1.632,1.7454986634721301,6439.295891001244
1.636,1.7081022908179755,6446.975482814524
1.64,1.6634325190955197,6443.9367826346015
1.644,1.613996301426187,6460.41494691504
1.648,1.563869610181203,6464.1806076276125
1.652,1.5169135709856563,6467.45044073266
1.656,1.475220057300105,6484.389115635822
1.66,1.4385079564825611,6493.017180543935
1.664,1.4046431747159913,6478.246927208597
1.668,1.3709040068870397,6494.224247876748
1.672,1.3353154121116564,6493.872412944618
1.676,1.297447836858507,6507.367895238247
1.68,1.2584636109315024,6505.177792569658
1.684,1.2206199386137908,6503.328009348041
1.688,1.1866068084521597,6509.721478557614
1.692,1.15898223557709,6520.875489549699
1.696,1.1397648120926838,6515.153789675632
1.7,1.1301237409399167,6534.753115125353
1.704,1.1301056292502354,6528.980464998862
1.708,1.1384241206899075,6536.541558968229
1.712,1.1524361662617284,6538.98689512106
1.716,1.1684208804719114,6546.6414252263385
1.72,1.1821402211165999,6551.981013450053
1.724,1.189527152621813,6546.118536007328
1.728,1.1873222362106708,6553.829688914326
1.732,1.1735388403697582,6568.370178717621
1.736,1.1477317104483964,6566.07666076292
1.74,1.1111214350430654,6580.972770867266
1.744,1.0666132500720635,6568.206319188016
1.748,1.0186530747230251,6582.973314546623
1.752,0.9727881724522935,6578.251178074443
1.756,0.9348115621884991,6575.167852872654
1.76,0.9095006835571897,6581.342267463986
1.764,0.8992275234277285,6580.746600586426
1.768,0.9029981040492594,6589.611837530023
1.772,0.9165105265483634,6589.584562630447
1.776,0.9334465268518203,6592.056990515709
1.78,0.947589196334362,6604.0731133824975
1.784,0.9548770876647877,6597.615329865249
1.788,0.9544949790439042,6611.007761419772
1.792,0.9485858819243853,6613.388214321153
1.796,0.9408391967459409,6599.151559754704
1.8,0.9346727807544538,6607.188481921208
1.804,0.93178908206925,6615.5571589061
1.808,0.9316242368272891,6623.29951388976
1.812,0.9318137357580139,6618.185536392664
1.816,0.929411435605061,6618.586524380944
1.82,0.9223113484694802,6626.790567501861
1.824,0.9102331484738725,6630.13421360744
1.828,0.8948227089302129,6617.597752209567
