时间(s),电压(V),幅值(高频80K)
0.0,-1.8843962869919544,5898.396594412391
0.004,-1.8846987466585285,5905.096259265959
0.008,-1.8813912471461003,5903.248755500372
0.012,-1.8719740358173844,5897.15845908627
0.016,-1.8560622495088925,5898.168245263616
0.02,-1.83567798467938,5900.782204359121
0.024,-1.8146710978019747,5898.555040589812
0.028,-1.7973903675205132,5896.528232871016
0.032,-1.7871232477871049,5894.021221850634
0.036,-1.7849593832851738,5894.538359913766
0.04,-1.7895061111061448,5895.938794067306
0.044,-1.7974801467617234,5899.248111477871
0.048,-1.8048781403987444,5899.977647067539
0.052,-1.8082963263851826,5908.494081854666
0.056,-1.8059832937882578,5906.934568060332
0.06,-1.7983169901592966,5900.767807709234
0.064,-1.7875988355037387,5902.209325425898
0.068,-1.777312293465166,5897.1357980795165
0.072,-1.7711459873965651,5902.086762970072
0.076,-1.7720328405083259,5902.564363160586
0.08,-1.7813275388252734,5900.832085699966
0.084,-1.7982248281424484,5897.894740191198
0.088,-1.8196119732277958,5905.992009638648
0.092,-1.840564243564543,5902.973986991679
0.096,-1.8554913916562654,5896.381518888761
0.1,-1.8596134846672896,5895.200332629243
0.104,-1.850241437301269,5898.529622428986
0.108,-1.8274287181435014,5901.636887692168
0.112,-1.7938629794166832,5904.026727770172
0.116,-1.7541525154870035,5901.832526027342
0.12,-1.7137824149558107,5902.665855509321
0.124,-1.678002059305585,5898.134342622903
0.128,-1.6508789828897716,5904.375101861113
0.132,-1.6347279062341182,5897.591725494546
0.136,-1.6299992282825528,5906.011254696799
0.14,-1.63550980846144,5902.926385745493
0.144,-1.6488241329595126,5898.263411139807
0.148,-1.6667312667389849,5900.169938850293
0.152,-1.6858962706642269,5904.612613349301
0.156,-1.7036679456302348,5895.307569264442
0.16,-1.7187966552466292,5910.509001589711
0.164,-1.7317391946881384,5898.800537585718
0.168,-1.7443887242281568,5895.3696897547325
0.172,-1.759298795152336,5894.894867294615
0.176,-1.778610900342724,5906.774059147739
0.18,-1.8029466748699163,5905.584670059987
0.184,-1.8305681034934569,5899.769713781788
0.188,-1.857155837901969,5901.209049646754
0.192,-1.8764961377088583,5901.684934784268
0.196,-1.8820799033929045,5901.143974980224
0.2,-1.869181102100402,5905.711094709485
0.204,-1.836668745819444,5896.284898165277
0.208,-1.787840701863465,5906.518235715632
0.212,-1.7299525957637611,5904.893963504304
0.216,-1.6726334561073,5897.493077262099
0.22,-1.625744206848817,5899.915773613925
0.224,-1.5973175744571577,5901.4507837602
0.228,-1.5920940066384028,5898.263538417266
0.232,-1.6109460932848632,5903.172475965397
0.236,-1.651198733840857,5899.251857705026
0.24,-1.7075383371582271,5898.881503672589
0.244,-1.7730233487770404,5897.824396442035
0.248,-1.8398621817990186,5901.588379077918
0.252,-1.900011566748217,5896.954563770763
0.256,-1.9458550039771356,5907.088857467094
0.26,-1.9710708864744977,5896.007211512419
0.264,-1.971570312886764,5907.267850049353
0.268,-1.9463104416457893,5906.505091171548
0.272,-1.897781480211237,5906.837329326179
0.276,-1.8319441302883133,5899.315981325443
0.28,-1.7574782524489965,5903.326254041214
0.284,-1.684447770264406,5899.937868445271
0.288,-1.6227192163043416,5907.80934333409
0.292,-1.580493661131647,5903.4795203087015
0.296,-1.563134961426375,5896.356462781111
0.3,-1.5723093596782354,5894.87930457085
0.304,-1.605483818109932,5897.324780566461
0.308,-1.6560278562374522,5912.017688618237
0.312,-1.714262725733356,5903.923580632888
0.316,-1.7695428321518796,5904.762556798393
0.32,-1.8128669423022412,5905.403077266015
0.324,-1.8390159464647209,5900.97473205439
0.328,-1.8473093109511485,5900.965062972009
0.332,-1.8408220645569333,5902.413126488165
0.336,-1.8247354569728598,5904.882444195025
0.34,-1.8047533107656972,5904.59009739764
0.344,-1.7861145148210797,5899.052657438463
0.348,-1.7731204159654792,5886.496987036178
0.352,-1.7687711402608919,5898.553269266664
0.356,-1.7742515804599024,5899.05787796481
0.36,-1.7884168075397835,5898.890410817575
0.364,-1.8076891638394166,5902.696655614376
0.368,-1.8266699533069206,5895.508897856272
0.372,-1.8394124297525336,5903.515339002671
0.376,-1.8409572074559475,5900.6486929272805
0.38,-1.828579650778771,5897.73180611224
0.384,-1.802340320871163,5902.21885492563
0.388,-1.7648978749675226,5902.336818971098
0.392,-1.7208487305403457,5896.015026367776
0.396,-1.675875761298592,5900.229369225601
0.4,-1.6358452195232691,5894.158738100546
0.404,-1.6059306005661822,5895.188963486112
0.408,-1.5898718194936263,5901.875247155244
0.412,-1.58947096929075,5896.39367509065
0.416,-1.6043755419603407,5900.010024951618
0.42,-1.632160380138682,5893.976568799009
0.424,-1.6686761845850389,5902.337983559893
0.428,-1.7085880524597865,5895.671648058213
0.432,-1.7460463351158773,5905.937424841201
0.436,-1.7754870841227282,5900.800389216627
0.44,-1.792515967834801,5906.916271418729
0.444,-1.7946876219173515,5896.068405271034
0.448,-1.781947575247525,5895.078335294174
0.452,-1.7566544712115688,5902.188368047971
0.456,-1.7232864863683799,5904.977800286085
0.46,-1.6879636137852203,5891.485780026863
0.464,-1.6577903545722203,5898.126231238372
0.468,-1.6399009292634958,5900.493389756835
0.472,-1.640118467579216,5892.247528409049
0.476,-1.6613591254924465,5899.865940906954
0.48,-1.7022307018204674,5896.967474051157
0.484,-1.7564816479860343,5908.282741940149
0.488,-1.813831906816937,5898.289604466462
0.492,-1.8622295983001702,5894.194223570137
0.496,-1.8909399563776552,5902.786285749561
0.5,-1.893420191300456,5898.8335701883325
0.504,-1.8689439780604744,5911.369693433267
0.508,-1.8224552162952878,5893.939312714758
0.512,-1.762890769475413,5897.718030401177
0.516,-1.7007920097953895,5895.908632907826
0.52,-1.646105167857525,5891.905981211384
0.524,-1.6066642874442025,5903.143308523954
0.528,-1.5873283730858943,5903.525525540472
0.532,-1.5895259391775851,5899.669247253319
0.536,-1.6111237216395644,5897.684775145878
0.54,-1.6467933649654507,5904.155353202057
0.544,-1.6890852631228006,5905.922980125508
0.548,-1.7301592213164259,5893.427648918177
0.552,-1.7637287843594187,5904.030105144277
0.556,-1.786535608085639,5903.416126716149
0.56,-1.7988240863252918,5895.434592555228
0.5640000000000001,-1.8037650242291885,5896.736804730448
0.5680000000000001,-1.8061860686204048,5904.081248183808
0.5720000000000001,-1.811034892263328,5902.58221681094
0.5760000000000001,-1.8218856586832846,5897.762587569001
0.58,-1.8397787509729435,5896.740182043444
0.584,-1.8627551130259554,5903.344337190804
0.588,-1.8863819640204884,5899.094498789012
0.592,-1.9052254370023158,5891.540402082269
0.596,-1.9147361909944405,5893.698261982793
0.6,-1.9127272817414434,5895.075022807317
0.604,-1.8998234463241788,5905.071941515683
0.608,-1.8788301156807306,5887.594213345788
0.612,-1.8534703184994323,5904.332970914318
0.616,-1.8270813586765293,5902.15172369372
0.62,-1.801735541853145,5899.976860320297
0.624,-1.7780338883744966,5907.605827369261
0.628,-1.7555628581762517,5897.628907241665
0.632,-1.733734375139053,5894.560755233993
0.636,-1.7125956773214588,5904.222658287409
0.64,-1.6932929587969017,5904.410742720138
0.644,-1.678095687841561,5902.335045209312
0.648,-1.6700532165881758,5899.423485792884
0.652,-1.6723848759661935,5900.234926195548
0.656,-1.6876626765916733,5895.056883483365
0.66,-1.716851795778991,5896.424353521783
0.664,-1.7583902269600717,5902.4809706933975
0.668,-1.8076521082188353,5901.819031802415
0.672,-1.8572033208533014,5901.455215260572
0.676,-1.8981081807262872,5907.862981670483
0.68,-1.9221691817391813,5901.918522581633
0.684,-1.9244865852436326,5902.118902015441
0.6880000000000001,-1.9053579638977802,5892.176902079575
0.6920000000000001,-1.8705898242486225,5901.525450129281
0.6960000000000001,-1.829861504244323,5893.366460295326
0.7000000000000001,-1.7936229140163755,5898.484550843522
0.704,-1.7696702792088803,5903.933386019577
0.708,-1.7606880230084554,5899.436230937668
0.712,-1.7636539952957044,5896.580449204988
0.716,-1.7712923217939873,5905.8790014288
0.72,-1.7749799081024793,5911.766253274656
0.724,-1.7679513820015256,5903.459443753778
0.728,-1.747592521555782,5900.725600408243
0.732,-1.716128271023896,5907.588163120619
0.736,-1.6797543182528067,5897.0333445809565
0.74,-1.6467438006803277,5900.204334262102
0.744,-1.62514685608798,5891.158631694325
0.748,-1.6206541398489471,5897.6698582758045
0.752,-1.6352033397522894,5894.887026933136
0.756,-1.6667945288713029,5896.331250600019
0.76,-1.710536977026317,5905.693618322315
0.764,-1.7603651835500915,5905.342887520544
0.768,-1.8105914631030633,5895.544456194309
0.772,-1.8567164524281903,5895.371946918388
0.776,-1.895455478664842,5902.661604002044
0.78,-1.9243645365696436,5899.755570782822
0.784,-1.9415655957088345,5901.571913403943
0.788,-1.9458973042025058,5896.128865020871
0.792,-1.9374726269586848,5901.160926765148
0.796,-1.9182851512589096,5913.1684550705495
0.8,-1.8923578715219587,5884.603680649758
0.804,-1.8650862483091648,5897.78650741836
0.808,-1.8418636039802878,5904.514032247829
0.812,-1.8265494384695486,5906.281001504107
0.8160000000000001,-1.8204842857143004,5895.461464196258
0.8200000000000001,-1.8224371971275806,5902.220199319384
0.8240000000000001,-1.8293692927329717,5901.6898409496935
0.8280000000000001,-1.8375719769039933,5909.052286233085
0.8320000000000001,-1.843699607518041,5898.232799626388
0.836,-1.845373534583695,5899.043302086287
0.84,-1.8413004008385034,5901.582550378178
0.844,-1.8311216651558648,5899.168405467347
0.848,-1.8152954149023202,5910.245411754725
0.852,-1.795103602944876,5899.318784891599
0.856,-1.7726039056735603,5899.047093007143
0.86,-1.7503257880260963,5909.63318336547
0.864,-1.7307432845146902,5897.986883130092
0.868,-1.7157670147192157,5898.081453853796
0.872,-1.706490155604725,5907.943789570033
0.876,-1.703231909999628,5908.309785905279
0.88,-1.705725770142971,5902.826434357419
0.884,-1.7132457281214781,5908.297301199591
0.888,-1.7245535623469144,5903.281639459825
0.892,-1.7377216868817584,5901.530893493817
0.896,-1.7500718546914313,5908.056113739159
0.9,-1.7585204198218236,5902.323817996593
0.904,-1.7604032913347452,5893.734535499754
0.908,-1.7544899098955276,5903.604364483884
0.912,-1.7416733123031138,5903.966200262452
0.916,-1.724897476961885,5902.967190144494
0.92,-1.7082268598939965,5904.516307111316
0.924,-1.6954269773234074,5897.377966322779
0.928,-1.6887141988548269,5898.908166827924
0.932,-1.6882193852053755,5890.512605349918
0.936,-1.692317663452894,5899.4513441641975
0.94,-1.69860082481759,5908.080374491028
0.944,-1.7050479372367775,5906.240522417828
0.948,-1.7108990371058281,5905.515391691992
0.952,-1.7168666856648955,5907.766511952505
0.956,-1.7245958151781464,5896.19326389643
0.96,-1.735605566249494,5903.077865917036
0.964,-1.7501989417918402,5898.562994069056
0.968,-1.7668989132424908,5901.120750799295
0.972,-1.7827961713647777,5906.729901941687
0.976,-1.794776556674657,5908.333949177071
0.98,-1.8010671543502856,5897.576863498333
0.984,-1.8022113705550995,5902.240291928824
0.988,-1.8007893550168668,5900.290025072741
0.992,-1.7999425873780062,5911.36173932254
0.996,-1.8015545586124566,5905.108413743619
1.0,-1.8051696215109092,5895.302228125127
1.004,-1.808242442343464,5889.92719387162
1.008,-1.807530808170778,5894.482691387522
1.012,-1.8009252446522659,5904.062627807204
1.016,-1.7889645755582917,5909.832841082955
1.02,-1.7755579832813102,5899.538949184487
1.024,-1.7677172868373536,5905.991926202344
1.028,-1.7742245929251468,5891.180622917949
1.032,-1.8032188365030766,5905.709460303326
1.036,-1.8589040449315433,5910.062991134161
1.04,-1.9380103149831027,5892.545436797434
1.044,-2.027039670359469,5904.139243182079
1.048,-2.1014033934195613,5903.101338934347
1.052,-2.127223506497576,5900.436979376976
1.056,-2.065993988409932,5907.557567585934
1.06,-1.881686107709328,5907.444435590119
1.064,-1.5492960659272441,5903.482047801656
1.068,-1.0631809923988516,5899.11160376496
1.072,-0.44282076456028335,5901.2981014541765
1.076,0.2666788324973461,5900.812110519987
1.08,1.0011304138282924,5892.034476341244
1.084,1.690131632172516,5905.473175276681
1.088,2.272450341215803,5916.094245699003
1.092,2.708614167156976,5925.094465754802
1.096,2.9866394201656465,5945.880896281106
1.1,3.119887510353996,5959.333341810081
1.104,3.1389701106881143,5969.778648722046
1.108,3.0812213440410194,5981.041100042655
1.112,2.9813084758693735,5999.387269805623
1.116,2.8653940463863106,6012.928813200566
1.12,2.749515735498714,6023.833385510175
1.124,2.6412953591550297,6038.182536890186
1.128,2.5433093381275347,6039.3968489309045
1.132,2.4564887587683217,6063.212021946773
1.136,2.382387795941164,6072.206336950977
1.14,2.323759708216793,6070.5269945567725
1.144,2.283556134847608,6090.990650255894
1.148,2.263107691734024,6105.992105286713
1.152,2.260535998939932,6110.692748415586
1.156,2.270210181969344,6132.004891919532
1.16,2.2835165739596914,6128.305482110724
1.164,2.2906993544087233,6141.783483279806
1.168,2.283172164292912,6154.419900412578
1.172,2.255527503997152,6160.760304274141
1.176,2.206595222234169,6160.181691333178
1.18,2.1393112544337343,6175.839820772041
1.184,2.059608740399658,6188.169214805329
1.188,1.9748185474778215,6201.648996516028
1.192,1.892112229562258,6208.8875125804
1.196,1.8173630496097104,6222.65548490673
1.2,1.7545499301312482,6215.00467255681
1.204,1.7056459342046437,6225.758006828161
1.208,1.6708511824595078,6244.722147367445
1.212,1.648978675536602,6250.499089054182
1.216,1.6378056868847528,6254.64314567853
1.22,1.6343385316116272,6260.112112596098
1.224,1.6351058749769671,6262.841372256971
1.228,1.6365920814993025,6278.480733524621
1.232,1.6357481577450166,6277.096932868331
1.236,1.6303972467116776,6287.3449173705085
1.24,1.6194041060922992,6289.591751059737
1.244,1.6025900309382954,6306.376435775926
1.248,1.5804403391753388,6307.473715722569
1.252,1.5536983372760693,6309.107322965879
1.256,1.5229803181402013,6317.17500465685
1.26,1.4885498367348948,6320.983263821459
1.264,1.4503748804555139,6333.112917134234
1.268,1.4085446073923382,6329.428658328423
1.272,1.3639440379706775,6333.566041031466
1.276,1.3188017156332918,6339.555177507649
1.28,1.2766042716228112,6349.007685092158
1.284,1.2411526987291561,6351.375099572514
1.288,1.2150967211347117,6364.595451922161
1.292,1.198693528836946,6371.316004745875
1.296,1.1894757986589501,6374.391789219679
1.3,1.1830717820761836,6376.821977076899
1.304,1.1749088386240503,6375.208964431599
1.308,1.1621632136715703,6384.842397120688
1.312,1.1451783715555075,6384.246949703838
1.316,1.127703722293305,6387.693794776269
1.32,1.1156912416362896,6396.13675514792
1.324,1.1149402872209102,6408.569900763905
1.328,1.1284200553295232,6414.81468197066
1.332,1.1543675822950776,6408.221434085364
1.336,1.1860608796693384,6416.016761523468
1.34,1.2135248849680145,6420.7182054538425
1.344,1.2266165020765338,6428.123713568695
1.348,1.2183393680135444,6428.580798237033
1.352,1.1871305380831352,6432.334139537568
1.356,1.1372811507486469,6437.363716608224
1.36,1.0774220956593044,6430.797154104649
1.364,1.017771762903933,6440.424358737646
1.368,0.9672442618492405,6449.846709483876
1.372,0.9314095803368079,6438.25104690616
1.376,0.9118086701276169,6449.121859514598
1.38,0.9065335972999969,6448.289450314616
1.384,0.9115759391345304,6457.54532493374
1.388,0.922370841172404,6463.815162642222
1.392,0.9351117044992785,6457.208147591522
1.396,0.947562338441565,6471.140561225852
1.4,0.9591943367985382,6475.958583283866
1.404,0.9706456508064925,6477.345554570473
1.408,0.982755967600721,6481.14013792132
1.412,0.995608017063552,6482.785213576541
1.416,1.0079380366624136,6482.948770840296
1.42,1.0170572320824471,6490.614798347603
1.424,1.0192564895172693,6484.817164161556
1.428,1.010617626194472,6492.462681938739
1.432,0.9881239442468578,6492.154022373052
1.436,0.9508599278558548,6500.150828444221
1.44,0.9009360936789294,6507.334919594248
1.444,0.8436853425172176,6502.861967212428
1.448,0.7868105630538135,6495.235836824352
1.452,0.7385760576600503,6502.388742545834
1.456,0.7056321794185233,6501.405462953227
1.46,0.691297909556697,6505.2041708117695
1.464,0.6949045472632291,6506.916286974069
1.468,0.7122750791659872,6511.919329230462
1.472,0.7369588402892968,6517.4222834538805
1.476,0.7617138229631538,6514.229867772849
1.48,0.7798595860450691,6515.185433313588
1.484,0.7863172072544168,6523.796513778873
1.488,0.7783011077281752,6516.347343555061
1.492,0.7556749713324081,6516.509367396639
1.496,0.7209335922315954,6527.856186852405
1.5,0.6787480476372434,6527.7055580706565
1.504,0.6351089560051195,6535.238433675079
1.508,0.5962455111262707,6541.725217073335
1.512,0.5675586787955087,6532.319667130696
1.516,0.5527624851025257,6534.631377037927
1.52,0.5533489179209561,6534.801500773916
1.524,0.5684474273807681,6537.19559043327
1.528,0.5951251480606364,6543.501721504679
1.532,0.6290981211945933,6535.491986818456
1.536,0.6656906495873623,6541.356224050316
1.54,0.700776258035008,6555.69845633305
1.544,0.7314216319385796,6545.317053871488
1.548,0.7560345624043204,6549.55371362401
1.552,0.7740030744191723,6548.671185542705
1.556,0.7850697500631143,6543.49554081264
1.56,0.7888260784503097,6556.28169370855
1.564,0.7845960715044367,6551.616275307151
1.568,0.7717250068061974,6548.493729320118
1.572,0.7500911921414567,6549.615642039379
1.576,0.7205672032182119,6560.318860402348
1.58,0.6851704943473537,6564.130052782989
1.584,0.6467732579839491,6555.705834185741
1.588,0.6084442537697295,6558.201091018758
1.592,0.5726836208498934,6556.6898757496665
1.596,0.5408932014306865,6558.803459269406
1.6,0.5133317011015187,6566.80068659756
1.604,0.48956729675457333,6562.033430440103
1.608,0.469187182750573,6564.316618346788
1.612,0.45237841815065505,6566.942197232596
1.616,0.4400289667345435,6560.233267645065
1.62,0.4332259366096663,6567.694199778146
1.624,0.43236780319367535,6571.816980330875
1.628,0.43636797495872587,6566.510465077264
1.632,0.4424340245088304,6578.687660679714
1.636,0.4466586795723857,6569.239140156744
1.64,0.44528930293215635,6563.070753094341
1.644,0.4361966359656611,6589.431589860009
1.648,0.4198985571326878,6582.990025898801
1.652,0.3996524651410547,6576.573057324659
1.656,0.3805563087972982,6584.464085976458
1.66,0.36801688408826255,6578.995133236866
1.664,0.36612809925834583,6576.8865528578135
1.668,0.3764603864712893,6576.355933719309
1.672,0.3976062659641776,6581.961094162125
1.676,0.4256060488421775,6590.451344051584
1.68,0.45510416230254724,6587.584713780511
1.684,0.48082532128683975,6571.045568595872
1.688,0.4988438119197833,6575.364357970714
1.692,0.5072435737801191,6576.223125602955
1.696,0.5060733756515822,6586.449467020975
1.7,0.49682065957856103,6586.091934207671
1.704,0.48179552343301074,6586.178916967828
1.708,0.46373920787003203,6584.08521035854
1.712,0.445690728584485,6583.22205760996
1.716,0.43086485586330076,6591.555570986877
1.72,0.4222421300748275,6578.273109367518
1.724,0.4217959590704112,6582.493817892021
1.728,0.4296215692779976,6592.006971778053
1.732,0.4434534651648618,6589.7593091311865
1.736,0.45899947291492815,6584.160204194536
1.74,0.47117217824701,6592.884886276437
1.744,0.47583440242967745,6598.112349843129
1.748,0.47136111312484713,6588.614529409893
1.752,0.4593405203932205,6590.994286953052
1.756,0.4440874731905341,6589.268668178934
1.76,0.4311530511004267,6592.453346318992
1.764,0.4254233061129622,6594.433350182608
1.768,0.4294987373947017,6599.335095414612
1.772,0.4428474009472514,6591.642486990696
1.776,0.4619126581723189,6602.597369189313
1.78,0.48108098570555446,6596.697216077021
1.784,0.4942297871711529,6596.093739253844
1.788,0.49647446599451706,6598.720345066367
1.792,0.4856593778765665,6595.470492940244
1.796,0.46308810022707053,6595.103245284832
1.8,0.433135871577254,6591.066058522558
1.804,0.4018499837929115,6600.881865610385
1.808,0.3751637772222506,6598.327155754492
1.812,0.35746605718858737,6590.828957555002
1.816,0.3508772261522101,6600.433232516479
1.82,0.3551067956651751,6598.6292344602
1.824,0.3676499294515256,6608.904930544891
1.828,0.3842820089557416,6602.073801831389
1.832,0.3999293458871861,6601.61969905662
