时间(s),电压(V),幅值(高频80K)
0.0,-1.9982792692373896,5904.577902286037
0.004,-1.7659805226175245,5900.674542382289
0.008,-1.557036419559836,5901.254907413254
0.012,-1.3890402092478449,5905.767585915029
0.016,-1.2712415840905966,5904.531609889771
0.02,-1.2038879160415756,5902.556290018398
0.024,-1.1797417226542808,5896.70441292229
0.028,-1.1868868351569737,5894.33203082027
0.032,-1.2119424938118168,5901.90413881698
0.036,-1.242982099923606,5900.324620448664
0.04,-1.271580810794141,5912.163351973823
0.044,-1.2936351575294887,5896.670531530936
0.048,-1.3089935569438265,5904.419638458799
0.052,-1.3202874693278037,5904.825878522968
0.056,-1.3314281993477086,5895.832379557407
0.06,-1.346107513843622,5894.494444668131
0.064,-1.36655290923019,5897.112085422973
0.068,-1.3928026466318864,5896.744514810164
0.072,-1.422705528416347,5906.139063947043
0.076,-1.452602163083739,5892.652982354364
0.08,-1.4783716929515385,5902.466091688217
0.084,-1.4964684219160815,5897.1427228280245
0.088,-1.5047124593503323,5899.54092734318
0.092,-1.5027220552441747,5903.149837276637
0.096,-1.491895962926433,5894.769730566207
0.1,-1.4748977690854401,5901.017872750044
0.104,-1.454759365285455,5898.444872615947
0.108,-1.4339163843272675,5901.550970818176
0.112,-1.41354604069017,5899.884179438702
0.116,-1.3934395890623252,5898.190840158078
0.12,-1.3723991939461115,5899.426117085225
0.124,-1.3489587357663346,5908.908342781304
0.128,-1.3221936904204714,5896.738137852173
0.132,-1.2924535466165987,5896.682088450438
0.136,-1.2618643506984986,5896.483663542967
0.14,-1.2343662333515517,5900.050599722718
0.144,-1.2150354241996586,5894.415604389052
0.148,-1.208677740079967,5893.604831089054
0.152,-1.2181120386003372,5904.251020956055
0.156,-1.2428509191611836,5900.927267339936
0.16,-1.278745795407932,5906.87894026251
0.164,-1.318713343309544,5913.508960774311
0.168,-1.3542881590794524,5902.261897016379
0.172,-1.3776252042425754,5892.128500043974
0.176,-1.3835402601392628,5908.562351019956
0.18,-1.3710900147413019,5901.608598462254
0.184,-1.3441671952617955,5898.568326743744
0.188,-1.3107721378538861,5894.344153814403
0.192,-1.2810007773181948,5901.812100526339
0.196,-1.2642342085066527,5897.651667129681
0.2,-1.266388195157348,5897.217122442203
0.204,-1.2881876183194787,5896.6355309478295
0.208,-1.3250906884575064,5896.934885253768
0.212,-1.3688102481604756,5899.249058467272
0.216,-1.4097835350384595,5889.813786936316
0.22,-1.4397349432335615,5900.482718173249
0.224,-1.4536109439516014,5903.332504642273
0.228,-1.4504710015977829,5898.22834986918
0.232,-1.4332696153458948,5900.958319201084
0.236,-1.4077366869652543,5893.424214911145
0.24,-1.3807074346877168,5894.944909645764
0.244,-1.3583444841698002,5893.9958462413615
0.248,-1.3447322961043555,5900.693043431204
0.252,-1.3411969626567315,5897.752262359997
0.256,-1.3464356572065204,5897.263657204799
0.26,-1.3572969084469377,5906.027506555582
0.264,-1.3699173783059453,5899.3790752320265
0.268,-1.3808767888352325,5896.460989890803
0.272,-1.3880820726345466,5906.565782042826
0.276,-1.3912027670893654,5896.164350165929
0.28,-1.3915659256744854,5894.261324879748
0.284,-1.3914935273903433,5905.386046696391
0.288,-1.3932432037090599,5905.254956218837
0.292,-1.397966020280053,5894.808650472222
0.296,-1.4051873004607072,5899.785217453175
0.3,-1.413088295235889,5905.447984877048
0.304,-1.419444389846959,5896.465701772158
0.308,-1.4227422663112903,5901.718936697509
0.312,-1.4229531943462437,5893.610289969502
0.316,-1.4216685030185698,5899.755925267105
0.32,-1.421613336841699,5897.748061094818
0.324,-1.4257636808547505,5901.438620902693
0.328,-1.4363730699769859,5902.401230842344
0.332,-1.4542240513520017,5894.83370062661
0.336,-1.4783469949690227,5895.615329637564
0.34,-1.5062466021892047,5898.760455307808
0.344,-1.5344225101766362,5898.629119567587
0.348,-1.5588812099698128,5901.5064698522965
0.352,-1.5755010729929293,5896.912113946062
0.356,-1.5803555831348763,5896.1539799465845
0.36,-1.5702053622668135,5894.697957737575
0.364,-1.5432673987025654,5893.183694223952
0.368,-1.5001062730093218,5903.28883870246
0.372,-1.44421543487949,5900.5899583719365
0.376,-1.381810766520825,5883.211098799799
0.38,-1.3206948908785583,5910.73803312826
0.384,-1.2685776387222867,5906.509050217988
0.388,-1.2315117816353367,5895.335190323737
0.392,-1.2129037992923546,5896.88588957766
0.396,-1.2131508287076016,5895.096862930959
0.4,-1.2297421894657545,5899.939418141164
0.404,-1.2577344878509131,5903.957853562179
0.408,-1.2906230654976503,5897.187727896288
0.412,-1.3215666268701716,5906.994371994444
0.416,-1.344727335746533,5902.08514820901
0.42,-1.3563894734309474,5897.68957878954
0.424,-1.3556072219406796,5905.980263991536
0.428,-1.3442767397505213,5901.920065586719
0.432,-1.326605500173881,5894.136689211354
0.436,-1.3080106269032408,5899.371141690601
0.44,-1.2936198425927496,5900.725441306848
0.444,-1.2867571737007761,5906.355811330432
0.448,-1.2879375572664487,5902.859604759696
0.452,-1.2948208265726335,5901.898472938258
0.456,-1.3032240492019957,5895.613187598094
0.46,-1.3087986037066655,5905.216014509175
0.464,-1.3086526668455634,5898.742556587572
0.468,-1.302264278591314,5898.842615592753
0.472,-1.291417908528489,5899.998889316582
0.476,-1.2793368321034113,5901.158507362689
0.48,-1.2694475240909666,5893.8874542952935
0.484,-1.2642647241067184,5897.284904028609
0.488,-1.2647962119275313,5898.956983964324
0.492,-1.2706458519495578,5903.074966205951
0.496,-1.2806439654911146,5895.90656161576
0.5,-1.2935348645384281,5901.824456639328
0.504,-1.3082767407844402,5908.445299859
0.508,-1.3238815226924479,5908.381921948602
0.512,-1.3391075417416813,5896.858340500843
0.516,-1.3523679251189504,5904.895558293642
0.52,-1.3619439491867402,5895.543650313308
0.524,-1.366308571666443,5894.765925842603
0.528,-1.3643160416953235,5899.277974494236
0.532,-1.3551823193812917,5909.360911191056
0.536,-1.3383998761143239,5902.721796853328
0.54,-1.3138296376259642,5904.824495787824
0.544,-1.2821122577179087,5904.780369849197
0.548,-1.2453053008351718,5903.397932162879
0.552,-1.2074311449315538,5905.202021216197
0.556,-1.1745233208713757,5901.955107200877
0.56,-1.1538460812297204,5903.584912239588
0.5640000000000001,-1.1522676977794666,5893.177689672362
0.5680000000000001,-1.1742126303406164,5890.106171583109
0.5720000000000001,-1.219950595144717,5891.343949005502
0.5760000000000001,-1.2849471816753804,5890.873577098093
0.58,-1.360576234710646,5891.592702785053
0.584,-1.4359293158517727,5898.697325309052
0.588,-1.5000903305999118,5903.288008851207
0.592,-1.5442275788019566,5897.587671736147
0.596,-1.563073904332934,5895.541082148049
0.6,-1.5556096623898032,5895.871297315394
0.604,-1.5249232283612724,5902.019893909179
0.608,-1.477314633717151,5900.550557429535
0.612,-1.420809042497677,5906.167577879664
0.616,-1.3634173323015129,5900.916451485012
0.62,-1.311651520488918,5897.87357741169
0.624,-1.2697693573779791,5910.133749767604
0.628,-1.2398722831703899,5908.419380837932
0.632,-1.2225177926957984,5897.237369542526
0.636,-1.2172991628200531,5898.268833454257
0.64,-1.223036552851839,5888.928388396538
0.644,-1.2376154660669962,5895.465401080294
0.648,-1.2577973959898405,5898.174474386914
0.652,-1.2793530535279758,5898.335592464269
0.656,-1.297671612395588,5890.477749424494
0.66,-1.3087264652342252,5897.147151752252
0.664,-1.3100716686031522,5910.169139711902
0.668,-1.30150155978384,5903.49962284739
0.672,-1.2851438783252598,5893.285531782726
0.676,-1.2649730866071354,5904.787646164839
0.68,-1.2458964783160382,5900.433997394421
0.684,-1.2326450285882617,5901.088564956073
0.6880000000000001,-1.228726864749149,5895.2421409377575
0.6920000000000001,-1.2356795505952693,5905.7964715604985
0.6960000000000001,-1.2527629000578318,5893.380512788566
0.7000000000000001,-1.277082051287253,5901.317267768634
0.704,-1.3040133639360654,5900.576195257324
0.708,-1.3278297715372207,5908.984995286678
0.712,-1.342555342447424,5902.085260559927
0.716,-1.3431139433032715,5894.372453315179
0.72,-1.3266461911877712,5905.1977497923735
0.724,-1.2936140118353814,5902.734359383878
0.728,-1.2482432950238507,5904.4443110249085
0.732,-1.1980262496141654,5895.998038875749
0.736,-1.1523075048965954,5902.377614387258
0.74,-1.1202828334331414,5905.875288868119
0.744,-1.108928761951438,5897.164707660391
0.748,-1.1213960241312206,5900.998785115684
0.752,-1.156278628676877,5898.32420610433
0.756,-1.2079600689613235,5896.422327969844
0.76,-1.2679410320165705,5893.253203561469
0.764,-1.3267389186440173,5896.422357125711
0.768,-1.3757932390302245,5900.103421948619
0.772,-1.408907706256615,5902.340040007649
0.776,-1.4230066308826645,5899.434140976356
0.78,-1.4182188090226002,5902.826132912346
0.784,-1.3974592634026677,5909.227667423887
0.788,-1.365748052203918,5909.258613774267
0.792,-1.3294574655170073,5897.942965992153
0.796,-1.2955168653414442,5889.318166734493
0.8,-1.270449215238241,5900.712341120409
0.804,-1.2591487484778412,5898.130678419971
0.808,-1.2635934762043861,5896.68270131656
0.812,-1.2820247694856712,5890.664872974528
0.8160000000000001,-1.309175673577361,5895.091715521113
0.8200000000000001,-1.3377255155935115,5908.337845264574
0.8240000000000001,-1.3605382789660458,5894.899407689557
0.8280000000000001,-1.3728384344847964,5896.631132829252
0.8320000000000001,-1.3735259415242573,5900.023241191855
0.836,-1.3652355632831201,5888.382172372114
0.84,-1.3532213728088618,5902.149505323245
0.844,-1.3434759433799965,5898.213707931685
0.848,-1.3406615820961199,5898.014785094609
0.852,-1.3464925788510447,5910.254841431605
0.856,-1.3591127497286988,5901.33196971501
0.86,-1.3737008279962573,5900.515595787032
0.864,-1.3840899139830558,5902.8622967637175
0.868,-1.3848049383268812,5907.472334128523
0.872,-1.3728043620792723,5899.791066122125
0.876,-1.3484257468106358,5905.582015694191
0.88,-1.315416381639514,5899.1914727287785
0.884,-1.2801997547442359,5901.200318366709
0.888,-1.250555152057709,5899.924186174255
0.892,-1.233831878122469,5902.093347464906
0.896,-1.2349520522547657,5895.705977761064
0.9,-1.2547643770285883,5901.614399965457
0.904,-1.2894306675855323,5899.252801757258
0.908,-1.3311992436651543,5895.735868776177
0.912,-1.3703357112778969,5900.563394671995
0.916,-1.3975487213130517,5910.032743652277
0.92,-1.4061875040601142,5902.69494678885
0.924,-1.3937167093998695,5899.403518933482
0.928,-1.3622470934538746,5900.595575133838
0.932,-1.3180570134447802,5896.796237453697
0.936,-1.270157238790006,5896.905956311897
0.94,-1.2281850285541378,5888.445401935444
0.944,-1.2001944065899939,5902.806573140151
0.948,-1.1909855154536357,5892.74436496042
0.952,-1.2013875074406566,5889.900370810276
0.956,-1.2285350470392944,5895.225278204164
0.96,-1.2668658054633286,5899.080045384231
0.964,-1.3094405516583623,5903.695314036337
0.968,-1.3492725979220819,5900.294011290121
0.972,-1.3805082175552297,5907.0615256119945
0.976,-1.39932321003996,5895.601737261609
0.98,-1.404327918666054,5895.963485993438
0.984,-1.3963520110911214,5898.616551685268
0.988,-1.3777568331292973,5901.511748994047
0.992,-1.3516203428474147,5901.796678088953
0.996,-1.3210838581863737,5890.890605021821
1.0,-1.288997555287791,5899.999899716843
1.004,-1.2579035824624467,5905.59368417314
1.008,-1.2302915999928263,5898.89909986862
1.012,-1.208913541011717,5899.799381413136
1.016,-1.1968555336422022,5892.495004455925
1.02,-1.1971299048969133,5896.2131514026105
1.024,-1.2117704941719447,5901.703352932639
1.028,-1.2407071434486532,5903.203607595298
1.032,-1.280909049994145,5896.360257458281
1.036,-1.3262898896388582,5897.57976477045
1.04,-1.3686432968959876,5901.508451593931
1.044,-1.399502881790937,5901.550477977715
1.048,-1.4124105539219367,5894.4520339318005
1.052,-1.404796665270683,5902.565401162652
1.056,-1.3787223795156776,5906.680785594871
1.06,-1.34016562670717,5905.525419941793
1.064,-1.297142952598655,5898.624484892989
1.068,-1.2574305058082795,5897.190114292538
1.072,-1.2267626436391912,5895.513810697296
1.076,-1.2080883420437338,5904.707239924704
1.08,-1.2018734159832385,5896.891717728083
1.084,-1.2069068899871553,5893.834755325232
1.088,-1.2209957401704092,5898.8833973989495
1.092,-1.241312685923043,5905.517997108377
1.096,-1.2645707143266154,5902.498914625405
1.1,-1.2872876828476492,5911.850594354716
1.104,-1.306221570090142,5905.6532338882125
1.108,-1.3188560506277767,5906.227078577953
1.112,-1.3237814049439414,5899.03404365691
1.116,-1.3209255661612271,5894.736943301476
1.12,-1.3116569951932315,5900.480166249147
1.124,-1.2987082311280407,5896.574717169618
1.128,-1.2857872067633662,5894.314353236487
1.132,-1.276805543799831,5899.3919120137125
1.136,-1.274855157443827,5910.23626939582
1.14,-1.2812851933594978,5900.578469400829
1.144,-1.2952958954509073,5909.20294106405
1.148,-1.3142534054453427,5908.1466031178425
1.152,-1.3345400910461134,5905.15109037574
1.156,-1.3524900616580087,5897.45551626963
1.16,-1.36503913367556,5897.904792724286
1.164,-1.3700454042265267,5902.066721352549
1.168,-1.366498193868758,5897.543255534358
1.172,-1.354812595039368,5898.403427712619
1.176,-1.337148426511204,5896.927681764631
1.18,-1.3174275653168492,5906.487161635569
1.184,-1.3006962177983068,5910.99978855982
1.188,-1.2917749687764202,5900.470851359144
1.192,-1.2936071981937998,5895.221086857522
1.196,-1.30603953693449,5908.5634967761935
1.2,-1.3256785929955857,5890.333465398699
1.204,-1.3469686948306587,5908.22247272266
1.208,-1.3640336058108795,5898.415171765464
1.212,-1.3725027918430244,5890.613025645998
1.216,-1.3706473907380599,5892.482305199371
1.22,-1.3595267533554303,5900.971048527124
1.224,-1.342252466160342,5905.96464071743
1.228,-1.3227663696302485,5899.308616418468
1.232,-1.3046236171554446,5905.724138749558
1.236,-1.2901523265754262,5897.633312481129
1.24,-1.280134441744132,5894.488354860171
1.244,-1.2739753576159079,5903.627080545875
1.248,-1.2702434838625125,5901.668330975253
1.252,-1.2673994790837337,5895.293454079631
1.256,-1.2644825516278406,5894.156709936544
1.26,-1.2615316702678137,5901.732529869077
1.264,-1.259591022166238,5895.241131825048
1.268,-1.2602368544852935,5906.794903247913
1.272,-1.264704035939202,5893.403335631724
1.276,-1.272919046552397,5898.652672311382
1.28,-1.2829132292338687,5903.581550515519
1.284,-1.2909891077271263,5892.513216275396
1.288,-1.2926542250072994,5899.6540025118165
1.292,-1.2839675955755412,5895.988423294196
1.296,-1.262805084887491,5905.878245640001
1.3,-1.2296528303798793,5911.662872222312
1.304,-1.1877191519759716,5903.420028661866
1.308,-1.1423453967576702,5897.075850131904
1.312,-1.0999301971842745,5902.138667306967
1.316,-1.0667663635711384,5906.907829483487
1.32,-1.048144152796705,5900.902311730546
1.324,-1.0478010418573906,5901.7238101677385
1.328,-1.0675310446313409,5899.946808003826
1.332,-1.1067585545072267,5909.200097681257
1.336,-1.1621550737931372,5895.736641758178
1.34,-1.2276686295388075,5903.77873543076
1.344,-1.2953242416466055,5897.779087180434
1.348,-1.356772325402049,5896.126727679239
1.352,-1.4050869095737135,5897.511459311181
1.356,-1.4361277868416067,5911.063424552059
1.36,-1.4490167976521353,5901.222907029195
1.364,-1.4457381913890794,5902.6695532101085
1.368,-1.4302342753886148,5898.101616674772
1.372,-1.4074365995391076,5906.088166477191
1.376,-1.3824800116226525,5896.020305274709
1.38,-1.3600781699524092,5900.738193060033
1.384,-1.343885595058139,5903.167639110935
1.388,-1.335730308675262,5901.745688866328
1.392,-1.3348533666589173,5903.681661955956
1.396,-1.3375731202068628,5900.371280255596
1.4,-1.337846628880669,5892.900434309715
1.404,-1.3288992253359333,5901.225489594124
1.408,-1.305580676179828,5903.389208416394
1.412,-1.2666877888001773,5901.828987845855
1.416,-1.2164101296737126,5907.949438660917
1.42,-1.164335412183827,5896.846848615049
1.424,-1.1239152310867484,5902.18187459475
1.428,-1.109699249541567,5907.14834690081
1.432,-1.1338390132381295,5901.38560335476
1.436,-1.202347229105374,5902.033755797946
1.44,-1.3115427475840975,5890.708349798835
1.444,-1.445204691572314,5896.22264210475
1.448,-1.5732281189793897,5899.1467369312295
1.452,-1.6528386148867724,5893.843416268375
1.456,-1.633383164979513,5897.00347392862
1.46,-1.4650819767116392,5898.658436041593
1.464,-1.1108149292160163,5901.310300680191
1.468,-0.5583419557773379,5903.719587046587
1.472,0.17094696175544688,5905.874257352368
1.476,1.020715754657225,5904.138425477294
1.48,1.9079856999866676,5900.510365934372
1.484,2.739810349319271,5905.676885115676
1.488,3.4334181623438966,5920.956157655447
1.492,3.9332516521407457,5937.940719363784
1.496,4.2198112919602275,5947.006214147673
1.5,4.3087553086063295,5954.459641098899
1.504,4.242125257178862,5973.449737912792
1.508,4.075451626430259,5978.677484616642
1.512,3.8647071743831547,5999.3883080336855
1.516,3.656134135380379,6007.945385846139
1.52,3.4805015122599325,6018.681236498716
1.524,3.3519101477322075,6029.053073462892
1.528,3.270236678173959,6039.0645417135565
1.532,3.2257884622989765,6047.047464451899
1.536,3.2046185931040916,6061.462871763261
1.54,3.1931147348889226,6072.465845797376
1.544,3.1809045912099587,6085.626836966696
1.548,3.161766957338489,6088.985146301418
1.552,3.1329209252272614,6106.62609849279
1.556,3.093529470169048,6114.950803602923
1.56,3.043329858333376,6123.836907977949
1.564,2.9820130886081158,6130.890836835627
1.568,2.9094836857194517,6147.067856551418
1.572,2.8266702051972876,6157.374776688349
1.576,2.7363381558166258,6154.58518023884
1.58,2.6434354871504295,6166.440854137653
1.584,2.5547269924720655,6172.382305946508
1.588,2.4776861867830244,6186.3119564863455
1.592,2.4188098287655984,6189.494878215328
1.596,2.3817500329287684,6189.590828155157
1.6,2.365857257890777,6212.525702557314
1.604,2.3657527557585705,6207.078335394114
1.608,2.372292728235956,6219.8408166646095
1.612,2.3747699926464083,6231.378987709368
1.616,2.363658066876775,6231.694998092099
1.62,2.332962963991315,6249.250769577955
1.624,2.2814423622845257,6256.014657213739
1.628,2.2124473011680803,6257.503040119681
1.632,2.132671845205983,6264.337956354595
1.636,2.0503910099503675,6271.803341096117
1.64,1.9737270900994457,6282.048932544172
1.644,1.909261393695839,6289.212002997759
1.648,1.8610980898677214,6277.495325369043
1.652,1.8303595495593792,6300.165497502308
1.656,1.815074099508692,6301.913785016391
1.66,1.8105050031580463,6306.5280188831
1.664,1.810035342793308,6319.76752420091
1.668,1.8066028914982986,6315.147279159652
1.672,1.7943990319900516,6316.186400519597
1.676,1.7703382123626197,6329.297151368668
1.68,1.734838504985931,6339.533537921253
1.684,1.69167676780266,6333.1938673644
1.688,1.6469753908131035,6338.364124104894
1.692,1.6076567729444782,6338.417673836645
1.696,1.5798253047392667,6354.601113864908
1.7,1.5674163816113909,6363.536202240068
1.704,1.5712615888947257,6361.225805904987
1.708,1.5886927187526716,6371.250315297168
1.712,1.6138672639724596,6371.469414297428
1.716,1.6388858333288692,6383.5527006364255
1.72,1.6554740686610023,6369.469795297693
1.724,1.6567586270723451,6376.497065010662
1.728,1.6386450144207092,6380.975481363802
1.732,1.6004768201306216,6396.9637776028885
1.736,1.5449066891953092,6396.821096082535
1.74,1.4771277017041793,6404.21424620067
1.744,1.403734541925247,6411.895602427082
1.748,1.3315002993053027,6414.971236443127
1.752,1.266296678385797,6406.325655620612
1.756,1.2123006949111805,6413.717542861175
1.76,1.1715622260677667,6408.975973094119
1.764,1.1439653607841516,6415.747454002546
1.768,1.127589960451582,6420.761203827035
1.772,1.1194328169513432,6431.83990512922
1.776,1.116337142675359,6426.695345894509
1.78,1.115837362635151,6425.624081239226
1.784,1.1165746152509672,6438.820281484279
1.788,1.118079149880159,6439.154601809728
1.792,1.1200439442017647,6442.232250909623
1.796,1.121560566605524,6436.239633230125
1.8,1.120870686326843,6439.074876195875
1.804,1.1158896649870396,6452.373571803814
1.808,1.1053032558877138,6452.324976500911
1.812,1.0897080596187672,6464.490364510494
1.816,1.0721430152353593,6457.164430850822
1.82,1.0574886240670207,6450.843229109426
1.824,1.0507096750211968,6457.816613613317
