时间(s),电压(V),幅值(高频80K)
0.0,-0.8973604629631692,5905.467661783702
0.004,-1.0479975003702342,5898.046183759549
0.008,-1.1822194083727462,5899.385588738758
0.012,-1.2866335298581921,5897.76450458607
0.016,-1.3537766742476063,5901.891073162893
0.02,-1.383106510131301,5895.241265997866
0.024,-1.3801318729413656,5899.716260032153
0.028,-1.3541545546390625,5901.266143983065
0.032,-1.3156390014889274,5903.402020406957
0.036,-1.274134887057824,5896.182273069795
0.04,-1.2371046361964448,5898.232563630625
0.044,-1.209497960130481,5902.123255128308
0.048,-1.1937827848303384,5907.014054682758
0.052,-1.190248768178616,5895.012361447061
0.056,-1.1974780464588777,5896.602683461181
0.06,-1.2128685271295074,5906.158967851378
0.064,-1.23311261600249,5898.394918796029
0.068,-1.2546290034605927,5895.020390530127
0.072,-1.2740294306654758,5902.485239898702
0.076,-1.288673615630824,5897.804543035854
0.08,-1.2972192088479748,5888.672720227134
0.084,-1.299931586055395,5903.999483269217
0.088,-1.2985480193810492,5905.288917786142
0.092,-1.295705421957686,5898.133732986489
0.096,-1.2941332515194264,5891.834667347716
0.1,-1.2958311702537462,5901.349046041748
0.104,-1.3014202784224576,5912.541389268553
0.108,-1.309914106917238,5905.333876558344
0.112,-1.3191329615346228,5895.291217426834
0.116,-1.3266803880409588,5895.612244296559
0.12,-1.331004227880205,5899.056984495
0.124,-1.3319661055195284,5897.506327125499
0.128,-1.3306389004434063,5908.409090956889
0.132,-1.3285035818486313,5912.265167961117
0.136,-1.3265421138540194,5910.831149565843
0.14,-1.3247553033843362,5902.576592848072
0.144,-1.3223555633490527,5897.591289409889
0.148,-1.3184687921071931,5903.197361887115
0.152,-1.3129077046083713,5897.16937842954
0.156,-1.3065846525261868,5905.826676056205
0.16,-1.3013291822670792,5904.5354300802
0.164,-1.299156854462156,5899.963575328264
0.168,-1.3013256273296436,5901.884166864803
0.172,-1.3076533812523536,5901.695774453617
0.176,-1.3164249902693825,5893.608229120778
0.18,-1.3249028737640072,5906.801736718657
0.184,-1.3302039376953072,5900.486297634855
0.188,-1.330202565553333,5901.650544700683
0.192,-1.3241164582443363,5902.928479258277
0.196,-1.3125358295092673,5903.533430366067
0.2,-1.2969142939198317,5902.786450738354
0.204,-1.2788582058901252,5897.835873185971
0.208,-1.2596807065790494,5901.831490502314
0.212,-1.2404694598610386,5901.041822612327
0.216,-1.2224958402251727,5905.4367401567015
0.22,-1.2075139644185295,5906.047783816397
0.224,-1.1975875460868006,5899.785837372328
0.228,-1.1944361504251386,5910.756873651654
0.232,-1.1986146800678514,5906.621097837955
0.236,-1.2089493893219418,5904.275131714883
0.24,-1.2225556954594003,5897.83977195153
0.244,-1.2355234400759763,5901.924548516305
0.248,-1.244069821685698,5900.294003731251
0.252,-1.2457679136820037,5897.661921807228
0.256,-1.240430052455986,5894.613854809749
0.26,-1.2303132357377127,5899.443746220854
0.264,-1.219489670261459,5892.818806569957
0.268,-1.2125106830639933,5906.273900712242
0.272,-1.212804097460878,5890.3162956484575
0.276,-1.2213998361377474,5901.954293632145
0.28,-1.2364769115732652,5904.050583996199
0.284,-1.2539222531279064,5900.083585730252
0.288,-1.2687124878128402,5895.992328913783
0.292,-1.276609137094018,5899.659592592243
0.296,-1.2755329032778233,5905.777081072197
0.3,-1.266137906779951,5893.461311048588
0.304,-1.2514830343740624,5898.520668331935
0.308,-1.2360834715563143,5897.303022024719
0.312,-1.2247814716974974,5902.95036589253
0.316,-1.2217307912518414,5903.852275670319
0.32,-1.2295403133990974,5893.879761382231
0.324,-1.2485558541462691,5900.035680299373
0.328,-1.2764305071326612,5895.360919121733
0.332,-1.3082975949772444,5897.824611014406
0.336,-1.337753826154435,5908.328274274124
0.34,-1.3584895900494403,5890.92759369639
0.344,-1.3660244365396281,5894.992737328163
0.348,-1.3588866856385442,5893.726484462938
0.352,-1.338802352370957,5896.548263328068
0.356,-1.3098953064316434,5902.575485501831
0.36,-1.2772907953706742,5906.403328634859
0.364,-1.2456702828421968,5890.304969261364
0.368,-1.2182530228956714,5890.771047475198
0.372,-1.1964851559550937,5905.583944436231
0.376,-1.180451408115316,5892.913979261622
0.38,-1.1697204563433645,5900.127601690805
0.384,-1.1641348721368452,5893.9248791118525
0.388,-1.1641327867445395,5911.515295440778
0.392,-1.1705119201869605,5903.998311443136
0.396,-1.1838657333839986,5904.202018032168
0.4,-1.204025273640132,5901.628043948816
0.404,-1.2297489725570827,5902.881580749926
0.408,-1.2587538228378408,5895.715303112664
0.412,-1.2880536756718415,5906.277009808619
0.416,-1.3144912981970518,5892.602806348104
0.42,-1.335326560930055,5897.682083249552
0.424,-1.3487288315695583,5898.653123309975
0.428,-1.354011630269434,5902.396114330706
0.432,-1.3515314262320242,5889.415876146174
0.436,-1.3423491033997204,5902.821205402039
0.44,-1.3278562852337716,5892.42511901173
0.444,-1.309512723957273,5896.817238148791
0.448,-1.2887343574950823,5903.152193129464
0.452,-1.2669102589357526,5905.299688852385
0.456,-1.2454807724754526,5888.13880237236
0.46,-1.225965092109238,5901.953549154153
0.464,-1.2098433976447847,5903.128189482103
0.468,-1.1982952182053572,5898.573320682925
0.472,-1.1919065599621634,5898.121398923602
0.476,-1.1905024716736872,5900.768663226486
0.48,-1.1932081054775399,5886.581162204849
0.484,-1.198721699516336,5897.473226571235
0.488,-1.2056636597215677,5900.809005432345
0.492,-1.212817720939365,5898.588535870609
0.496,-1.2191513560209641,5902.801420355378
0.5,-1.2236776183168605,5900.826277782105
0.504,-1.2253906842117617,5895.722158202002
0.508,-1.223511349086853,5897.340005593873
0.512,-1.21804113353961,5896.139511269656
0.516,-1.2102959667406674,5889.964948407741
0.52,-1.2029783554320626,5892.363322081073
0.524,-1.1995921366956797,5903.147540878515
0.528,-1.2033985166197148,5900.0898851612055
0.532,-1.2163400056208113,5905.903558615843
0.536,-1.2383245353368517,5910.73348820112
0.54,-1.2670748465572392,5906.724238347051
0.544,-1.2985395863613551,5905.920278878482
0.548,-1.3277257053234501,5899.476147250422
0.552,-1.3497691594605437,5906.316303118123
0.556,-1.361040792792588,5893.171712839671
0.56,-1.3600338796836617,5906.19205739743
0.5640000000000001,-1.3477656804029254,5905.905938217058
0.5680000000000001,-1.3275380406208024,5903.88884647412
0.5720000000000001,-1.3041149125602893,5898.703117698012
0.5760000000000001,-1.2825624571373633,5896.18225220864
0.58,-1.2670660464273384,5907.584272180087
0.584,-1.259993589113829,5902.878764014995
0.588,-1.2613775808457512,5906.701959610442
0.592,-1.2688896826522587,5903.885511918317
0.596,-1.2783069278093024,5895.071051516436
0.6,-1.2844207686972613,5900.218428977353
0.604,-1.282281746584237,5892.739573252545
0.608,-1.2685607373433954,5895.642710996584
0.612,-1.242678984589474,5900.078184504529
0.616,-1.207319151823852,5891.902527943057
0.62,-1.168053881217494,5899.045788467345
0.624,-1.1321094731214603,5900.539783838591
0.628,-1.1066161540587307,5895.301765594425
0.632,-1.0969023155696356,5906.155235713378
0.636,-1.1053440069450353,5902.555597809599
0.64,-1.1310345249203142,5901.083096415637
0.644,-1.1702501472598061,5900.541388272764
0.648,-1.2174829497244337,5905.75855530541
0.652,-1.2667282703346348,5898.7164596566245
0.656,-1.312709573592194,5905.456696884628
0.66,-1.351745520009615,5897.80693490823
0.664,-1.3820465546925926,5902.5070951547605
0.668,-1.4034386681932662,5893.656453076049
0.672,-1.416776241539216,5904.5679892993385
0.676,-1.4234018248409934,5906.257951090505
0.68,-1.4248278122352165,5906.407484872051
0.684,-1.422535941297616,5900.690996820306
0.6880000000000001,-1.4177068612367663,5895.847031811099
0.6920000000000001,-1.4108739008016475,5899.711546788212
0.6960000000000001,-1.401722020188817,5895.896102496348
0.7000000000000001,-1.38927270108213,5894.4823359677885
0.704,-1.3724810115446477,5903.427042788734
0.708,-1.350995542324828,5897.747652687958
0.712,-1.3256898773805534,5902.32485271447
0.716,-1.2986659192415198,5908.265460853575
0.72,-1.2727146613767424,5901.142558475238
0.724,-1.2505272535232592,5901.232645643207
0.728,-1.2340758366987363,5906.591716382588
0.732,-1.224438673941972,5902.882459992535
0.736,-1.222027810206423,5905.400643415949
0.74,-1.226919583375762,5905.93204947257
0.744,-1.2389681222115685,5899.76215314691
0.748,-1.257597004724935,5901.486403990202
0.752,-1.2814508252629877,5898.814718044675
0.756,-1.3082287200895109,5898.974010058516
0.76,-1.3349019103423043,5891.596536592584
0.764,-1.3582529144297637,5895.188656891837
0.768,-1.3754984508544308,5903.289126625768
0.772,-1.3847718232865907,5907.654792316369
0.776,-1.3853669942532731,5906.363264036738
0.78,-1.3777659551227994,5895.95560063954
0.784,-1.363511691170016,5899.195089574629
0.788,-1.3449579234954407,5900.452678680984
0.792,-1.3248850380369295,5889.27077410651
0.796,-1.3059730734330999,5900.672401397382
0.8,-1.290203907966893,5904.403717308232
0.804,-1.2784056461226152,5905.804834038391
0.808,-1.270198403700699,5907.196826472979
0.812,-1.2644164048219528,5892.298385333445
0.8160000000000001,-1.2598022076766655,5894.215362700688
0.8200000000000001,-1.2556570316494318,5896.035162780419
0.8240000000000001,-1.2522164893717758,5907.867275338126
0.8280000000000001,-1.2506458804936544,5893.573264212522
0.8320000000000001,-1.2526650797701258,5902.528676867753
0.836,-1.259956820507424,5900.816459567636
0.84,-1.2735943774010763,5903.887191382808
0.844,-1.2936282544053581,5899.059581773182
0.848,-1.3188061858824378,5899.180688548142
0.852,-1.3463963275779904,5892.102828100802
0.856,-1.37224473600898,5897.747650042472
0.86,-1.391290918946672,5903.541013756506
0.864,-1.3986306708231915,5891.274008568374
0.868,-1.3909147285769947,5901.07922684486
0.872,-1.367580454046641,5887.294945739293
0.876,-1.3313296612204952,5898.338355393712
0.88,-1.2875173891850702,5899.786283154776
0.884,-1.2426229839951877,5901.133784692225
0.888,-1.2024444490016482,5899.939270459995
0.892,-1.1707776462335293,5902.402822213003
0.896,-1.14902630602854,5891.759671062598
0.9,-1.1366817470577684,5901.903172918937
0.904,-1.1322631539832058,5905.837246720416
0.908,-1.1342370827413475,5899.259687719725
0.912,-1.1415415278671852,5902.286781041751
0.916,-1.1535504258827691,5900.614005322667
0.92,-1.1695855314889223,5895.169780907278
0.924,-1.1883026650768878,5899.55367755564
0.928,-1.2073390694719008,5899.044859870673
0.932,-1.2234980076404192,5894.132597112809
0.936,-1.2335095807894132,5895.441024028257
0.94,-1.2351101028628115,5907.893722554833
0.944,-1.2279736694177061,5897.864493740385
0.948,-1.2140651157032667,5900.209710022959
0.952,-1.197246440707292,5905.585544895742
0.956,-1.1822816874027233,5909.235940951694
0.96,-1.17358913250364,5899.27885119774
0.964,-1.1741206459483933,5902.305267144789
0.968,-1.184633075648742,5896.299625265414
0.972,-1.2034692888910903,5901.890810243212
0.976,-1.2268883695518933,5897.507210478741
0.98,-1.2499379255666556,5895.150066978676
0.984,-1.2677325407777529,5896.317616726185
0.988,-1.2767954712005805,5894.46911209998
0.992,-1.2760123561507568,5908.438411507758
0.996,-1.2668868462200324,5905.951692705256
1.0,-1.2530904149765214,5896.957390339531
1.004,-1.2395262602933026,5910.671565422791
1.008,-1.231172893951247,5899.416278846607
1.012,-1.2319246638890975,5905.743369827696
1.016,-1.243621668163239,5896.307474694352
1.02,-1.2654789580944745,5906.2431480667165
1.024,-1.2941091827727464,5905.6816087709885
1.028,-1.3241967717600416,5901.17815269425
1.032,-1.3496401850242363,5896.617950315678
1.036,-1.3647958450778308,5899.856738807543
1.04,-1.3654984393293412,5905.216208989847
1.044,-1.3497407865837212,5899.217296699467
1.048,-1.3180421084611298,5908.388036020454
1.052,-1.2735082926289134,5897.723588194304
1.056,-1.2215055670278538,5901.25576974686
1.06,-1.1688802202508926,5891.2139803092
1.064,-1.122796558044175,5896.685980006094
1.068,-1.0894454116686774,5906.054211440198
1.072,-1.0729630972052997,5903.7408316908095
1.076,-1.0748336642711311,5894.278991153947
1.08,-1.0938690313820707,5893.106871967546
1.084,-1.1266591972048285,5897.101907933616
1.088,-1.1682484342346189,5896.106441375113
1.092,-1.2127961879472084,5896.218639667134
1.096,-1.25412054173019,5906.099922852101
1.1,-1.2861953346609467,5911.43472975728
1.104,-1.303758060091427,5907.629879668536
1.108,-1.3031301658101353,5905.058110381779
1.112,-1.2831705901369679,5901.237171590199
1.116,-1.246050990757633,5897.09015895665
1.12,-1.1973992062173204,5902.384573487264
1.124,-1.1454757706855978,5892.491350836637
1.128,-1.099461389971617,5900.402150370841
1.132,-1.067395052578832,5908.791707928509
1.136,-1.054459184953103,5905.403946337991
1.14,-1.0620854343122228,5900.466533810251
1.144,-1.0880097002103333,5894.467250939947
1.148,-1.1271704945451027,5904.980779328064
1.152,-1.1732036566038648,5910.975589808806
1.156,-1.2201350943051688,5900.776334597795
1.16,-1.2637521352411887,5898.158690507682
1.164,-1.3021942718903763,5901.332307092785
1.168,-1.3355906683219407,5905.012021289583
1.172,-1.3649478074988788,5895.522424571329
1.176,-1.390773273143903,5901.482742863535
1.18,-1.4120129485925574,5894.48166982904
1.184,-1.4257702711184965,5901.2909330429
1.188,-1.4279977601567908,5900.91822673348
1.192,-1.4149630440573915,5901.305125020994
1.196,-1.3849357968877476,5902.677780388041
1.2,-1.3394219770563798,5902.972434072941
1.204,-1.283465142647603,5902.670953293053
1.208,-1.2248854644984826,5900.725871908076
1.212,-1.1726459539825647,5888.798697803916
1.216,-1.1347880191447073,5896.0014397821005
1.22,-1.1165559026293714,5892.311423971046
1.224,-1.1193131274669421,5905.850260738819
1.228,-1.1405612160247935,5908.354872752049
1.232,-1.1749274424889375,5906.8562349262
1.236,-1.2156572899249607,5887.869996865768
1.24,-1.2560927554372783,5904.356878812408
1.244,-1.2907658241184916,5901.390256277621
1.248,-1.3159300644372296,5902.146231406611
1.252,-1.3295758863381317,5903.2244919276045
1.256,-1.3312267068464103,5905.929202911435
1.26,-1.3218778736028167,5893.534180363474
1.264,-1.3041325390303748,5896.495060925406
1.268,-1.2821732466776354,5894.150794818912
1.272,-1.261171739844352,5898.618071407048
1.276,-1.2461458042288096,5905.101367743552
1.28,-1.2406852358651301,5905.538623492028
1.284,-1.246036454123007,5909.016044339232
1.288,-1.2608315884203958,5901.623948290364
1.292,-1.2815020806085262,5891.93655994238
1.296,-1.3032143319788112,5896.662056519964
1.3,-1.3210279716939939,5898.330166956001
1.304,-1.3309604500121603,5890.524699674553
1.308,-1.330731964532247,5896.281339024984
1.312,-1.3200823151473238,5903.635509080094
1.316,-1.3006639902017811,5901.356319038997
1.32,-1.2756172994484527,5894.764791018862
1.324,-1.248975133752628,5895.792356280774
1.328,-1.224999549570791,5900.268614996036
1.332,-1.207492542753384,5895.405348621227
1.336,-1.1991510341403904,5901.468023770076
1.34,-1.20113350657757,5905.607121891007
1.344,-1.2130327654381947,5898.997816740511
1.348,-1.2333055580877925,5900.363304774548
1.352,-1.2599514554128348,5898.117725251645
1.356,-1.2910536768632435,5891.917170348732
1.36,-1.3248782228972265,5894.78707914687
1.364,-1.3595402414069693,5896.744071788821
1.368,-1.3925267764791076,5892.341286032609
1.372,-1.4204193789766675,5906.133597699419
1.376,-1.4390444848516326,5901.171579203768
1.38,-1.4441091364829395,5900.79408280936
1.384,-1.4321758115114278,5899.145126658969
1.388,-1.4016640850828175,5897.644523285897
1.392,-1.3535732136853524,5899.080655496542
1.396,-1.291762510667255,5905.219439682847
1.4,-1.222726032068576,5896.946832909774
1.404,-1.1548133758969734,5899.062231258958
1.408,-1.0969028989225034,5900.89128324771
1.412,-1.0567074402886427,5903.332361238327
1.416,-1.0391210270545383,5901.955424974142
1.42,-1.0451262777743773,5895.895512600401
1.424,-1.0716306805436215,5899.388437720647
1.428,-1.112248472727183,5894.543975011395
1.432,-1.1587325071044814,5906.93464385515
1.436,-1.2026330881164935,5895.953907592377
1.44,-1.2367864587967674,5897.780352889794
1.444,-1.256365471231465,5897.255431834409
1.448,-1.259413672929845,5895.432842641012
1.452,-1.2469129015651357,5901.873558805676
1.456,-1.2224368965180115,5899.095280188277
1.46,-1.1914351876138676,5904.426913522826
1.464,-1.1602883670933357,5898.43083163434
1.468,-1.1353705818350457,5889.346416172935
1.472,-1.1222792274676607,5904.577147784138
1.476,-1.125206035836297,5899.2630459964685
1.48,-1.1463364650714,5895.057074136229
1.484,-1.185256043036901,5897.1075566861
1.488,-1.2385209643204962,5903.672922037965
1.492,-1.299673284215139,5900.054206041945
1.496,-1.3599434118719278,5904.971852533669
1.5,-1.4096755326389157,5896.970716719111
1.504,-1.4402379982841773,5900.679043799515
1.508,-1.4459689299943466,5901.951503493908
1.512,-1.425619252684848,5896.845785261979
1.516,-1.3828242321167759,5893.806157620585
1.52,-1.3254005326340652,5904.687703004156
1.524,-1.2636630165317604,5901.376662708717
1.528,-1.2082716610414086,5896.401359715314
1.532,-1.168178496681979,5896.392786571204
1.536,-1.1490778874786882,5899.261835411379
1.54,-1.152562653783118,5896.3649945262405
1.544,-1.1760895848692978,5902.075701492168
1.548,-1.2137899922545075,5900.287794226184
1.552,-1.257984858276227,5909.387557975772
1.556,-1.3010021946403685,5901.139919939559
1.56,-1.3367328932213354,5901.625818118355
1.564,-1.361479604386806,5890.8658500924685
1.568,-1.3740305026908852,5894.53649042482
1.572,-1.3752503181899207,5902.73543843595
1.576,-1.3675519013159005,5896.301318158893
1.58,-1.354424167993759,5899.420671220754
1.584,-1.3399883497514995,5902.6344378284575
1.588,-1.3284773411892126,5902.590515218627
1.592,-1.3235631900185847,5900.40473490472
1.596,-1.3275700417332903,5899.641784410427
1.6,-1.3407823877318765,5895.495722798697
1.604,-1.3611500980607332,5902.709670312982
1.608,-1.3845659863567765,5898.704542470425
1.612,-1.40565392273986,5895.09386612625
1.616,-1.4188624590239316,5903.126385537447
1.62,-1.4196305040075898,5901.293708019251
1.624,-1.4053916558965205,5903.0140968934265
1.628,-1.376213810733021,5907.157114460594
1.632,-1.334946940344414,5898.419722600242
1.636,-1.2868283810275334,5896.275803224045
1.64,-1.23856632147241,5897.531971247865
1.644,-1.1970416652249054,5895.102384918706
1.648,-1.1679180620071992,5893.893370238931
1.652,-1.154518983187631,5906.072208242327
1.656,-1.1572564571339365,5898.939163496054
1.66,-1.173735091094138,5890.197160375668
1.664,-1.199479015560632,5898.34327767034
1.668,-1.2290577486264136,5895.686189020354
1.672,-1.2572733005951344,5900.4416526983705
1.676,-1.2801021232564656,5897.675229171066
1.68,-1.295236543127302,5896.254750830971
1.684,-1.3022162800703605,5895.468796040565
1.688,-1.3022225852845448,5903.058551671348
1.692,-1.297645183170608,5904.937130547431
1.696,-1.291528736481329,5896.137928685684
1.7,-1.286968893396977,5898.075808883682
1.704,-1.286512298315967,5913.011699169107
1.708,-1.2916408416084069,5908.511839719044
1.712,-1.3024360743309398,5899.065802331677
1.716,-1.3175036767389823,5896.141494952348
1.72,-1.3342239520525676,5904.99203731346
1.724,-1.3493515986486855,5901.71390374664
1.728,-1.3598503950215848,5896.187532447476
1.732,-1.3637098513615968,5906.492215146516
1.736,-1.3605319364810715,5896.279133135372
1.74,-1.3518471413056443,5902.274292427716
1.744,-1.3411783406589803,5899.553553693188
1.748,-1.3337625079064204,5902.535592207587
1.752,-1.3357562282687956,5907.50941176845
1.756,-1.3528176388750006,5897.446895093854
1.76,-1.3881093694880302,5906.05151942317
1.764,-1.4399315349227468,5897.941203521718
1.768,-1.4994009866167826,5894.675524393939
1.772,-1.5488636854231024,5895.439307774694
1.776,-1.5619604276009371,5907.668859820425
1.78,-1.5062628553910735,5899.48741669068
1.784,-1.3489509367916845,5913.923159218988
1.788,-1.0650198645235338,5898.549105287825
1.792,-0.6461664499040152,5897.046266478339
1.796,-0.10738483016584344,5905.9252464173005
1.8,0.5118227092274678,5884.999593593816
1.804,1.1533181237403523,5883.430430736258
1.808,1.7522898691870596,5894.0363889848
1.812,2.2515661936395657,5916.889323867058
1.816,2.613453497864039,5927.175604030292
1.82,2.8255705238490694,5948.306005769305
