时间(s),电压(V),幅值(高频80K)
0.0,-1.243651560437768,5899.585508103094
0.004,-1.2004163046801284,5902.711287577268
0.008,-1.1656835616354815,5899.103002700185
0.012,-1.1451428391937397,5895.222394007478
0.016,-1.1406137416992481,5906.096040500883
0.02,-1.1498626985976965,5897.272888488744
0.024,-1.1676051526146247,5894.704846872874
0.028,-1.1872202109001093,5900.272002986118
0.032,-1.2026741997040606,5890.543475463332
0.036,-1.2102115353220662,5894.9373881705815
0.04,-1.209368165029608,5892.784066862069
0.044,-1.2029250353139591,5900.096628475374
0.048,-1.1957475474464179,5901.982522543757
0.052,-1.1929476327378814,5899.363880137468
0.056,-1.1980992321047923,5894.1879690124615
0.06,-1.2121338429710105,5891.427736047
0.064,-1.2331792847292997,5899.513063578435
0.068,-1.257257340622388,5906.1466827166605
0.072,-1.2795521242052597,5900.24286717847
0.076,-1.2958357935810811,5899.0052096585005
0.08,-1.3035737703339856,5891.283216873834
0.084,-1.3023656785198205,5899.019107384805
0.088,-1.2937269171022057,5893.761067220765
0.092,-1.2804930033658306,5899.985806984354
0.096,-1.2660684099445225,5902.482034872713
0.1,-1.2535101539799816,5898.833493427116
0.104,-1.2444707102303292,5899.527419920155
0.108,-1.23839440480503,5892.446034663379
0.112,-1.2325764320227963,5899.670416890473
0.116,-1.2233224216116023,5898.550979852451
0.12,-1.207705093681366,5891.753164270929
0.124,-1.1849733583428153,5901.7784871405
0.128,-1.1569315042231185,5906.383221519541
0.132,-1.1272880452816163,5904.579332774822
0.136,-1.1004704584191958,5891.279699286553
0.14,-1.0804384511495357,5900.939548916361
0.144,-1.069808237124428,5893.966450336235
0.148,-1.0694315985722773,5898.559636813488
0.152,-1.0785013793685043,5902.8034309896975
0.156,-1.0951223115757653,5891.11568984397
0.16,-1.117081515609502,5907.181823655003
0.164,-1.1424623838760823,5904.154032815195
0.168,-1.1698518118379968,5891.530648529519
0.172,-1.198091729708827,5892.520361222375
0.176,-1.225736277756214,5903.132418507546
0.18,-1.2505523687009943,5900.511810244599
0.184,-1.2694299851612987,5897.926983943828
0.188,-1.2788851717339123,5892.546276224285
0.192,-1.2760665466898182,5895.127167826646
0.196,-1.2599539421373225,5892.756770118789
0.2,-1.2322842005933485,5897.212787177421
0.204,-1.1977131262168519,5901.4258874472425
0.208,-1.1629610275232005,5899.277911039513
0.212,-1.1351452563642648,5902.767633908547
0.216,-1.1198720282139054,5904.876885342543
0.22,-1.1197014506935767,5901.456443540359
0.224,-1.1333828688595047,5900.282400217403
0.228,-1.1560061122550493,5904.578015099517
0.232,-1.1800382340490327,5891.342324231818
0.236,-1.1970661392833528,5902.698266616389
0.24,-1.1998788451787576,5907.33544715246
0.244,-1.1843512956915916,5903.261923399678
0.248,-1.1505943260351168,5902.807883467982
0.252,-1.1030897462671527,5899.6319354255975
0.256,-1.0498544395850873,5910.3679606454
0.26,-1.0008252915919036,5897.249645185436
0.264,-0.965696792439183,5907.426631794202
0.268,-0.951639157671201,5898.926026737075
0.272,-0.9615938552065284,5896.942600818828
0.276,-0.9937704949478734,5900.693280815908
0.28,-1.0424474881767594,5907.85314611079
0.284,-1.0996056315520204,5899.906819956869
0.288,-1.156697297190078,5893.208803028982
0.292,-1.2060223478415812,5899.192002663555
0.296,-1.2415496369557302,5899.296466172546
0.3,-1.259339492509846,5901.990686680895
0.304,-1.2578217876156697,5896.564459946612
0.308,-1.2380614380458015,5899.064211717258
0.312,-1.2039006265574639,5896.593160926529
0.316,-1.1616650402735296,5896.445211270538
0.32,-1.1191635066528056,5888.293938303374
0.324,-1.084063973283652,5905.928672874152
0.328,-1.0621399551601722,5904.19190986918
0.332,-1.0559945210423856,5899.520140010372
0.336,-1.0646444790067986,5898.488044669522
0.34,-1.0840337555534056,5902.439639758214
0.344,-1.1082927916077392,5895.344685163606
0.348,-1.1313607910117525,5899.160062062815
0.352,-1.1484843296600553,5900.260971773188
0.356,-1.1571722698739626,5891.7328162412
0.36,-1.1573811381274142,5902.507140673381
0.364,-1.1509417021147428,5894.131814539142
0.368,-1.1404861263636723,5897.430495634646
0.372,-1.1283383649460677,5899.220123941514
0.376,-1.1158504374131093,5896.728757362887
0.38,-1.1034321130957467,5901.845700487844
0.384,-1.0911569055685364,5899.915866645984
0.388,-1.0795470462834917,5894.542519079855
0.392,-1.0700675125399826,5902.532307742008
0.396,-1.065009700311754,5895.407368152801
0.4,-1.066765013784569,5893.073246219925
0.404,-1.0768250985050896,5897.337530485617
0.408,-1.0949897373836732,5904.501287346314
0.412,-1.119135167340354,5885.118009651812
0.416,-1.1456256589919283,5893.210092737904
0.42,-1.1702042847604672,5895.4436638150055
0.424,-1.1890374077283763,5903.551841587702
0.428,-1.1995584820999943,5902.730010993406
0.432,-1.2009026868312933,5907.639787413863
0.436,-1.1939641380523083,5908.043112220386
0.44,-1.181262092142469,5904.57212633175
0.444,-1.1667394107076072,5894.865434207225
0.448,-1.1553807140664198,5900.45707069375
0.452,-1.152395043371897,5899.61947559942
0.456,-1.161916168075108,5884.363693803601
0.46,-1.1856095236212694,5889.97587882389
0.464,-1.2218073814434962,5904.334034236218
0.468,-1.265611825841861,5899.000267851895
0.472,-1.3100014846923147,5895.4739212779605
0.476,-1.3476070434282659,5897.307624405872
0.48,-1.3725944332971698,5906.013706109352
0.484,-1.3820726119924565,5896.93823648002
0.488,-1.3766276863888807,5900.294814045727
0.492,-1.3598766025873703,5897.007879089542
0.496,-1.337218766033732,5900.263518758485
0.5,-1.314183255722651,5902.522663084343
0.504,-1.2948862790677642,5899.969887857675
0.508,-1.2810867117499558,5903.621110944348
0.512,-1.2721267068502424,5905.920798033229
0.516,-1.2657101481399529,5897.97924913
0.52,-1.2591468413265092,5899.207584265717
0.524,-1.2505406551337646,5903.323795942468
0.528,-1.2394849180232155,5903.284906841439
0.532,-1.2270597643311059,5912.283473001154
0.536,-1.2151789571973688,5910.517104764741
0.54,-1.205565044776269,5893.21092736785
0.544,-1.1988155567554077,5903.103959256137
0.548,-1.1940418218611397,5898.214649628504
0.552,-1.189304473594649,5902.168582986571
0.556,-1.1826314112806324,5896.110975693392
0.56,-1.1730816627935639,5902.152857308008
0.5640000000000001,-1.1613362749371066,5897.857346619487
0.5680000000000001,-1.1495913486876157,5898.430265112088
0.5720000000000001,-1.1408685195641328,5904.294160342432
0.5760000000000001,-1.1380823170898269,5893.427943712172
0.58,-1.143250429897735,5902.199703108427
0.584,-1.1570989246348822,5901.406767603663
0.588,-1.1790880843715186,5906.904425374371
0.592,-1.2076936734883361,5896.017044194332
0.596,-1.2406838337846269,5900.6784643999845
0.6,-1.2751717643119231,5905.945215273064
0.604,-1.3074507824657033,5898.921563454005
0.608,-1.3329410133378916,5905.802375790468
0.612,-1.3467091940692106,5899.508691502894
0.616,-1.3447448487165294,5897.868952406246
0.62,-1.3256022488977017,5901.449520393595
0.624,-1.291555202456645,5891.810723360265
0.628,-1.2484615063462234,5907.311943554539
0.632,-1.2041510566793663,5895.828560684237
0.636,-1.1659516418786844,5898.973305209285
0.64,-1.1384442274523243,5902.350545645135
0.644,-1.1224536602503015,5893.711003484742
0.648,-1.1156925783808302,5895.580077897509
0.652,-1.1146519057136437,5894.081592299757
0.656,-1.116711415359438,5902.563014766336
0.66,-1.1214159160457198,5899.672836506072
0.664,-1.130412483150435,5896.663903111317
0.668,-1.1462633128475546,5890.127128141078
0.672,-1.1707938777428242,5899.043475457225
0.676,-1.2036598043514877,5904.264047639925
0.68,-1.2416134418856353,5898.749072624144
0.684,-1.2787569013883116,5901.07302941468
0.6880000000000001,-1.307849333890268,5912.233704459551
0.6920000000000001,-1.3223565738642218,5904.255011558909
0.6960000000000001,-1.3185267737889552,5899.890043206546
0.7000000000000001,-1.2966855515817557,5895.665084406527
0.704,-1.2612935090910218,5895.975501444422
0.708,-1.2198545438622292,5899.113612433728
0.712,-1.181145383703539,5903.335734196886
0.716,-1.1532887304363855,5902.011446998091
0.72,-1.1420274800323573,5899.723786269846
0.724,-1.1494143191282713,5906.349578065207
0.728,-1.1731402271030131,5894.814763454423
0.732,-1.2067838240812512,5898.38522251436
0.736,-1.241138816971358,5905.045077056029
0.74,-1.2664052724372448,5901.862172321554
0.744,-1.274660352973741,5899.498940624071
0.748,-1.2619325119888425,5900.2465472797285
0.752,-1.229365404555574,5903.046787223733
0.756,-1.1831703455287959,5901.945101834472
0.76,-1.1332768998370069,5900.345225416767
0.764,-1.0909072200999408,5903.541315334247
0.768,-1.0657145259650558,5898.873651164686
0.772,-1.0633996232724723,5904.653407641873
0.776,-1.0845850859017798,5901.513918461183
0.78,-1.1251766298228756,5899.299364987463
0.784,-1.177793521965618,5894.5910843432775
0.788,-1.2335310094110072,5896.810105413643
0.792,-1.283491194238943,5902.540850504764
0.796,-1.3199334276829424,5897.261649782102
0.8,-1.337177892922093,5905.6937054996215
0.804,-1.332392014952601,5909.421700421897
0.808,-1.3061845152420617,5899.348293898696
0.812,-1.2627381010432994,5889.488457165958
0.8160000000000001,-1.209237217788524,5904.123879865012
0.8200000000000001,-1.1546051410314977,5895.860290292219
0.8240000000000001,-1.1078420245595697,5898.723372481463
0.8280000000000001,-1.076353935156252,5905.226602733678
0.8320000000000001,-1.0645886949177485,5906.322268109624
0.836,-1.0731852867590563,5899.54985979881
0.84,-1.0987866134332973,5904.687484605776
0.844,-1.1346130742691263,5898.768621458071
0.848,-1.171757731866333,5895.569716355752
0.852,-1.2009683992247175,5903.630089238578
0.856,-1.2145558838498876,5901.032184754277
0.86,-1.208060233466184,5893.347351491931
0.864,-1.1813355736314144,5893.151465834383
0.868,-1.1387441943627294,5896.2852514773895
0.872,-1.0882920454242961,5899.489003507672
0.876,-1.0398554667135353,5894.0494860029685
0.88,-1.0029852926308946,5894.974827672422
0.884,-0.9848910877367453,5895.93303372007
0.888,-0.9890470478017594,5896.852097967176
0.892,-1.014592629604005,5891.245108011935
0.896,-1.0565380942828426,5904.372784455219
0.9,-1.1067568700282455,5898.714091724317
0.904,-1.1556844758358376,5896.907705704755
0.908,-1.1944376205711886,5900.882892148165
0.912,-1.2168446362678549,5896.493538113224
0.916,-1.2208336692206756,5910.440209969965
0.92,-1.208781109356128,5900.751583960163
0.924,-1.1866840771624474,5903.805511644368
0.928,-1.162348857813079,5898.496637394181
0.932,-1.1431565514067465,5903.881650753388
0.936,-1.1341952833882496,5893.209202234014
0.94,-1.1373801267234223,5900.369819062905
0.944,-1.1516304954699528,5898.07958188792
0.948,-1.1736342259658847,5900.469757608004
0.952,-1.1986211557026336,5894.525991432922
0.956,-1.2209323555897285,5890.686774071013
0.96,-1.2346231886311507,5902.287858630174
0.964,-1.2344357823269725,5890.628771407981
0.968,-1.2171347015680392,5897.716268438317
0.972,-1.1827639129313203,5904.856672740797
0.976,-1.1352368319023791,5905.2189844587765
0.98,-1.0818825254966413,5899.152061257273
0.984,-1.03196863499227,5903.385617637127
0.988,-0.9946076267126811,5889.694573006731
0.992,-0.9766641984420628,5893.610833961952
0.996,-0.9812285883120286,5909.625620190736
1.0,-1.0069778791610828,5899.190689857644
1.004,-1.0485016734154216,5905.381005534466
1.008,-1.0975091757066617,5906.756542755539
1.012,-1.1446875230599352,5902.696836173805
1.016,-1.1817803289024913,5901.5414212142
1.02,-1.203297367431183,5895.626773442807
1.024,-1.2073375607028467,5898.6408435691255
1.028,-1.1953612705417531,5898.2707280478735
1.032,-1.1711970956515614,5892.10039013055
1.036,-1.13982510517539,5900.646235497125
1.04,-1.1063988490258927,5908.812244267613
1.044,-1.0756762985596051,5899.157786733328
1.048,-1.0517735530390795,5901.364916313146
1.052,-1.0380503383587278,5891.693384006292
1.056,-1.0369410211885475,5900.908137567075
1.06,-1.0496267187043378,5913.957961315353
1.064,-1.0756003270743977,5899.873960203453
1.068,-1.1123254946910426,5907.244282128855
1.072,-1.1552122439244763,5895.719185511545
1.076,-1.1980271364671233,5895.456099029214
1.08,-1.2337481090838722,5906.217521100956
1.084,-1.2558160667925544,5905.614464246976
1.088,-1.2596351175179208,5905.406171881656
1.092,-1.243983138964323,5888.190989246424
1.096,-1.2118480359658503,5896.620987612713
1.1,-1.170269092980225,5901.544051900358
1.104,-1.129040460868307,5894.779581844656
1.108,-1.0984886642894662,5904.563378550558
1.112,-1.086839525031771,5897.66635989907
1.116,-1.0978887543791565,5895.976218430869
1.12,-1.1297436355788053,5895.008241779021
1.124,-1.1751959598140251,5899.722401706369
1.128,-1.2237325509582229,5899.587968450782
1.132,-1.2644863112895763,5893.799476565114
1.136,-1.2890280775891816,5899.993573129882
1.14,-1.2930840535107344,5901.248480181364
1.144,-1.2768819807956042,5901.130159079491
1.148,-1.2444479317120596,5899.343489940763
1.152,-1.202425118862643,5905.153543274522
1.156,-1.158827525235797,5905.319102798288
1.16,-1.1218591375556504,5908.213640986544
1.164,-1.0987991703057456,5901.695970856708
1.168,-1.0949744283662262,5904.402352173819
1.172,-1.1128733908145607,5904.7987051505
1.176,-1.151471297958401,5899.128577614208
1.18,-1.2058946095785406,5895.334585614037
1.184,-1.2676575662819414,5892.638244884923
1.188,-1.3257354974355156,5890.595432497516
1.192,-1.3685659626988376,5912.908473018506
1.196,-1.3866908112990308,5914.607196292595
1.2,-1.3753344906585203,5898.320581017595
1.204,-1.3360074586223538,5909.208983684166
1.208,-1.2764400911009903,5908.162847725428
1.212,-1.2087611199056345,5903.46953868941
1.216,-1.1465005685355325,5897.566229310804
1.22,-1.101366864385429,5894.924061220568
1.224,-1.080720254774383,5898.170629357973
1.228,-1.086335994312044,5896.901860321888
1.232,-1.1145945244278188,5905.70647731472
1.236,-1.157856033727227,5895.55112833498
1.24,-1.2065700028813955,5906.880884062005
1.244,-1.2515693526212772,5901.276460240312
1.248,-1.28596930893516,5893.817044336859
1.252,-1.3062183616181497,5904.270443906695
1.256,-1.3121437091334884,5897.364077064191
1.26,-1.3061478516731309,5896.998659099712
1.264,-1.2919064385806174,5899.676488398642
1.268,-1.2729852692986887,5902.776056824372
1.272,-1.2517968506884294,5904.707780645985
1.276,-1.2292403740156266,5902.851473889751
1.28,-1.2051239384763826,5905.951628538615
1.284,-1.1790828030194236,5896.052820589519
1.288,-1.151438692923898,5901.355009933531
1.292,-1.1235353851369618,5899.486918067176
1.296,-1.0974573769514357,5911.015895856952
1.3,-1.0753807147887902,5909.185885407074
1.304,-1.058920615717018,5900.347733010421
1.308,-1.0487625255321806,5903.878744540892
1.312,-1.0446865630692115,5896.2375459939
1.316,-1.045887475941494,5892.763869924009
1.32,-1.0513633621332117,5896.375681802359
1.324,-1.0601882199756856,5890.444066607704
1.328,-1.0716226175143904,5901.613986707088
1.332,-1.0851033780413188,5896.395738622265
1.336,-1.1001573656261563,5903.419154442406
1.34,-1.1162795905031684,5894.735194054007
1.344,-1.132838647608283,5899.962138636965
1.348,-1.149081143744618,5901.590326441022
1.352,-1.1642465170687988,5898.182408805018
1.356,-1.1777042933149164,5906.574603922349
1.36,-1.1890030922337103,5900.792618344338
1.364,-1.1978216083965423,5894.35810941495
1.368,-1.203920062608825,5894.291196693575
1.372,-1.2071729122473775,5902.961317079126
1.376,-1.207645246203123,5903.474278095138
1.38,-1.205591773061195,5902.451283313523
1.384,-1.2012899406347357,5896.677587705359
1.388,-1.1947403964605896,5895.2743298297055
1.392,-1.1853934221780682,5898.67728272854
1.396,-1.1720986089564585,5899.457636618547
1.4,-1.1533921947151644,5900.2780356396825
1.404,-1.1280866848185378,5897.334464374889
1.408,-1.095989542596498,5904.322367562907
1.412,-1.0584962607345092,5904.74657329228
1.416,-1.0188083961537502,5900.526003442243
1.42,-0.9816253502095822,5905.867231662522
1.424,-0.952305435590345,5900.572494873682
1.428,-0.935654681139562,5900.061855218862
1.432,-0.934683186139434,5894.526959561777
1.436,-0.9497837893076674,5891.146756877567
1.44,-0.9786595328686635,5896.186748034516
1.444,-1.0169489690447582,5896.951795502891
1.448,-1.0591695057143824,5900.706026825322
1.452,-1.099613159971353,5897.940364573331
1.456,-1.1331087151609323,5894.244192936448
1.46,-1.1557487268318256,5904.727970410693
1.464,-1.1655805885246286,5891.141908274492
1.468,-1.16306884716732,5906.272574740931
1.472,-1.151099918353148,5899.57967375975
1.476,-1.134419755265357,5898.294090199186
1.48,-1.1185611329379288,5896.977647948888
1.484,-1.1084877360644159,5903.968955037872
1.488,-1.107302344016543,5901.204926008153
1.492,-1.115367949865716,5888.908118733306
1.496,-1.1301016528967898,5899.760912064727
1.5,-1.1465774456999716,5901.838980223123
1.504,-1.1588883322937114,5900.16352609191
1.508,-1.16194913434713,5899.406754283964
1.512,-1.1531738238065814,5896.273742405343
1.516,-1.1334135866840995,5906.61124416922
1.52,-1.106789646662348,5904.728323421973
1.524,-1.0794997320737072,5899.71632921456
1.528,-1.0580644745937786,5894.409975711838
1.532,-1.0475999888540037,5900.7740554416405
1.536,-1.050569410187956,5902.603512656079
1.54,-1.0662518718630853,5906.471396774885
1.544,-1.0909815804371323,5901.690284316385
1.548,-1.1190515517532436,5909.740696678902
1.552,-1.144066575887267,5900.220743909826
1.556,-1.1604872594252493,5904.546521329447
1.56,-1.1650549010898998,5899.881222711403
1.564,-1.1577020101636641,5910.258886002801
1.568,-1.1415879683515031,5902.061139960262
1.572,-1.122167928874032,5904.258714938878
1.576,-1.105586766145485,5898.224187715305
1.58,-1.0969474433615336,5898.114946046294
1.584,-1.0989842390093492,5900.572712878773
1.588,-1.111438654036001,5890.941043879658
1.592,-1.1311935649948754,5900.2282950868685
1.596,-1.1530825510660383,5900.0858819382665
1.6,-1.1711953163850273,5895.816184920816
1.604,-1.180388637600683,5905.8593181595415
1.608,-1.1776435813618285,5897.325048122921
1.612,-1.1629296496309929,5897.488784666671
1.616,-1.1393125715871437,5901.747387536529
1.62,-1.1122128535782185,5904.242280332723
1.624,-1.0880436272077552,5905.568420995611
1.628,-1.0727397498473366,5904.4511891706325
1.632,-1.0706523414508606,5890.898350340146
1.636,-1.0839663058250704,5897.570128633549
1.64,-1.112517244236583,5902.753958307912
1.644,-1.1538352257353373,5902.990200348766
1.648,-1.2033624081105894,5900.067293702237
1.652,-1.2548972409138988,5899.803429786132
1.656,-1.301302466118719,5891.271546809542
1.66,-1.335431756904483,5897.411174473794
1.664,-1.3511903905618512,5894.471587938277
1.668,-1.344636229431617,5896.28777316524
1.672,-1.314951629595602,5900.876094562268
1.676,-1.2650110868694946,5891.045611500354
1.68,-1.201289409281526,5901.244188457811
1.684,-1.1330234369098258,5895.178991034591
1.688,-1.0707200305749323,5903.003653447634
1.692,-1.024229668340854,5903.175928870319
1.696,-1.0007391765138065,5904.750121025723
1.7,-1.0031770456249018,5897.434437166835
1.704,-1.0295287053970206,5897.526728038734
1.708,-1.0733091690366292,5906.276668743634
1.712,-1.1250249149566083,5903.378891570134
1.716,-1.17414087826351,5901.74031979335
1.72,-1.2110492092740368,5897.361396027808
1.724,-1.2287376643550567,5898.546334618992
1.728,-1.22402626290294,5900.67733526572
1.732,-1.1982360662974363,5907.788680876779
1.736,-1.1570532383184307,5898.900102619117
1.74,-1.1093688831328434,5897.294086616266
1.744,-1.0651740219981958,5905.641808953873
1.748,-1.0330686244657845,5893.54987302009
1.752,-1.0182403873635575,5902.889468128161
1.756,-1.0216074578708556,5891.8656498690125
1.76,-1.0403009200001827,5896.559753579466
1.764,-1.0691191158742859,5906.434528942949
1.768,-1.102267229545884,5898.869387701484
1.772,-1.1346925959200744,5903.888313810961
1.776,-1.162629074994262,5902.6542547483605
1.78,-1.1834360732098226,5893.119160049612
1.784,-1.1951891236703547,5905.055125472229
1.788,-1.1965119196674598,5898.357155762991
1.792,-1.186843491391965,5903.316935495327
1.796,-1.166970676758675,5894.883403323333
1.8,-1.139492725800397,5901.501870873151
1.804,-1.108954595929668,5889.311992473159
1.808,-1.0815166254720705,5902.97242700489
1.812,-1.0640921246706787,5913.270007549433
1.816,-1.0629387586351435,5898.497478614525
