时间(s),电压(V),幅值(高频80K)
0.0,-1.4058473145243637,5896.373500832141
0.004,-1.395872497479026,5908.618711237037
0.008,-1.38738691072817,5898.938577779169
0.012,-1.3809141654390122,5907.073877240847
0.016,-1.3763249444571655,5898.253391866381
0.02,-1.3730477527702838,5899.171674262901
0.024,-1.370305647722066,5891.568662762571
0.028,-1.3672582087973297,5910.512130914684
0.032,-1.3631625463378185,5894.879084297185
0.036,-1.357693355610334,5896.724623022843
0.04,-1.3513413613529364,5899.05919752935
0.044,-1.3455906075255855,5904.20363035956
0.048,-1.342600775247062,5890.4380600670665
0.052,-1.344395478590195,5896.747712135821
0.056,-1.3518585353086061,5907.213027173398
0.06,-1.3639612448940364,5900.660528199412
0.064,-1.3775913637932655,5899.204561581845
0.068,-1.3882087725856675,5906.376994645708
0.072,-1.3912697140608161,5912.091996389459
0.076,-1.3839381238254818,5893.907845965241
0.08,-1.3663095353244534,5891.201665180761
0.084,-1.3415369357834492,5891.043428506888
0.088,-1.3148260199379127,5903.912596179421
0.092,-1.2918333599657883,5898.803356882342
0.096,-1.2771689032001168,5896.633620247282
0.1,-1.2734731640801003,5906.681916162645
0.104,-1.2812013916658516,5897.194811772377
0.108,-1.2990150687023765,5905.325628813744
0.112,-1.3245284987526778,5901.797451369538
0.116,-1.3550275205739062,5896.770099629579
0.12,-1.3877764492500966,5906.107231274724
0.124,-1.4198034236875006,5903.225263447394
0.128,-1.447492792424649,5894.164121273136
0.132,-1.4665313108032088,5905.006645019304
0.136,-1.4725176647573366,5902.358734734802
0.14,-1.4620771836083877,5901.614575245028
0.144,-1.4340148937338584,5898.151414323404
0.148,-1.3900271711861225,5906.933672189302
0.152,-1.3346857146980748,5900.5334419643295
0.156,-1.2746781983282502,5895.381947120153
0.16,-1.2175102765638302,5899.70501580521
0.164,-1.169980053340777,5898.997263815306
0.168,-1.1367808970177884,5903.594955058463
0.172,-1.1196111286920947,5904.569796189005
0.176,-1.1170956777596086,5899.1109192528365
0.18,-1.1255875916490854,5900.935274342926
0.184,-1.1405942415462806,5896.229941025016
0.188,-1.1583355048054649,5907.408213869372
0.192,-1.176893390201829,5906.029501761163
0.196,-1.1965415317651182,5907.80546998197
0.2,-1.219111924266257,5892.46083118213
0.204,-1.2466341052394532,5903.238190294491
0.208,-1.2798447165458051,5904.2655241137245
0.212,-1.3172863309016727,5895.873208136378
0.216,-1.3554423307749732,5903.641050865324
0.22,-1.3898017072087236,5899.9014827966175
0.224,-1.4162664847200774,5893.6292857761055
0.228,-1.432223895406813,5910.197835604739
0.232,-1.4369132194014878,5901.629726706644
0.236,-1.4311396495908248,5898.004864597773
0.24,-1.4166399239566245,5904.993052974082
0.244,-1.3954289506280528,5904.667428350567
0.248,-1.369350880038547,5905.396262954256
0.252,-1.3399037194798225,5893.532463489064
0.256,-1.308272736248028,5900.305327180209
0.26,-1.275466103746844,5905.575655977551
0.264,-1.2424732206711182,5907.849322290479
0.268,-1.2103871811289526,5900.484601544808
0.272,-1.1804577047666005,5894.784003542033
0.276,-1.1540976457021623,5903.944696389022
0.28,-1.1328980314341162,5889.210138012533
0.284,-1.1186625775197736,5900.430359696792
0.288,-1.113391989825769,5907.379735041549
0.292,-1.1190996389569066,5900.740072059569
0.296,-1.1373722749493054,5895.476256625531
0.3,-1.168723258150031,5899.870511688819
0.304,-1.211961864305948,5896.882618199863
0.308,-1.2638800112837638,5910.070944948771
0.312,-1.3194515053187004,5907.464325821457
0.316,-1.3725290427162085,5901.927561777278
0.32,-1.4168654043065234,5894.850574300041
0.324,-1.4472257309517373,5905.443236925963
0.328,-1.4603463807346626,5900.30435976002
0.332,-1.455527064136059,5899.406594982243
0.336,-1.434734228488517,5901.694263519307
0.34,-1.4021925367909995,5896.461873277954
0.344,-1.3635261347473782,5900.273050547849
0.348,-1.3246356185824675,5907.347260398896
0.352,-1.2906065394320934,5897.3831646324525
0.356,-1.2648964270214589,5900.561957313688
0.36,-1.2488732560936993,5896.797329897076
0.364,-1.241681988941026,5900.214748597725
0.368,-1.2404763576783666,5906.4660231166135
0.372,-1.2411286276884155,5903.582293860186
0.376,-1.239431932257783,5903.166513093477
0.38,-1.2325167420832344,5906.883322013912
0.384,-1.219950366322932,5899.736050195038
0.388,-1.2040603468110915,5901.221576528191
0.392,-1.1893821424399034,5903.5208020845685
0.396,-1.1814416251886097,5904.818133984747
0.4,-1.185175871825751,5907.252392546287
0.404,-1.2033414230476664,5901.597840511483
0.408,-1.2353725571135283,5899.916959445365
0.412,-1.2771614568337994,5895.662207628172
0.416,-1.3219704864735733,5905.595021435877
0.42,-1.3622487057443677,5900.767314459687
0.424,-1.3917398271176198,5901.49968418098
0.428,-1.4071184178483096,5899.798957562162
0.432,-1.4085705671823816,5909.439515837183
0.436,-1.399204449888787,5898.696259326523
0.44,-1.3836957406074122,5900.4293695468
0.444,-1.3668221803051306,5907.5931206165305
0.448,-1.3523962719281848,5902.6090341613335
0.452,-1.3427424921459825,5898.669640115602
0.456,-1.3385659483828645,5898.863620067109
0.46,-1.3389891385118728,5898.806758752266
0.464,-1.341685081543033,5903.915130438848
0.468,-1.343238584821522,5900.561806764666
0.472,-1.339899169393148,5908.205738862797
0.476,-1.328677446827185,5896.716194233828
0.48,-1.3084412340424878,5896.689012751536
0.484,-1.2805393991015273,5895.542388753734
0.488,-1.2486469156167601,5908.3314918610495
0.492,-1.217880076348856,5903.043334976449
0.496,-1.1935382872762457,5893.992972931932
0.5,-1.1799065905461756,5898.21804303797
0.504,-1.1793977636381827,5897.828818463725
0.508,-1.1920988574079834,5906.17042487328
0.512,-1.2157138021713736,5902.306776414656
0.516,-1.245966178202518,5902.717444322518
0.52,-1.2775258277209378,5901.261374167484
0.524,-1.3052876463887515,5893.084380353335
0.528,-1.325540703839531,5904.49688756381
0.532,-1.336570834762715,5894.604737923124
0.536,-1.3385809929321744,5893.831332277372
0.54,-1.3331636919485834,5897.363815789609
0.544,-1.3226606863302317,5902.627128538579
0.548,-1.309641289266729,5905.782308219176
0.552,-1.2965827698840307,5897.859606611528
0.556,-1.2857319235327018,5898.410404150351
0.56,-1.2790836147743807,5905.184753205472
0.5640000000000001,-1.278415878394804,5893.381095602117
0.5680000000000001,-1.285317078348604,5902.906984922765
0.5720000000000001,-1.3010774884073715,5908.216656191605
0.5760000000000001,-1.3262702891447051,5895.505811051021
0.58,-1.3599912618387346,5897.225611219245
0.584,-1.399085148884333,5903.027562101665
0.588,-1.4379805369789285,5897.800649763665
0.592,-1.4696326665116184,5893.221586319732
0.596,-1.4874952407717013,5894.045862184107
0.6,-1.487779218354822,5892.483730811015
0.604,-1.4709840167522197,5895.211495486391
0.608,-1.4419924839428824,5894.383989464747
0.612,-1.4086865369582693,5907.29019369884
0.616,-1.3796484252396597,5904.477210556171
0.62,-1.3617777980667491,5891.007871744153
0.624,-1.358569395111556,5900.844750989706
0.628,-1.3694917420106236,5901.415130979699
0.632,-1.3905047028249373,5896.553599139167
0.636,-1.4153919119226361,5896.954245007032
0.64,-1.4374168881902605,5908.179550353791
0.644,-1.4508643417460987,5904.559315275101
0.648,-1.4521669051279626,5896.735806714732
0.652,-1.4404340551452852,5898.338786358312
0.656,-1.4173285793742643,5905.182006959892
0.66,-1.3864187473641094,5897.23061003669
0.664,-1.3522835783625715,5902.765841929531
0.668,-1.3196515961613098,5903.702763211997
0.672,-1.2927268259564242,5895.009560203251
0.676,-1.274712961654144,5901.5880886491705
0.68,-1.2674873153782804,5901.088110317253
0.684,-1.2714150024023076,5895.478673020656
0.6880000000000001,-1.2853347275034765,5903.988057783006
0.6920000000000001,-1.3066961334861313,5908.523698551339
0.6960000000000001,-1.331759586812373,5896.605151449049
0.7000000000000001,-1.355835075562141,5897.679375490211
0.704,-1.3737011052998653,5908.708390213059
0.708,-1.3803931403456884,5895.97185094863
0.712,-1.372372043534318,5901.391717450854
0.716,-1.348780393850753,5899.654553198646
0.72,-1.3122675348162978,5896.7174125182655
0.724,-1.2688835966427976,5902.4094948643005
0.728,-1.226866638059575,5904.039412555904
0.732,-1.1946383732687136,5898.119973221839
0.736,-1.1786933420024952,5902.056381157962
0.74,-1.1820826375443492,5894.265782081386
0.744,-1.2038721724919441,5897.492527827022
0.748,-1.2395471651065513,5895.422513770475
0.752,-1.2821034502488775,5899.482832486871
0.756,-1.3235511130304916,5892.355362545975
0.76,-1.3565860611658853,5904.82540678
0.764,-1.3761306627583045,5895.150414138507
0.768,-1.3803636313458019,5892.20742598133
0.772,-1.3709030460992175,5902.267660377855
0.776,-1.3520517912716556,5910.918960956128
0.78,-1.3293792773094952,5896.509241347061
0.784,-1.3081900511324518,5896.579114564148
0.788,-1.292426931318462,5910.262567007685
0.792,-1.2842582263526021,5896.352951583764
0.796,-1.284206895393828,5899.314236954856
0.8,-1.2914578171499058,5901.714142269211
0.804,-1.3040428942441284,5894.052515002857
0.808,-1.318864747483538,5890.556853325496
0.812,-1.3317828429190481,5898.096018863655
0.8160000000000001,-1.3380626097296235,5896.233398927266
0.8200000000000001,-1.3333117006066142,5905.752402582343
0.8240000000000001,-1.3147230503119702,5897.460751218939
0.8280000000000001,-1.2822225489748311,5895.951129634936
0.8320000000000001,-1.2390810437842537,5909.086762455747
0.836,-1.1916584737617875,5902.012271930869
0.84,-1.1481561907694073,5904.414115031074
0.844,-1.116564437473459,5898.382698500651
0.848,-1.1023638168838827,5902.513804164511
0.852,-1.1067960863395259,5900.612472600887
0.856,-1.126439943660679,5908.463828022512
0.86,-1.1543598452885788,5900.855477965382
0.864,-1.1824431572585203,5895.8569942857575
0.868,-1.2040346869360756,5910.551261119881
0.872,-1.2158744463993096,5899.459799598283
0.876,-1.2186860664683465,5892.989648448215
0.88,-1.216365760649625,5911.43451511223
0.884,-1.2142727901604637,5902.664814039488
0.888,-1.2173563017790936,5893.9984853533215
0.892,-1.2287266089664401,5910.151875735277
0.896,-1.2489628940472781,5889.814567844554
0.9,-1.2761442673081997,5897.883486017367
0.904,-1.3063983977112066,5896.290444464766
0.908,-1.3347010811386797,5905.282358129505
0.912,-1.3557199273633744,5906.196421317284
0.916,-1.3646298732876454,5899.65948770751
0.92,-1.357930747855982,5896.73265845567
0.924,-1.3342668249491747,5897.404878130902
0.928,-1.2951143228691482,5906.245169848648
0.932,-1.2450997104195913,5899.169589476993
0.936,-1.1917168569045924,5890.341029372334
0.94,-1.1443044900284964,5897.543821218651
0.944,-1.1123212443226216,5899.753356285846
0.948,-1.10322552383272,5905.754496550433
0.952,-1.1205341092030414,5901.090030373564
0.956,-1.1627025819207357,5895.104161751974
0.96,-1.2232388858293408,5895.595681803016
0.964,-1.2920369180962954,5893.318422349604
0.968,-1.3575372024420465,5897.42243562742
0.972,-1.4091541818989488,5903.192374061485
0.976,-1.4394358354780545,5899.488556725572
0.98,-1.4455244945149988,5899.574710059577
0.984,-1.4296148273679894,5910.485886599875
0.988,-1.3982835840544916,5890.277612263542
0.992,-1.3608075401838586,5898.891488677409
0.996,-1.3268414147210041,5895.576654408051
1.0,-1.3040144331669976,5907.957926661747
1.004,-1.2960585393666548,5893.255022659079
1.008,-1.3019790513825835,5895.687539820474
1.012,-1.3165227804596225,5903.280428047593
1.016,-1.3318389638928259,5898.703479376321
1.02,-1.3398780696304218,5901.416464493385
1.024,-1.3348357842621523,5898.826196483651
1.028,-1.3148837897682506,5902.333750420619
1.032,-1.2826135342822944,5897.724290206727
1.036,-1.2440855700714475,5893.258550994815
1.04,-1.206943424610957,5903.54503747133
1.044,-1.1783810160669614,5903.522269082062
1.048,-1.1636435626898163,5896.609423995768
1.052,-1.1653160084483796,5888.118964873188
1.056,-1.183251381043045,5892.088670552972
1.06,-1.2148622428615956,5895.298497258558
1.064,-1.255596940146607,5904.870965599715
1.068,-1.2995519144292755,5898.975826657652
1.072,-1.340229990414141,5895.763874784408
1.076,-1.371443491570592,5898.894493930757
1.08,-1.3882862587459441,5899.608595679608
1.084,-1.3879969961926732,5903.411360907023
1.088,-1.370482296741414,5889.550131096425
1.092,-1.3383065219799162,5898.039250561401
1.096,-1.2961038411830936,5897.982168608975
1.1,-1.2495938193807863,5900.768506688825
1.104,-1.2045470436700116,5898.077075969302
1.108,-1.1660084944060334,5902.730399895624
1.112,-1.1378766258034998,5895.202865858915
1.116,-1.122738374648404,5904.235549884815
1.12,-1.121811115731111,5904.514344115118
1.124,-1.1349164682036077,5904.542047919152
1.128,-1.1604964740043697,5903.86819777542
1.132,-1.195714511237085,5906.46135240586
1.136,-1.2366686510579852,5895.907347926805
1.14,-1.2787307626751723,5910.499266790827
1.144,-1.3170565232860068,5898.428797336529
1.148,-1.3473421523067122,5897.757091756436
1.152,-1.3667808798265528,5905.705557610162
1.156,-1.374878349335994,5901.845922297525
1.16,-1.3736196773435694,5909.879135159921
1.164,-1.3667384369556896,5903.9160983072925
1.168,-1.3583655151929608,5899.082835669687
1.172,-1.3516772200398839,5898.340175735172
1.176,-1.3480818803297163,5895.858484294048
1.18,-1.3471273438400513,5897.979525934678
1.184,-1.3469704846294548,5893.514165418785
1.188,-1.3451223205747216,5901.651104232286
1.192,-1.339259180286426,5897.657918067988
1.196,-1.3279969929995465,5906.495284154237
1.2,-1.3115053910626828,5906.67902213225
1.204,-1.2917272212060347,5890.505478635514
1.208,-1.2719754608138811,5906.298969223085
1.212,-1.2559315669416524,5894.926892258185
1.216,-1.2464176203779664,5905.764504663243
1.22,-1.244472854398905,5910.917873035925
1.224,-1.2491130111577005,5904.767422776141
1.228,-1.2578236985561604,5900.853151329962
1.232,-1.267544073258716,5897.778678573995
1.236,-1.2757321464380795,5906.837245655215
1.24,-1.281086035000748,5896.694180629531
1.244,-1.283654301867542,5900.998936987689
1.248,-1.2843580462861748,5898.6211141039175
1.252,-1.2841960000314196,5905.092619554041
1.256,-1.2835014015409492,5900.121451794587
1.26,-1.2816046312911178,5905.565994765138
1.264,-1.2771317886845166,5907.75019793822
1.268,-1.268889286786969,5896.638628304024
1.272,-1.2569583928548322,5904.809677551031
1.276,-1.2434723309568723,5890.159515560827
1.28,-1.2326443108840532,5891.368309375968
1.284,-1.2298684166118934,5901.669362573586
1.288,-1.2400584938883217,5905.297556453693
1.292,-1.2657660681985314,5895.255217226818
1.296,-1.30584465321851,5905.929971154203
1.3,-1.3552925418400008,5898.416273629637
1.304,-1.4064122092966598,5892.05759457997
1.308,-1.4508269797797158,5911.295792814422
1.312,-1.4815314974712896,5903.557396393473
1.316,-1.4942344628300024,5895.835898877991
1.32,-1.4877019207598337,5893.201373141012
1.324,-1.463306343193167,5898.234411053733
1.328,-1.4242493796891487,5897.437581628396
1.332,-1.3748824931494987,5903.7843831952005
1.336,-1.3202863145613,5901.954656834828
1.34,-1.2659795369862075,5900.534020251972
1.344,-1.217523501197993,5907.214833139857
1.348,-1.1799122745616586,5906.398518646253
1.352,-1.1568378686710217,5904.535044686379
1.356,-1.150038454390708,5898.348019975269
1.36,-1.1589304448915634,5896.240168289847
1.364,-1.1806360889234022,5904.181197505446
1.368,-1.210419095724898,5904.209977371611
1.372,-1.2424773327008258,5894.817145361869
1.376,-1.2709965396268386,5898.027193520364
1.38,-1.291295664706181,5900.910614941647
1.384,-1.300793190799479,5903.939803652914
1.388,-1.299475341743086,5899.705167013436
1.392,-1.2896552040695943,5902.390688321611
1.396,-1.275088274924136,5905.277746084819
1.4,-1.2598087768450323,5903.374654377008
1.404,-1.2471618307232655,5897.165867172722
1.408,-1.2393437792552393,5895.521312014818
1.412,-1.2374426878813791,5898.824635084881
1.416,-1.241707485192673,5901.069360174794
1.42,-1.2517285155654334,5907.4515778450295
1.424,-1.2663990486749779,5900.30035854094
1.428,-1.2837982253458902,5893.809729615835
1.432,-1.3012696422954444,5896.692276650788
1.436,-1.315854444450132,5896.523479909223
1.44,-1.324988430455864,5899.5235114611005
1.444,-1.3272104384028698,5907.727468382875
1.448,-1.3226358924164585,5899.386642869008
1.452,-1.3130370889292067,5894.233277783376
1.456,-1.301485216664389,5902.449320507902
1.46,-1.2916697309788283,5891.050134805723
1.464,-1.28714615729235,5906.219328935431
1.468,-1.2907277127864194,5906.004681264041
1.472,-1.3040515685810439,5904.543489265772
1.476,-1.3272346559637074,5899.752709996552
1.48,-1.358621938188532,5894.488549582246
1.484,-1.394787943225185,5901.525235934517
1.488,-1.4309493660175785,5897.210251762875
1.492,-1.46175853048347,5898.9177830615145
1.496,-1.4822712219287135,5899.031733675902
1.5,-1.4888662882536665,5903.404680885198
1.504,-1.4799769067339568,5897.048071911469
1.508,-1.4565274358748028,5900.385902953412
1.512,-1.421930776587826,5902.3664344162935
1.516,-1.3815133225959269,5895.948369052354
1.52,-1.3413945030682057,5906.919138725885
1.524,-1.3070897115311848,5898.762002003984
1.528,-1.282272939612524,5895.325524114635
1.532,-1.2681210478117175,5896.862679297592
1.536,-1.2634477408027622,5902.268565704408
1.54,-1.2655001383235918,5902.811069892375
1.544,-1.271014845214667,5896.398831607276
1.548,-1.2770901324009767,5899.415356239216
1.552,-1.2816293638145022,5894.516426725795
1.556,-1.2833751983360633,5896.29328471694
1.56,-1.2817153430247767,5899.701206229405
1.564,-1.2764620086586957,5900.199702767933
1.568,-1.2677435188215147,5907.989935873065
1.572,-1.256057615762628,5899.204807107672
1.576,-1.2424530805889058,5915.689287176887
1.58,-1.2287233603979564,5896.396988251606
1.584,-1.2174142283746288,5896.609213642628
1.588,-1.211453346626876,5898.650858826592
1.592,-1.2134003915182028,5901.7596990777165
1.596,-1.2246010296303282,5888.756807998157
1.6,-1.2446443702626255,5902.369123554676
1.604,-1.2713456732333903,5900.156118568185
1.608,-1.301182728769052,5901.455553315626
1.612,-1.3299650395303366,5904.826366124803
1.616,-1.3535689410186866,5897.438724345664
1.62,-1.3686857932824683,5895.366246969001
1.624,-1.3735468300087954,5904.554354926196
1.628,-1.368491914987809,5904.058355297078
1.632,-1.3561624412338182,5900.712617688755
1.636,-1.3411341326036197,5900.725057613764
1.64,-1.3289626461071855,5893.461713028503
1.644,-1.3248193035720999,5890.261758250421
1.648,-1.33206903204953,5904.530665510931
1.652,-1.3512076622006879,5900.456402771884
1.656,-1.379472636245178,5903.992515586893
1.66,-1.4112245564435058,5898.086047344894
1.664,-1.4390134004865436,5902.2803489480175
1.668,-1.4551620613064447,5897.344901489333
1.672,-1.4536440712941854,5892.0146331060005
1.676,-1.4319230799239764,5901.416205969948
1.68,-1.3923199786109925,5894.701355035551
1.684,-1.342481339712789,5896.181000215708
1.688,-1.294613766744354,5897.44453769074
1.692,-1.2632810890902582,5906.962480804709
1.696,-1.261851113298735,5890.44587333746
1.7,-1.2981827803664787,5896.504498929031
1.704,-1.3705988338759192,5895.363834252166
1.708,-1.4652717651720113,5899.677529398156
1.712,-1.5558833210741136,5901.424032699585
1.716,-1.606051249818217,5898.944259150349
1.72,-1.5746554723688417,5897.416131860889
1.724,-1.4237188528835587,5907.367729035511
1.728,-1.1277615233778784,5901.201240095919
1.732,-0.6826029463574118,5907.714298187695
1.736,-0.11080869995931722,5897.386180666724
1.74,0.5389810962596825,5907.050649924039
1.744,1.200169467713441,5891.846853800954
1.748,1.802353009033629,5902.981510987906
1.752,2.2872594913240882,5920.996085987079
1.756,2.6211268254591555,5939.20036006059
1.76,2.7996637589348516,5957.918651995883
1.764,2.844806910152542,5986.33938582603
1.768,2.795350771194682,6000.792477027323
1.772,2.695072139307448,6017.265603634826
1.776,2.5820579474126157,6038.573407472051
1.78,2.481915030593017,6057.54936741506
1.784,2.4059040372440723,6061.233194101801
1.788,2.353374231718667,6083.041253876701
1.792,2.316702509833616,6105.802452683461
1.796,2.286579838348703,6102.880451896859
1.8,2.2559354742376945,6125.832398458356
1.804,2.221703620343757,6149.213056001087
1.808,2.1845558264008176,6163.534184836823
1.812,2.14732706671521,6169.480677359506
1.816,2.1130569445634664,6179.273186009912
1.82,2.0834225667447104,6200.310779377216
