时间(s),电压(V),幅值(高频80K)
0.0,-0.690885203446462,5894.657144114703
0.004,-0.8379897615787146,5901.713688574246
0.008,-0.9676355553723861,5893.846226909289
0.012,-1.0654895915318063,5892.910270645601
0.016,-1.123528587935828,5906.722074119219
0.02,-1.1411288260560355,5898.647857402534
0.024,-1.1244121421738944,5898.575192516346
0.028,-1.0843027147290216,5913.311047144053
0.032,-1.0340796296521424,5899.506787968558
0.036,-0.9870126901877727,5900.622352840404
0.04,-0.9542712742143037,5901.504383631413
0.044,-0.9431722634393673,5896.284106579826
0.048,-0.95602262357109,5900.514708738646
0.052,-0.9899520443472889,5896.165333228335
0.056,-1.03791490421852,5901.696660720301
0.06,-1.0905488663121534,5902.46201730653
0.064,-1.1382169368251922,5903.205485005393
0.068,-1.1726565914201457,5896.492778752607
0.072,-1.1880753882282515,5897.687724360589
0.076,-1.1818015139746125,5907.628572029526
0.08,-1.1545073418835714,5898.872224620769
0.084,-1.1098746401361526,5890.243356436585
0.088,-1.0537095559942067,5903.072571506468
0.092,-0.9928198637492178,5900.947234891265
0.096,-0.9340250201127813,5897.170926287529
0.1,-0.883394438956358,5905.665851549102
0.104,-0.8455862349259173,5896.127047319266
0.108,-0.8232890407566256,5908.316875409045
0.112,-0.8170289651564069,5904.207902453332
0.116,-0.8255687434038246,5897.1366689768265
0.12,-0.8467434654442554,5895.856337077446
0.124,-0.8782232816526581,5901.386832107218
0.128,-0.9177584718406253,5899.872075944504
0.132,-0.962912123976049,5894.442344464849
0.136,-1.0106691180429925,5905.164918431909
0.14,-1.0572925752284412,5894.654218587367
0.144,-1.0985300116579952,5897.666254055539
0.148,-1.130087270836718,5900.94761436852
0.152,-1.1482786790843917,5898.10860095011
0.156,-1.150775469401336,5907.081326007817
0.16,-1.1372906122450313,5894.293617306102
0.164,-1.1099214267330026,5899.943767670024
0.168,-1.0728894295356093,5899.991260802372
0.172,-1.0316429989071345,5903.245928490682
0.176,-0.9916067641991785,5901.071124235167
0.18,-0.9570587951624974,5892.129455466422
0.184,-0.930552789705139,5908.8257227224885
0.188,-0.9130279807615077,5896.159160959405
0.192,-0.9044502878074598,5907.3223814779485
0.196,-0.9046302380714698,5885.842247098479
0.2,-0.9137840470595007,5899.737186398483
0.204,-0.9324961775771863,5903.630442546143
0.208,-0.9610490402663435,5890.745599304653
0.212,-0.9984485054999831,5899.190246853295
0.216,-1.0416487126649057,5907.904600523087
0.22,-1.085427069851607,5893.16911546797
0.224,-1.1231665394101398,5908.621755075247
0.228,-1.1484539891851782,5897.403509441716
0.232,-1.1569388732452506,5903.314311849733
0.236,-1.147626040098652,5898.661930555801
0.24,-1.123017409020037,5896.538699005552
0.244,-1.0881454163286919,5902.868117534053
0.248,-1.0490483272020026,5903.852816448652
0.252,-1.0112873786189727,5898.023695025043
0.256,-0.9788650098981782,5901.0785245069055
0.26,-0.9537111091371947,5904.365832980038
0.264,-0.9358131943930132,5904.862180220779
0.268,-0.9239196323690916,5903.460711644799
0.272,-0.9165196696817808,5889.173134600217
0.276,-0.9126663295272472,5897.600395696078
0.28,-0.9123010234217528,5911.374502989321
0.284,-0.9160120167907427,5901.861775734524
0.288,-0.9244174007985314,5911.7667819279295
0.292,-0.9374676636175941,5904.1419956949885
0.296,-0.9539322841958766,5901.116712245767
0.3,-0.9712597181088368,5904.004714068386
0.304,-0.9859303353757456,5895.688891344142
0.308,-0.9943172058074258,5901.893092972261
0.312,-0.9938480569817321,5909.543034820923
0.316,-0.9839873818208358,5901.218665832709
0.32,-0.966503531927968,5900.397578472155
0.324,-0.9448183823636191,5897.084980898109
0.328,-0.9227527667948208,5902.635260799771
0.332,-0.9033114169457805,5896.831120290792
0.336,-0.8880798506894099,5903.883123699628
0.34,-0.87737001439705,5893.168055474016
0.344,-0.8707701610002236,5898.237246229191
0.348,-0.8676360435480752,5896.593723183143
0.352,-0.867342364681293,5906.120995313657
0.356,-0.8693912966286202,5900.747285092652
0.36,-0.8734591324819693,5895.09324713657
0.364,-0.8793316086154542,5902.043787748998
0.368,-0.8867288359040034,5900.462041662508
0.372,-0.8952054808585154,5903.620445928251
0.376,-0.9043361659403374,5904.478562112443
0.38,-0.9141529791792762,5889.515509760138
0.384,-0.9255115046404115,5909.44654051951
0.388,-0.9400072612637135,5901.069138480051
0.392,-0.9593269469848634,5902.423127147691
0.396,-0.9843219788865741,5894.352725356986
0.4,-1.0143275904984037,5888.118885389519
0.404,-1.0471285664146055,5902.961306572928
0.408,-1.0795761503340366,5898.716312205858
0.412,-1.108467041453439,5907.037399178452
0.416,-1.1311911898704354,5896.414000994943
0.42,-1.1459215232525382,5891.478083064942
0.424,-1.1515052257836107,5895.333979566343
0.428,-1.1473710575925808,5899.69813619685
0.432,-1.1336183850342105,5892.874243256677
0.436,-1.1112188806435799,5897.642291080679
0.44,-1.0821416681938167,5894.363345651999
0.444,-1.0492412059973097,5904.533027927742
0.448,-1.0158917144662214,5895.214363338304
0.452,-0.9855346350563122,5900.505565755338
0.456,-0.9613423273028466,5895.718863951679
0.46,-0.94599191852151,5892.080887414102
0.464,-0.9413159951511808,5904.055138170799
0.468,-0.947673770555904,5889.8519015479
0.472,-0.9632255261061875,5904.848710785848
0.476,-0.9835437756820586,5898.254452090341
0.48,-1.0019636480511096,5906.111676014925
0.484,-1.0108461832604527,5898.646644925472
0.488,-1.0035923902186603,5904.4983905673525
0.492,-0.9768513920304496,5900.318517443878
0.496,-0.9320984353659145,5902.702092715508
0.5,-0.8758585038816811,5893.571939426188
0.504,-0.8183369602659297,5897.770192256796
0.508,-0.7708543640033463,5897.234335717454
0.512,-0.7429652532618255,5906.89366535189
0.516,-0.7402294063914153,5899.381699506565
0.52,-0.7632383380201945,5893.488133136228
0.524,-0.8079304781152225,5894.810339415261
0.528,-0.86685313202762,5906.2523378388505
0.532,-0.9309639960746587,5899.954574730622
0.536,-0.9915818072052313,5903.829617773761
0.54,-1.0420504798025367,5900.709038838649
0.544,-1.078704839587437,5898.173878872551
0.548,-1.1009277173497831,5903.685532987969
0.552,-1.1103740915509943,5891.702249076415
0.556,-1.1096798011250955,5903.144477094422
0.56,-1.1011237884158007,5899.075840405836
0.5640000000000001,-1.0857468144037494,5897.772499684394
0.5680000000000001,-1.0633052177074784,5900.62457945825
0.5720000000000001,-1.0331450714026675,5896.148662813058
0.5760000000000001,-0.9956820691692101,5904.999215404121
0.58,-0.9538105789962327,5898.688409883293
0.584,-0.9134342459588844,5897.038825511696
0.588,-0.8825691806771365,5897.294989189181
0.592,-0.8691191971787885,5902.215958900432
0.596,-0.8781622287079311,5904.291293916668
0.6,-0.9099049713167218,5894.263157810956
0.604,-0.9591084372353064,5902.295036146006
0.608,-1.0160933031894694,5902.535965862293
0.612,-1.0689108015181152,5892.829985262653
0.616,-1.1060541298766384,5897.100381972238
0.62,-1.1190466616357757,5904.9044073646
0.624,-1.1043088476877685,5898.652327254803
0.628,-1.0638939787425037,5901.697979847588
0.632,-1.004943353468425,5892.7571778204265
0.636,-0.9379768956432253,5899.227254172947
0.64,-0.8744211926948741,5901.0078436102485
0.644,-0.8240475923111662,5908.146149462776
0.648,-0.7930700100792213,5900.667238746306
0.652,-0.7834182635156192,5902.936791679102
0.656,-0.7932595219971726,5897.189877770586
0.66,-0.818399966829469,5900.208453956316
0.664,-0.8539337665801264,5896.728731766943
0.668,-0.8954952194906588,5906.440479669417
0.672,-0.9397091962469443,5902.860398457071
0.676,-0.9838544168764984,5901.314047589126
0.68,-1.025170822636626,5899.4033302298885
0.684,-1.0603929039790783,5890.5826819546855
0.6880000000000001,-1.0858683724785234,5903.34625685623
0.6920000000000001,-1.09823651423481,5894.846457614397
0.6960000000000001,-1.0953855052970152,5899.421967512828
0.7000000000000001,-1.0773382602252117,5899.279003082155
0.704,-1.046735520449921,5895.9402967434025
0.708,-1.0086828852018825,5898.775908050455
0.712,-0.9699127304034519,5899.545705783643
0.716,-0.937395579446098,5901.59406875911
0.72,-0.9166827092028154,5899.186144922418
0.724,-0.9104209404612577,5905.778570431916
0.728,-0.9175725561484733,5890.869283549698
0.732,-0.9337190858982298,5896.943223851275
0.736,-0.9524428573061015,5901.941517807193
0.74,-0.9673887428910861,5894.535209765177
0.744,-0.9743610323511143,5897.961100105223
0.748,-0.9727191631695529,5894.756007249931
0.752,-0.9654685235396234,5896.315090465947
0.756,-0.9579155934543201,5903.664603934036
0.76,-0.9554395066418331,5896.183184321199
0.764,-0.9613768279108349,5892.369370434538
0.768,-0.9758864724940598,5891.831493509748
0.772,-0.9960888281043354,5894.866958161502
0.776,-1.0171723822486285,5899.162435480108
0.78,-1.0338703603983102,5897.690653093057
0.784,-1.0418083296821319,5893.652226921985
0.788,-1.0384992104928974,5904.236359788556
0.792,-1.0239165656154252,5893.937207096485
0.796,-1.0005619681586957,5893.260055126106
0.8,-0.9729520206767525,5903.515764490574
0.804,-0.9465898764808829,5907.9992823975335
0.808,-0.9266491503882358,5896.484308723983
0.812,-0.9166721874287179,5902.872450112172
0.8160000000000001,-0.9175848072441439,5899.66445508978
0.8200000000000001,-0.9273004231025964,5898.896856752872
0.8240000000000001,-0.9411003711715947,5896.07592684886
0.8280000000000001,-0.952792442744829,5894.778554918991
0.8320000000000001,-0.9564057101795352,5904.953585253415
0.836,-0.947974226243111,5891.792961181551
0.84,-0.9268667081587935,5888.0453198089335
0.844,-0.8961804820634156,5893.708973826893
0.848,-0.8619832240030884,5896.72767468929
0.852,-0.8316185580312143,5897.993059944448
0.856,-0.8116787396179049,5893.129070604822
0.86,-0.8063278008821524,5899.671396249247
0.864,-0.8163976926286709,5901.514042575728
0.868,-0.8393310633144532,5897.39622336305
0.872,-0.86985368309554,5911.99970077993
0.876,-0.9012103892382131,5904.906544010461
0.88,-0.9267420149806185,5899.593987233147
0.884,-0.9414789594128333,5895.899396607601
0.888,-0.9433433675605392,5906.898858294409
0.892,-0.9335681237544651,5893.163254595051
0.896,-0.9161455555602601,5903.133402657687
0.9,-0.8964881929212691,5894.384304058596
0.904,-0.8798039964563383,5908.849760614132
0.908,-0.8697575911678573,5899.498210446304
0.912,-0.8678068566916358,5899.933434610245
0.916,-0.8733048130209139,5905.033537932532
0.92,-0.8841903677834554,5889.35568445728
0.924,-0.8979568019183259,5905.817467682959
0.928,-0.912577247741706,5897.939652522724
0.932,-0.9271118921028237,5902.066610896896
0.936,-0.9418047227277765,5907.563775518229
0.94,-0.957636514303178,5897.087220782614
0.944,-0.975508346784186,5897.230769373545
0.948,-0.9953803283701769,5904.3871828348965
0.952,-1.01571921609317,5899.37360456137
0.956,-1.033518492767492,5902.901215054279
0.96,-1.0449642451548131,5888.856897956702
0.964,-1.0465844391536632,5897.112385672196
0.968,-1.0365233079835525,5904.469709868032
0.972,-1.0154930829746576,5899.837752763536
0.976,-0.9870111506728237,5899.530830877839
0.98,-0.9567365300544949,5897.014196852912
0.984,-0.9310252904849048,5894.340109145845
0.988,-0.9151297923163769,5904.518782892592
0.992,-0.9116492855643106,5898.466974713157
0.996,-0.9198044821326974,5893.364551318839
1.0,-0.9358339426830302,5897.575708964402
1.004,-0.9543829764877433,5904.713907739531
1.008,-0.9703671620085578,5898.351661476437
1.012,-0.980613807091004,5904.475832662721
1.016,-0.9846635652055239,5908.474670993353
1.02,-0.9844253982781542,5904.255099004265
1.024,-0.9828407196596636,5903.02860861114
1.028,-0.9821368751725987,5901.771006076567
1.032,-0.9824305027096274,5899.844169587723
1.036,-0.9813093503289886,5908.143201840362
1.04,-0.9746279464554871,5900.031876427208
1.044,-0.9582257890400506,5895.76482074486
1.048,-0.9298622553018837,5898.101610177497
1.052,-0.8905984078552577,5909.366897182355
1.056,-0.8451266430372313,5895.234585934
1.06,-0.8009451995054183,5900.76276726574
1.064,-0.7666406710498094,5904.211017592428
1.068,-0.7497826806409305,5906.35592345844
1.072,-0.7549792983644712,5903.540623353874
1.076,-0.782556247375466,5896.634866273583
1.08,-0.8282239349027948,5904.69764734784
1.084,-0.8839410544500735,5908.50619384173
1.088,-0.9398834590820698,5904.548880306958
1.092,-0.9870523191704123,5907.683967910678
1.096,-1.0197599151431183,5887.699130713573
1.1,-1.0371495308209362,5900.27598634226
1.104,-1.0431641066167672,5888.342761024519
1.108,-1.044961809612397,5898.019521166065
1.112,-1.0503881167964533,5902.252781745876
1.116,-1.0653916039376397,5903.484383211483
1.12,-1.0921433431976613,5901.224535335798
1.124,-1.1283064963944036,5891.4126979728935
1.128,-1.1676008361250052,5899.665059395825
1.132,-1.2015162889741764,5901.647024866777
1.136,-1.2217013594062462,5897.356852701569
1.14,-1.2222925019567108,5901.778355731785
1.144,-1.2014541114609079,5896.908261625104
1.148,-1.1617114389340788,5889.48826395872
1.152,-1.109114516618488,5899.302713872793
1.156,-1.0516536459479735,5892.364264919289
1.16,-0.9975215332059633,5899.809857592338
1.164,-0.9537470818697937,5902.265907569713
1.168,-0.9254648925924746,5908.816959898644
1.172,-0.9157532818756268,5898.512983142976
1.176,-0.9257248455694689,5900.26017829986
1.18,-0.9545328654819994,5898.932359967187
1.184,-0.9991889981739845,5907.124918061705
1.188,-1.0544007656559948,5901.007435825962
1.192,-1.1128005892394677,5907.662712754981
1.196,-1.1658448540178505,5893.685454018886
1.2,-1.2053520012758343,5894.9676835836335
1.204,-1.2252670172029967,5907.717693402294
1.208,-1.2229994496710719,5899.188382727276
1.212,-1.1997677886692553,5896.859586250643
1.216,-1.1598052808630006,5900.714041515152
1.22,-1.108819153002179,5903.475804905921
1.224,-1.0524226332949322,5895.886710852237
1.228,-0.9951918430586121,5895.853088284442
1.232,-0.9406085073994683,5897.3262656725765
1.236,-0.8916718632346722,5903.251019741712
1.24,-0.8516456884293558,5902.621573274405
1.244,-0.8243775387467037,5907.523188582918
1.248,-0.8138547133416315,5900.643142850914
1.252,-0.8230320301396097,5903.430127604592
1.256,-0.8523551721462623,5902.606187706688
1.26,-0.8986452693515663,5892.111264258855
1.264,-0.9549531368549682,5909.653328302713
1.268,-1.0116559085799621,5893.874369103624
1.272,-1.0586291404504926,5895.272456863542
1.276,-1.0879125982973619,5899.96729355166
1.28,-1.095974681063761,5896.137370974982
1.284,-1.0846505175363443,5897.634098819644
1.288,-1.0602718908128925,5900.24443877588
1.292,-1.031312049115408,5888.529922299143
1.296,-1.0055750856826626,5903.128826974351
1.3,-0.9881086667666066,5892.48660531624
1.304,-0.9805280570093978,5894.53998042295
1.308,-0.9816495049636572,5894.758896137051
1.312,-0.9887444086651482,5904.034114812695
1.316,-0.9986597957523494,5908.574579968502
1.32,-1.0084424537638168,5907.692011458992
1.324,-1.0156046895408886,5891.679270038483
1.328,-1.018406206415033,5898.24016424228
1.332,-1.0163346057926106,5902.343727888832
1.336,-1.0105340585325604,5900.726780142304
1.34,-1.0037033412908725,5897.827264623801
1.344,-0.9992382672166639,5897.570140869159
1.348,-0.9999058934722888,5907.146629216982
1.352,-1.006651675873431,5889.749934775664
1.356,-1.0180813122354155,5903.118423504793
1.36,-1.0308605243737015,5894.233461315766
1.364,-1.0408876021357818,5904.924799343371
1.368,-1.044747989048309,5906.623109499018
1.372,-1.0408301805051932,5899.231070297639
1.376,-1.0296450673633857,5900.667412376586
1.38,-1.0132716129981103,5900.313310855696
1.384,-0.994293742441418,5901.926316869204
1.388,-0.9748529722324163,5897.5873533292925
1.392,-0.9563031135223562,5897.377333319597
1.396,-0.9395181593720187,5904.16537690034
1.4,-0.925529698846702,5906.889317007939
1.404,-0.9160442244364005,5901.096166194622
1.408,-0.9134632249674611,5899.472382726519
1.412,-0.9202782541561118,5899.781385880686
1.416,-0.9380723525910561,5901.469511774715
1.42,-0.9665719648956813,5893.428843938868
1.424,-1.0031256089075489,5890.084161771903
1.428,-1.0427997634019657,5917.370575669816
1.432,-1.079117337908573,5899.487291348106
1.436,-1.1053030588011585,5901.839520052738
1.44,-1.1157611978368303,5902.255599283745
1.444,-1.107446128386583,5896.349706626226
1.448,-1.0807826813778914,5893.006798295728
1.452,-1.0398392503758433,5898.901687620415
1.456,-0.9915949856147933,5901.758906283742
1.46,-0.9443986901752459,5899.619187236324
1.464,-0.9060131202249939,5908.359680587952
1.468,-0.8818187871040086,5905.238999642555
1.472,-0.8737188382928838,5899.94978416599
1.476,-0.8800635938854211,5905.778374425664
1.48,-0.8965636396922884,5900.69248854312
1.484,-0.9177821977137106,5903.439673180497
1.488,-0.9385962755362948,5902.122765174827
1.492,-0.9551580337733071,5900.90843564162
1.496,-0.9652466833870416,5900.26113411049
1.5,-0.9681726393500666,5903.400456131744
1.504,-0.9644552870781319,5901.733726312298
1.508,-0.9554499242724316,5896.628221033004
1.512,-0.9430444238700871,5907.049003232004
1.516,-0.9294754741182564,5899.796616607764
1.52,-0.9172250568163901,5909.120502170794
1.524,-0.90889497339971,5903.276213950086
1.528,-0.906964199983344,5901.492417174491
1.532,-0.913417773365807,5899.466799625323
1.536,-0.9293424557897539,5912.522871825524
1.54,-0.954616277111543,5903.184347202007
1.544,-0.9877441009009545,5900.881826222794
1.548,-1.0258076207443736,5898.216020871254
1.552,-1.0645242875101704,5904.730922259423
1.556,-1.0985201650678806,5898.175365790347
1.56,-1.1219632112513673,5898.040784113787
1.564,-1.1295976369295693,5898.972490252042
1.568,-1.1180547902883902,5891.127582223627
1.572,-1.0871747452865328,5904.671350094915
1.576,-1.0409265979900868,5898.736506348595
1.58,-0.987415822797928,5902.027755881487
1.584,-0.9376300327814662,5896.334360875445
1.588,-0.9030560538445018,5908.164978020458
1.592,-0.8928052686879139,5899.894768458972
1.596,-0.9111030643273837,5897.960986859246
1.6,-0.9559134900829964,5898.609231921294
1.604,-1.0191778149266617,5895.974627760244
1.608,-1.088673186903157,5891.196416647233
1.612,-1.1509512054844857,5898.426476686668
1.616,-1.1944611350173766,5906.17897401444
1.62,-1.211987258108637,5901.875891710944
1.624,-1.2018547095733245,5898.578591060628
1.628,-1.1677585478252288,5899.841244473323
1.632,-1.1174071454189454,5895.845717418443
1.636,-1.0604373750446359,5897.168491246528
1.64,-1.006233308632112,5898.352162673523
1.644,-0.9622422799236,5904.070387711909
1.648,-0.9330853880273097,5902.4704038562495
1.652,-0.9203799029822128,5900.591015946327
1.656,-0.9229891987551166,5905.14612052559
1.66,-0.9374951139538892,5903.281120304288
1.664,-0.9589008177727362,5893.796859163395
1.668,-0.98165378810353,5896.672471798948
1.672,-1.000910127761125,5890.816462048495
1.676,-1.0136935615130362,5899.556741943527
1.68,-1.0194958587567433,5900.864286554851
1.684,-1.0200376122628034,5906.327615788853
1.688,-1.0182554211894168,5900.32394340136
1.692,-1.016928110128913,5892.656563019364
1.696,-1.0175493818607935,5887.701509432508
1.7,-1.0199381780179062,5896.01818649429
1.704,-1.02265029709002,5902.978525702784
1.708,-1.0238501756747906,5899.41948187008
1.712,-1.0222405628729871,5906.220487113097
1.716,-1.0177925587101717,5895.001076311077
1.72,-1.012051960226962,5910.753088872802
1.724,-1.007780393064814,5904.113905718118
1.728,-1.007915181235251,5902.382306311928
1.732,-1.0142602745400766,5896.149667309836
1.736,-1.02656065068472,5900.787803984683
1.74,-1.042425284357142,5900.034158148687
1.744,-1.058106714258295,5896.841057171946
1.748,-1.0697483145094373,5904.971649755446
1.752,-1.0745903879192347,5891.786792006976
1.756,-1.0717879045071208,5894.899659356272
1.76,-1.0627476200913966,5896.0210641559
1.764,-1.0509981664932673,5899.7267949065845
1.768,-1.0415330413549904,5893.000533528904
1.772,-1.0395677863926132,5906.395899376897
1.776,-1.0489253028084475,5891.910921387053
1.78,-1.0706222008927437,5897.932784788912
1.784,-1.1023078438007519,5910.673107511706
1.788,-1.1388822845578694,5896.159808135524
1.792,-1.1740914445580775,5891.267007626509
1.796,-1.2024784462360594,5893.340681045552
1.8,-1.2209538216419742,5901.785625732085
1.804,-1.2294209049222595,5897.7892943174775
1.808,-1.2302522858819127,5894.316179763734
1.812,-1.2268817981264588,5900.567925148914
1.816,-1.2221893951155365,5905.762987669478
