时间(s),电压(V),幅值(高频80K)
0.0,-2.2316806639798545,5894.214526232548
0.004,-2.0869788868206394,5905.879334015862
0.008,-1.9593459307406011,5906.357635583501
0.012,-1.8614217843036878,5910.235627894928
0.016,-1.7996498455461862,5897.28433036924
0.02,-1.7736021062446083,5906.547548999956
0.024,-1.7769101991037264,5903.59964482142
0.028,-1.7992741938218733,5898.005436233437
0.032,-1.8289670817348296,5905.50714459495
0.036,-1.855316303505563,5902.180245141963
0.04,-1.8706766775453976,5896.1711989200085
0.044,-1.8715181156086829,5895.855625999978
0.048,-1.8585100650125896,5897.736547974908
0.052,-1.8357507645489282,5899.793964731554
0.056,-1.809405318495632,5904.071832100346
0.06,-1.786023629705947,5898.675400463412
0.064,-1.7708584976215846,5898.178399768969
0.068,-1.7666139921528567,5903.454001831578
0.072,-1.7730383359942883,5901.411758740263
0.076,-1.7874780862619972,5902.005230674877
0.08,-1.806082638545902,5902.437421268085
0.084,-1.8251245126923037,5906.276703570546
0.088,-1.841994977454665,5898.364187962444
0.092,-1.8556561714435131,5905.771046867217
0.096,-1.8664956526145624,5902.315881078635
0.1,-1.8756519071630036,5899.977113766596
0.104,-1.8840512655584338,5895.699359019684
0.108,-1.8915899692016407,5896.771690730713
0.112,-1.8969232879633666,5898.597096724847
0.116,-1.898037136263958,5898.614476211226
0.12,-1.8933150119558626,5902.333180280243
0.124,-1.882526242045494,5897.355359102853
0.128,-1.867233598885059,5899.56670575564
0.132,-1.8504191845702658,5905.073201881791
0.136,-1.835463862082566,5901.373164931719
0.14,-1.8248876874397137,5906.3026214373085
0.144,-1.8193800212103453,5904.3181441611605
0.148,-1.8175485560453934,5902.942421757964
0.152,-1.8165218479050185,5900.615184277032
0.156,-1.8131611046019909,5899.553002923464
0.16,-1.8053473065431431,5902.4193583103015
0.164,-1.7927882848096228,5900.292320318653
0.168,-1.7770664128465727,5907.833096168869
0.172,-1.7610231359465711,5897.680027490735
0.176,-1.7477976597060096,5908.759627069323
0.18,-1.7398510741863538,5891.297430860561
0.184,-1.7382548993537594,5897.715029223634
0.188,-1.7424788764080368,5888.00450543207
0.192,-1.7507972416778879,5903.583379821038
0.196,-1.761190794901121,5904.577617956858
0.2,-1.7723446076094242,5901.440170109662
0.204,-1.7842231180211412,5898.172819458535
0.208,-1.797908658829992,5910.062080663319
0.212,-1.814832464402111,5901.5294778504485
0.216,-1.8358477405765385,5901.533227195895
0.22,-1.8605409456471986,5892.827173579646
0.224,-1.8869278814284018,5887.567893100479
0.228,-1.911556045156096,5899.5419895717605
0.232,-1.9300587294618137,5899.514845083773
0.236,-1.9381717041059443,5894.174901927533
0.24,-1.933031893504313,5895.159823698065
0.244,-1.914356229991555,5902.598016159093
0.248,-1.885042184712662,5901.5248284270365
0.252,-1.8509054263602127,5898.351761624536
0.256,-1.8195620889956452,5906.317291600514
0.26,-1.7987058815264725,5898.614239021882
0.264,-1.7941698952878744,5898.162710665349
0.268,-1.8082606405496418,5906.545343271911
0.272,-1.838899080562244,5893.431988965707
0.276,-1.8799534219648295,5887.119471696981
0.28,-1.9227369014349294,5893.193280281951
0.284,-1.9581809590467034,5900.482689874696
0.288,-1.97897996525192,5906.375334687959
0.292,-1.9811046077924477,5898.632570519943
0.296,-1.9643445227795018,5906.760449034307
0.3,-1.9318477265795748,5903.454721579018
0.304,-1.888934497274554,5893.207401973558
0.308,-1.841681380779082,5898.713655541774
0.312,-1.795762460407419,5895.640587620237
0.316,-1.7557831500926064,5907.401712882596
0.32,-1.7250189056358098,5900.768140177048
0.324,-1.7053131660209677,5894.140415765222
0.328,-1.6969734772724947,5899.818015939049
0.332,-1.6987050226960645,5899.939003148196
0.336,-1.7077644553004463,5904.182751949722
0.34,-1.7204916292835069,5900.738336928736
0.344,-1.7331707389782314,5900.805344432308
0.348,-1.7429402967457512,5899.789936786926
0.352,-1.7484172753016374,5903.062802670006
0.356,-1.749834506000934,5890.2694475821145
0.36,-1.7486712799705455,5900.849002804303
0.364,-1.74692474663442,5897.022503133183
0.368,-1.7463244722144546,5900.473806852068
0.372,-1.7478319776646802,5897.57962523285
0.376,-1.7515798407115242,5898.786524159758
0.38,-1.7571114591001065,5900.430313453431
0.384,-1.763661494233544,5894.953020925247
0.388,-1.77035134664273,5894.838135238233
0.392,-1.7763594110517635,5906.171133010923
0.396,-1.781160448035334,5902.30405305728
0.4,-1.7848178376634507,5902.905905590712
0.404,-1.7881832273218246,5887.562823866067
0.408,-1.7928258435937863,5895.436109038148
0.412,-1.8006220870261946,5894.4894515109545
0.416,-1.813117844347729,5901.100138954612
0.42,-1.8309122706346308,5898.607429181252
0.424,-1.8533382851345275,5895.9962601570205
0.428,-1.8786119576420892,5901.018031955121
0.432,-1.9043967590387139,5894.171817382705
0.436,-1.9284860139508833,5903.702268252029
0.44,-1.9492322151950356,5902.201055771965
0.444,-1.9655285882930078,5904.430254788984
0.448,-1.9764490229477167,5905.712012367415
0.452,-1.980852029754916,5904.5033992949375
0.456,-1.9772417754396436,5908.895113072789
0.46,-1.9640179549041878,5903.382454936548
0.464,-1.940050063222742,5897.824436972898
0.468,-1.9053475000833924,5900.019219174166
0.472,-1.8615150054039316,5903.251753096889
0.476,-1.8117495927878167,5903.793029770236
0.48,-1.7603559812053298,5899.734202104267
0.484,-1.7119978329602987,5893.149214789638
0.488,-1.6709884755939561,5907.944454253669
0.492,-1.640823871933824,5891.850383776618
0.496,-1.6239824189995333,5908.103410183186
0.5,-1.6218807000338307,5900.814588170757
0.504,-1.634839685458724,5895.694299230881
0.508,-1.6619750100208224,5909.768301079993
0.512,-1.7010196065521765,5904.297661424609
0.516,-1.7481719551089159,5903.204717816852
0.52,-1.7981391089146896,5899.44973167556
0.524,-1.8445770555247543,5898.371640443427
0.528,-1.8810376757807319,5901.860322660104
0.532,-1.902308233971119,5898.043798151859
0.536,-1.905806359695564,5893.3614223422455
0.54,-1.89259392670572,5905.542490753185
0.544,-1.8675950607363316,5901.567121350968
0.548,-1.8387263253144135,5893.686187907552
0.552,-1.8149475958740104,5894.273603548126
0.556,-1.8037140844352821,5893.196139860361
0.56,-1.8086817823142793,5903.912882040597
0.5640000000000001,-1.828491262953366,5898.432477479116
0.5680000000000001,-1.8570478122038114,5899.773899062289
0.5720000000000001,-1.8852124396201166,5900.351796089778
0.5760000000000001,-1.903440902123568,5900.78438736217
0.58,-1.9046688984489495,5905.579985476091
0.584,-1.8866043058168116,5900.31499548177
0.588,-1.8526514327569716,5899.49526047062
0.592,-1.811082499877949,5889.51576603183
0.596,-1.7726808521418767,5892.113636657376
0.6,-1.7476033057257268,5897.73830032184
0.604,-1.742438532558291,5905.648766853263
0.608,-1.7583710131637778,5904.263241489936
0.612,-1.7910386921726273,5909.83433919425
0.616,-1.8321310072387658,5905.10307042272
0.62,-1.8721484961808579,5902.699057132617
0.624,-1.903288913637003,5903.720023872451
0.628,-1.9213762992473222,5908.401367018815
0.632,-1.926185337244198,5899.074579637458
0.636,-1.920255022246292,5899.207922989031
0.64,-1.9069473560800936,5892.127872365544
0.644,-1.8887431603864866,5898.603224781942
0.648,-1.8665154839175593,5894.995615013325
0.652,-1.8399719334064293,5905.004395959645
0.656,-1.8088773729028602,5888.824395581133
0.66,-1.774318710557277,5901.148904655714
0.664,-1.7393183138983246,5912.511158175816
0.668,-1.7084757095088503,5896.477738148705
0.672,-1.6867679629635708,5907.403841227698
0.676,-1.6779435811839414,5899.307659473446
0.68,-1.6830483695853884,5900.236871300987
0.684,-1.699598668202749,5906.57504248373
0.6880000000000001,-1.721801034341515,5894.918866427088
0.6920000000000001,-1.7419350867714063,5900.323483868881
0.6960000000000001,-1.7525663856547653,5898.11827098904
0.7000000000000001,-1.7488493251683188,5894.653748932693
0.704,-1.730083043306938,5914.006856150172
0.708,-1.6999768263777575,5899.52521488873
0.712,-1.6656078108954913,5902.685006535092
0.716,-1.6355316953941548,5905.051646114825
0.72,-1.6177005555202393,5905.506975389232
0.724,-1.6177183160543758,5901.767053762912
0.728,-1.6377121646762733,5903.133872157485
0.732,-1.6759224937043973,5900.581530646985
0.736,-1.7270347835125845,5898.112380463391
0.74,-1.7831960637782012,5895.181987299092
0.744,-1.8355425117177888,5904.615922876516
0.748,-1.875954870582027,5901.165963386043
0.752,-1.8986935465372194,5893.909013111351
0.756,-1.9015693011434227,5909.733566068519
0.76,-1.8863871741653684,5907.21610359619
0.764,-1.8585459506272168,5904.685649548564
0.768,-1.8258490682617599,5908.673635267439
0.772,-1.7967487568673581,5895.121004104477
0.776,-1.7784009625935622,5895.866131964354
0.78,-1.7750439781825427,5894.272531223371
0.784,-1.7872108533004651,5897.856436832027
0.788,-1.8120101615060704,5905.505977756851
0.792,-1.844248480932784,5900.745549261717
0.796,-1.8778466341037066,5907.423750897549
0.8,-1.90706544438728,5906.326212018591
0.804,-1.9273701283149165,5890.513042563079
0.808,-1.935972863237372,5900.03975125897
0.812,-1.9320762885577398,5894.6333886844095
0.8160000000000001,-1.9167750494468965,5899.340150471603
0.8200000000000001,-1.8926100599134645,5892.885529777573
0.8240000000000001,-1.8628748403614739,5908.082693093754
0.8280000000000001,-1.8308610991427319,5903.325282021631
0.8320000000000001,-1.7992701570954077,5905.709445086111
0.836,-1.7699805528921972,5902.682539780398
0.84,-1.7442209991838333,5904.181598468742
0.844,-1.7229949675413099,5904.997734772506
0.848,-1.7074604666945274,5898.02445992808
0.852,-1.6989891996225908,5903.953539547701
0.856,-1.6988037403143221,5898.184317940467
0.86,-1.7073185229118866,5893.663465601898
0.864,-1.7234937761373097,5897.984285654918
0.868,-1.744573958354196,5910.898326359194
0.872,-1.7664513404025843,5897.762800114332
0.876,-1.7845942862860413,5904.483976529556
0.88,-1.7951765126020756,5905.565816700048
0.884,-1.7959381055173969,5900.319631777936
0.888,-1.7864873234366991,5904.174355517238
0.892,-1.7680946498459362,5901.84597987479
0.896,-1.743257370660258,5905.218933508872
0.9,-1.715252937489918,5896.607833829324
0.904,-1.6877010732826818,5890.28051991228
0.908,-1.6640816429091132,5893.230030221108
0.912,-1.6472459965970938,5892.505318989646
0.916,-1.639053373276574,5897.649678611398
0.92,-1.6402448033327324,5903.26779744561
0.924,-1.650545939134586,5893.91246944462
0.928,-1.6688754415662164,5895.593672163383
0.932,-1.6935386077810721,5905.733863486364
0.936,-1.722376745481246,5903.491618204344
0.94,-1.7529034263289678,5906.505732718102
0.944,-1.7824696452326547,5901.249872741206
0.948,-1.8085087300736482,5900.365052970288
0.952,-1.8289009812826105,5901.895047265471
0.956,-1.8424173398756525,5906.128863578138
0.96,-1.8490682418597202,5898.781284718946
0.964,-1.8500995707251398,5903.217891853925
0.968,-1.8474585539066268,5899.505882193719
0.972,-1.8428236367220157,5897.257854646829
0.976,-1.8366211521032112,5899.59157975679
0.98,-1.8275992192588777,5897.092270182116
0.984,-1.8133264403598264,5896.56595469099
0.988,-1.7914946672404388,5897.034705518216
0.992,-1.7614123495632905,5902.998309085731
0.996,-1.724895639363354,5901.723739622694
1.0,-1.6860610769858748,5891.06003385555
1.004,-1.6501539745380598,5896.826743805993
1.008,-1.6220877133486447,5895.585493850657
1.012,-1.6054543339930802,5896.258047214624
1.016,-1.6024085261935717,5909.319897321677
1.02,-1.614314295746641,5891.404178428064
1.024,-1.6426298261488637,5891.751933077307
1.028,-1.6893151458220415,5895.77894030657
1.032,-1.756158897301213,5896.3688701130095
1.036,-1.8428571168201093,5897.785914390003
1.04,-1.9442729872708557,5898.387118777066
1.044,-2.0477601791402327,5890.759761457618
1.048,-2.13159859057107,5898.4244504696735
1.052,-2.1655527267524985,5896.360137448159
1.056,-2.1143273036679555,5896.580440749126
1.06,-1.9440733896306075,5906.147128845675
1.064,-1.6310223626411262,5902.156105922075
1.068,-1.170118769176601,5884.459470133982
1.072,-0.5807558319503694,5903.857284818312
1.076,0.0931155838874956,5899.648299789476
1.08,0.7898286811452161,5903.530844523889
1.084,1.4425660276882222,5902.879285121618
1.088,1.99375094806697,5912.259778937812
1.092,2.4063564839876297,5926.445375843363
1.096,2.6687639728157,5936.791446410101
1.1,2.792753512947789,5940.703896420064
1.104,2.8065986247710835,5949.476578089209
1.108,2.7461400227621167,5957.113887596837
1.112,2.6464334055142684,5978.016388800341
1.116,2.535706199623275,5986.717485473801
1.12,2.4323282428552044,5994.589270026257
1.124,2.3446036175096054,5990.23628222644
1.128,2.272660182562662,6001.668425416002
1.132,2.2115688882012776,6002.822526474749
1.136,2.154860546589586,6025.9353834455
1.14,2.0976492128241255,6033.273543268028
1.144,2.0386619139698343,6039.61331270634
1.148,1.9807373134306638,6051.518062128048
1.152,1.9297720496204593,6048.148945193202
1.156,1.892514069572143,6053.624357713266
1.16,1.8739181213481109,6061.150244001195
1.164,1.874951496453687,6072.13351950035
1.168,1.891677588744092,6078.141844025522
1.172,1.9160283359730415,6082.155706048343
1.176,1.9379881827913463,6096.465702930646
1.18,1.9483250615722498,6092.124844409221
1.184,1.9408805557294453,6113.04390248712
1.188,1.9137835789778805,6112.5213884443
1.192,1.8694705837233836,6111.375820505417
1.196,1.8137710937298503,6127.198856354019
1.2,1.7544517535753352,6126.116378435559
1.204,1.6995683913177015,6133.598302042956
1.208,1.655874278429192,6139.53667681388
1.212,1.6274833828382642,6139.292615064185
1.216,1.6150004062723526,6144.68028675624
1.22,1.615324478731642,6157.201375403904
1.224,1.6222558793131143,6164.707532433036
1.228,1.6278719824512573,6165.5091949467815
1.232,1.6243927377498095,6166.1844847074335
1.236,1.606034788950054,6174.381866358461
1.24,1.570341903239306,6175.953671986795
1.244,1.5186958804935335,6172.687709365553
1.248,1.45595718706852,6185.625778581765
1.252,1.3893250470274219,6192.293753042871
1.256,1.3266303582955012,6197.372050201694
1.26,1.274474867638449,6202.961083472746
1.264,1.2367813307020465,6210.381703193166
1.268,1.2142069108008826,6213.485227543985
1.272,1.2044991067209407,6221.53532641335
1.276,1.203499549577275,6226.653266276221
1.28,1.20635720911739,6224.750508474426
1.284,1.208600183235373,6218.690802809151
1.288,1.2069015193095833,6222.531486020067
1.292,1.1995419543561143,6232.042548407298
1.296,1.1866358562453234,6232.348135569685
1.3,1.1701195247644585,6242.112655714001
1.304,1.1534025653650517,6243.770788387488
1.308,1.1406025155804553,6246.179800370013
1.312,1.1354472808766758,6240.14475566622
1.316,1.1401144419052407,6248.097815979985
1.32,1.1543472444711065,6252.181779981833
1.324,1.1751289592758876,6260.076384955878
1.328,1.1970764156925737,6255.494291160621
1.332,1.213543174891683,6259.8009623376365
1.336,1.2181730114282445,6270.611318021738
1.34,1.2064134998457074,6264.388553039641
1.344,1.1765058626852172,6266.388458032021
1.348,1.1297537414770278,6268.02690415023
1.352,1.0701832798107143,6278.244916486332
1.356,1.0037977109713965,6277.0393306019805
1.36,0.937557718444212,6279.698250647935
1.364,0.8781835906229232,6284.43914791776
1.368,0.8309478240353921,6288.9963170907295
1.372,0.7987256688689465,6286.322341538103
1.376,0.7815771443019794,6286.295226433496
1.38,0.7769927769552996,6293.195135773653
1.384,0.7807121385610378,6294.469443916198
1.388,0.7878574814424835,6294.398490984661
1.392,0.7940853698629894,6301.335137256779
1.396,0.7964904076295385,6296.804286138688
1.4,0.7940486453059246,6301.934131744897
1.404,0.7875153478292786,6299.746907505442
1.408,0.7788900446900975,6304.657946171972
1.412,0.7706954342067728,6313.692689115304
1.416,0.7653024943873417,6306.114943524145
1.42,0.7644352108164342,6314.480530346771
1.424,0.768887222599599,6319.822158394865
1.428,0.7784187665675488,6320.215019054545
1.432,0.7917959439385804,6310.556374760164
1.436,0.8069627881013148,6320.822167129925
1.44,0.8213547424548527,6323.407644354273
1.444,0.8323549507559198,6312.396836128864
1.448,0.8378447158048064,6332.215666877798
1.452,0.8367032216496476,6330.475570381538
1.456,0.8290581833267366,6339.265362136895
1.46,0.8161701295993821,6328.107853545525
1.464,0.8000016204677619,6330.594176278767
1.468,0.7826545634575559,6327.121795177084
1.472,0.765878099673349,6335.590270688959
1.476,0.7507704635651942,6338.958711697664
1.48,0.7377136617941392,6340.798609621603
1.484,0.726546385738776,6337.108639829599
1.488,0.7169174154297457,6340.680347519552
1.492,0.7086122770899691,6332.715804624671
1.496,0.7015746757709455,6346.5947497122415
1.5,0.6955498553363293,6345.050212623495
1.504,0.6896424620581382,6355.911649133449
1.508,0.6822292789439298,6352.256787360797
1.512,0.6714054241150161,6351.89633701929
1.516,0.6557180114775533,6351.19163418018
1.52,0.634766020578926,6359.197898232274
1.524,0.6094345891770641,6345.583890126414
1.528,0.5818140361230001,6354.311515805868
1.532,0.5549256330813619,6356.099949373773
1.536,0.5322470197201628,6360.26772080198
1.54,0.516959281563549,6360.722177725257
1.544,0.5109875686406017,6360.90450133326
1.548,0.5141641876693964,6365.450975824184
1.552,0.5239721580477962,6368.613637233161
1.556,0.5361791146345435,6361.741608023872
1.56,0.5462633620077556,6363.454409813819
1.564,0.5510753602241745,6360.091881805448
1.568,0.5499767881161847,6359.474490082634
1.572,0.5449167431458676,6358.399386044574
1.576,0.5394202286159866,6372.723135356453
1.58,0.5369762662381553,6362.26100549641
1.584,0.5395323644044507,6360.152367181649
1.588,0.5466463117354088,6367.577570639673
1.592,0.5555060926646093,6367.346907294621
1.596,0.5617507750561791,6365.579569173477
1.6,0.5608536818929647,6359.511691826454
1.604,0.5496867218107202,6366.732786575672
1.608,0.5277985150648825,6369.221758681509
1.612,0.49799470812383184,6369.611714963231
1.616,0.46598722683119004,6375.163182963628
1.62,0.4391035861844127,6371.954776183913
1.624,0.42429943392931757,6367.500479276422
1.628,0.4259901790674607,6369.928200877767
1.632,0.44441494419478483,6370.417916889936
1.636,0.4752038650592737,6382.019650183499
1.64,0.5104459748358123,6385.179835636725
1.644,0.5409641368221216,6373.991289392498
1.648,0.5589943776779321,6368.666179042289
1.652,0.5603249952730425,6379.134125602204
1.656,0.5452379682230133,6378.317129691011
1.66,0.5181146865336742,6381.608822290906
1.664,0.48602139103968195,6382.430414404467
1.668,0.45678471959962663,6378.678206545619
1.672,0.43703546836670143,6370.539408873724
1.676,0.43061254214244915,6384.387890683812
1.68,0.4376759012191902,6381.237569980488
1.684,0.45480597657544736,6380.58868543818
1.688,0.47615181333972467,6382.199354864503
1.692,0.4953391057974006,6385.785183331034
1.696,0.5075351065671289,6380.586013370555
1.7,0.5109741676254438,6386.049005391043
1.704,0.5074149427718071,6374.04337413561
1.708,0.5013578919210853,6373.612768131355
1.712,0.49828154335049213,6391.836493447127
1.716,0.5025023941617236,6384.345059712015
1.72,0.5154090725931637,6385.498114809618
1.724,0.5347309494832952,6384.59270207335
1.728,0.5551770694821168,6387.551040827886
1.732,0.5702752543568542,6387.255330036823
1.736,0.5747196740484755,6382.791374932156
1.74,0.5662660762560169,6394.565199577115
1.744,0.5464133824523276,6392.3789384716665
1.748,0.5197210165180715,6376.8016382667165
1.752,0.492257850290337,6380.229538808276
1.756,0.4699382705500772,6390.0244517509545
1.76,0.4572646869145831,6399.063248022857
1.764,0.4565642612707672,6382.244804732918
1.768,0.46758908471212934,6399.87812482457
1.772,0.4874521051991003,6400.879832480094
1.776,0.5110578543495707,6393.183533436101
1.78,0.5321775228717919,6404.574950395553
1.784,0.5450341532578138,6392.093823813793
1.788,0.5458910237814121,6387.265168102592
1.792,0.5340187323372512,6395.797433621905
1.796,0.5117121420069909,6397.53710965844
1.8,0.483488485680974,6397.008922469483
1.804,0.4548667072082872,6393.716429768754
1.808,0.43112872771338917,6402.210327197042
1.812,0.41633839400646344,6392.833124215541
1.816,0.4127438458358289,6393.439920109216
1.82,0.42053150461951694,6396.778579851685
1.824,0.4378016009194837,6398.480080748336
1.828,0.46070240863381645,6402.7189482464
1.832,0.48383789549572565,6400.703427192206
