时间(s),电压(V),幅值(高频80K)
0.0,-1.1798519311548186,5899.127298267628
0.004,-1.194510234552131,5899.217986093233
0.008,-1.2051755401335125,5894.059393651743
0.012,-1.2086279483538407,5898.952759069435
0.016,-1.2032822858155423,5897.595927584549
0.02,-1.1895446236584388,5898.814988963202
0.024,-1.169684618856062,5901.679263948445
0.028,-1.1472124764526732,5903.742021448013
0.032,-1.1259925063170524,5898.057402285073
0.036,-1.1093883621136016,5903.234891026034
0.04,-1.0995996026924006,5894.186444879039
0.044,-1.0972269676231254,5904.70684172
0.048,-1.101134428673157,5899.471276478496
0.052,-1.1087482866362972,5904.273577209639
0.056,-1.1168480501049414,5891.372072962197
0.06,-1.1226251853231133,5895.720177833653
0.064,-1.1245387561177576,5898.298463418239
0.068,-1.122583393645119,5907.952345199865
0.072,-1.117990505033321,5899.97940539514
0.076,-1.1127016179222988,5904.824036802401
0.08,-1.108890872835338,5897.351992375013
0.084,-1.1085703689945738,5902.999619274878
0.088,-1.1132315586385004,5893.844898060698
0.092,-1.1235632493384882,5897.139097458058
0.096,-1.1393169706400932,5902.388619159481
0.1,-1.1593157889548655,5905.2863372433085
0.104,-1.1815774231211242,5887.583198047719
0.108,-1.2035886126446593,5896.66735737346
0.112,-1.2227714934470684,5900.758654975971
0.116,-1.2370464691396232,5891.75535210174
0.12,-1.2452679001770688,5903.176631494947
0.124,-1.2473503864222133,5893.145607757949
0.128,-1.244071775857338,5897.290979729703
0.132,-1.2366739467000365,5901.869896222137
0.136,-1.2264099575080243,5906.377899473821
0.14,-1.2141555456276936,5894.152629220152
0.144,-1.200179149982797,5905.780852943684
0.148,-1.1841542726649632,5896.2525582228645
0.152,-1.1654612563832762,5903.69035679734
0.156,-1.1437220706021851,5896.927024378734
0.16,-1.1193587151784647,5902.243515267271
0.164,-1.093875028059842,5899.131443433303
0.168,-1.0696586928881016,5896.971867997538
0.172,-1.0493553796096426,5904.370210399237
0.176,-1.0350778539512255,5897.277675203758
0.18,-1.0277328449932848,5897.533912662888
0.184,-1.026651471425877,5901.190801152708
0.188,-1.0296350033947106,5907.062855606457
0.192,-1.0334655624318256,5901.453167596875
0.196,-1.0347896563351426,5892.552759782723
0.2,-1.031097458451018,5900.777359926171
0.204,-1.0214502574936648,5896.580105824063
0.208,-1.0067345778083199,5899.820786933547
0.212,-0.9894444109032973,5901.42389955433
0.216,-0.9731353774263689,5894.278570107523
0.22,-0.9616845646602885,5896.069967852058
0.224,-0.9584340190482689,5905.750543839729
0.228,-0.9653483830104803,5896.001980034829
0.232,-0.9824524286741871,5900.574204295177
0.236,-1.0078236060781178,5894.921338090102
0.24,-1.03819751979923,5890.271687346166
0.244,-1.0699572302269789,5902.546597929755
0.248,-1.1001220701271275,5901.29184622054
0.252,-1.1269806439881926,5902.143596983758
0.256,-1.1501778475096756,5884.633992121221
0.26,-1.1702966119819906,5890.939222287375
0.264,-1.1881785973556507,5895.811652193898
0.268,-1.204299503121781,5899.633383570385
0.272,-1.2184061202780656,5899.57928716247
0.276,-1.229429164467938,5899.369577970194
0.28,-1.2355952353650037,5905.301179722227
0.284,-1.2347278791272598,5895.794533942472
0.288,-1.2247914536145637,5902.965805046051
0.292,-1.2046452150085827,5902.295608973713
0.296,-1.1748031256838345,5908.765649379405
0.3,-1.1378901369006609,5896.071049007412
0.304,-1.0985101137664015,5901.827166859202
0.308,-1.0624097571774176,5896.0398788400125
0.312,-1.0351270562456807,5898.3546188328
0.316,-1.0205892503230831,5899.868445702819
0.32,-1.020153206021589,5897.516951410182
0.324,-1.0323641218658275,5904.195262057559
0.328,-1.0534414813194548,5890.849280383937
0.332,-1.0783023257276774,5901.934743623256
0.336,-1.10180931691738,5897.398646420047
0.34,-1.1199142571409362,5906.488083751148
0.344,-1.1304755216318274,5898.852877837656
0.348,-1.1336646612859715,5899.617641471316
0.352,-1.1319191737515888,5900.355684499222
0.356,-1.1293681766112427,5895.211982995335
0.36,-1.130714639710844,5895.936772103209
0.364,-1.1397916323565087,5905.969244196132
0.368,-1.1582689797920132,5905.552002668841
0.372,-1.1849872107941761,5904.230927931442
0.376,-1.2160878026737125,5896.2027882929415
0.38,-1.245794991704493,5903.338554299842
0.384,-1.2676351594627215,5905.236481479659
0.388,-1.2759245031708968,5892.188302766095
0.392,-1.26727820127804,5903.039506384207
0.396,-1.2417460095601318,5900.665898641042
0.4,-1.2031866523493029,5899.8926139791465
0.404,-1.158707695498308,5902.032167692819
0.408,-1.1172680276405975,5902.132853517137
0.412,-1.0877438110019864,5904.880477848658
0.416,-1.076889590062364,5887.724786447886
0.42,-1.0876889811441774,5896.290322971362
0.424,-1.1185381611767735,5895.597523307025
0.428,-1.1635237171223785,5900.218903228355
0.432,-1.2137965327694928,5895.36635065914
0.436,-1.2597356633505965,5900.462020597197
0.44,-1.2932737605431543,5899.211079267033
0.444,-1.3096079288213096,5897.616043673947
0.448,-1.3077644669321549,5899.9975043325
0.452,-1.2900263711130733,5898.258154058261
0.456,-1.2606908518466355,5896.26885149359
0.46,-1.2247376997519994,5899.106270167861
0.464,-1.1868052700452654,5905.668977458121
0.468,-1.1506043203197498,5902.90887344492
0.472,-1.1187278316240976,5906.274626182355
0.476,-1.0927578902930988,5895.237402493982
0.48,-1.073540909672418,5901.756234520648
0.484,-1.0614798411248865,5901.678382490173
0.488,-1.056730822991061,5892.850754004446
0.492,-1.0592554605439766,5905.294744422763
0.496,-1.0687007984884906,5900.171955245118
0.5,-1.0841187465394233,5891.908845763402
0.504,-1.10365079402087,5905.260652919513
0.508,-1.1243980857744875,5901.961545609684
0.512,-1.1426720831810127,5900.5013918947
0.516,-1.1546801612754705,5899.343057854266
0.52,-1.15749667353201,5908.056241025354
0.524,-1.1499944783696172,5898.993357326985
0.528,-1.13337043974297,5903.270806885094
0.532,-1.1110288242080282,5898.311284698204
0.536,-1.087832673119363,5897.3158187762365
0.54,-1.0689655536847746,5897.54416700637
0.544,-1.0587328469022799,5900.650184344225
0.548,-1.0595711764951647,5901.360011439135
0.552,-1.0714467499335616,5894.095765523842
0.556,-1.0917731961580264,5898.711199546217
0.56,-1.115917580756393,5904.809646588733
0.5640000000000001,-1.1382354619196375,5903.33334107421
0.5680000000000001,-1.1534043363137243,5901.796056467763
0.5720000000000001,-1.15770369611348,5901.869668839983
0.5760000000000001,-1.1499050999359062,5896.766510188386
0.58,-1.1315630284890865,5906.447998420869
0.584,-1.1066355736920896,5894.817956690486
0.588,-1.0804756155188686,5899.62902416709
0.592,-1.0583736329953015,5908.622632899169
0.596,-1.0440310558566208,5900.067232488706
0.6,-1.0384954501698367,5896.010635791158
0.604,-1.040014421377167,5903.700615036172
0.608,-1.0449021041583946,5902.7277836414105
0.612,-1.0490505887915178,5897.16497304559
0.616,-1.0494555098014522,5895.89274321342
0.62,-1.0451889237158103,5898.275932861273
0.624,-1.0375411343141248,5896.481699566826
0.628,-1.0293924429368841,5911.5418095547175
0.632,-1.0241364838901341,5907.615229002814
0.636,-1.0245770633775781,5897.878182314635
0.64,-1.032137563021071,5899.783538519104
0.644,-1.0465278833221199,5901.284361778916
0.648,-1.0658487806588306,5902.334636312369
0.652,-1.087061756047543,5893.651542409162
0.656,-1.1067379117196987,5898.629689331483
0.66,-1.1219002801932771,5895.05111533948
0.664,-1.1306615939872184,5900.245033942889
0.668,-1.1324347834314956,5908.6809158910855
0.672,-1.127756522527734,5899.441033271551
0.676,-1.1179631762060032,5900.590076352974
0.68,-1.1049218400083938,5896.712887047706
0.684,-1.090847584313305,5890.656033358914
0.6880000000000001,-1.0781222546451887,5893.7288715783225
0.6920000000000001,-1.0690243084493307,5899.969299473711
0.6960000000000001,-1.0653347837994198,5900.73930807832
0.7000000000000001,-1.067888417240517,5902.777827067232
0.704,-1.0762648933306216,5898.573809884855
0.708,-1.0888360701245376,5893.931896559106
0.712,-1.1032202774644426,5902.174012487062
0.716,-1.1169645236007362,5896.726138694388
0.72,-1.128161436067859,5902.149097062327
0.724,-1.1357556683772496,5895.888616367323
0.728,-1.139441890247928,5898.253952798003
0.732,-1.1392416194931991,5901.544270443169
0.736,-1.1350076849447883,5901.797325430758
0.74,-1.126154768723192,5903.240586209854
0.744,-1.1117972001469008,5898.244632746985
0.748,-1.0912526838684424,5896.500200371339
0.752,-1.0646908840114655,5896.702876788774
0.756,-1.0336580209013135,5888.244338374445
0.76,-1.0012550371283293,5910.979606727726
0.764,-0.971830019677369,5905.095672247506
0.768,-0.9501816761624787,5898.248362315883
0.772,-0.9404748200565878,5896.214528937173
0.776,-0.9452514210076415,5902.801436056198
0.78,-0.9649258249622659,5899.945406451585
0.784,-0.9979076790688794,5893.373390603636
0.788,-1.0411321191239218,5899.211255939887
0.792,-1.090576950389636,5888.365155692272
0.796,-1.1414929910610085,5905.983206336496
0.8,-1.188437077844798,5897.416898724631
0.804,-1.2254597354228447,5898.765963318034
0.808,-1.2467720777806024,5897.269271168798
0.812,-1.2479484975693624,5893.2811712148605
0.8160000000000001,-1.2273742855115246,5899.666825997814
0.8200000000000001,-1.1873963059494805,5901.694188043184
0.8240000000000001,-1.1346252581377712,5899.719197709546
0.8280000000000001,-1.0790844560480035,5906.860620866743
0.8320000000000001,-1.0322653171088043,5901.221820871276
0.836,-1.004489300372833,5890.377083686842
0.84,-1.002229971187072,5896.766542345981
0.844,-1.0261711070205293,5898.381373573216
0.848,-1.0706829647353877,5904.334814225018
0.852,-1.1250345318758168,5908.478237762969
0.856,-1.176099434245733,5904.071479397828
0.86,-1.2117797670864165,5899.241878804492
0.864,-1.2241111467851598,5885.3344276349935
0.868,-1.2111270095514333,5901.931999616276
0.872,-1.1769893791845976,5899.91880717354
0.876,-1.1304759058538898,5898.603951516639
0.88,-1.0824217133717497,5903.839016434158
0.884,-1.0429536911713513,5901.332762905581
0.888,-1.019279232515316,5903.924228273688
0.892,-1.014483554206942,5901.060169802364
0.896,-1.027402639413719,5896.361396048227
0.9,-1.0533570316030183,5895.927412755648
0.904,-1.08543595713551,5898.282170615342
0.908,-1.11603170986195,5908.96147133946
0.912,-1.1383507611770618,5898.741579062651
0.916,-1.1476625949385728,5905.049248576041
0.92,-1.1420992848297302,5899.6219552484645
0.924,-1.12288414927729,5899.132745951045
0.928,-1.0939528139327948,5906.073765079283
0.932,-1.0610421676875208,5901.604793917119
0.936,-1.0304463629828664,5903.992975232096
0.94,-1.0077312548579966,5901.264453421947
0.944,-0.996710447152303,5902.527716867806
0.948,-0.9988989162092289,5897.12876553642
0.952,-1.0135051499010181,5907.927574875339
0.956,-1.0378700583225051,5900.893270264106
0.96,-1.0681768416279198,5899.904180738692
0.964,-1.1002527703390097,5905.011266855377
0.968,-1.1303287115158493,5894.913336228339
0.972,-1.1556723197243501,5904.189520812828
0.976,-1.1750187342772562,5907.523001702147
0.98,-1.1886837914932655,5894.836465080209
0.984,-1.198248502364733,5902.148886580851
0.988,-1.2058405374059706,5899.585254038497
0.992,-1.2132487904642848,5903.34007858933
0.996,-1.2212092267061923,5901.2901029162
1.0,-1.229112271794039,5901.897587556844
1.004,-1.2352143335691548,5901.650489868332
1.008,-1.237289554157227,5896.0248031251695
1.012,-1.2335042344485259,5907.00634185204
1.016,-1.2231597965467442,5895.219807473179
1.02,-1.20697918577666,5897.911640666748
1.024,-1.1868555313350182,5896.790505512067
1.028,-1.1652711116221415,5901.053533390298
1.032,-1.1447145023309586,5899.858235800393
1.036,-1.127310722968586,5892.164683885214
1.04,-1.1146451749008774,5910.484698985788
1.044,-1.107606823492445,5901.419752846813
1.048,-1.10614004272642,5894.571148086654
1.052,-1.1090129024388213,5888.849529771642
1.056,-1.1138557064158345,5914.7662049853725
1.06,-1.1176484270405984,5903.351637463928
1.064,-1.117597316374726,5900.130710198965
1.068,-1.1120967429210242,5898.584955792008
1.072,-1.1013504315595404,5893.040319357268
1.076,-1.0873016756173175,5895.587631707484
1.08,-1.0728056616069188,5902.133340256413
1.084,-1.0603768141594117,5900.474659954375
1.088,-1.0511527014834625,5901.440993758731
1.092,-1.0446845051045195,5891.295978700827
1.096,-1.0397080801360303,5907.815319367183
1.1,-1.0354298643757747,5901.169999957435
1.104,-1.0325194887900193,5895.196064543957
1.108,-1.0331615943419303,5898.668458038877
1.112,-1.0400551157031879,5902.809539987325
1.116,-1.0548473988579,5909.735565425936
1.12,-1.076819458324929,5900.169300506145
1.124,-1.1024950896402643,5889.120750702332
1.128,-1.1263534398116928,5896.324208138918
1.132,-1.1423558346924778,5898.009983654568
1.136,-1.1457853837605225,5895.8311555580085
1.14,-1.1348600493662924,5901.296555279326
1.144,-1.1115985998371116,5898.79216644166
1.148,-1.0815643404183177,5897.950799162271
1.152,-1.0524639644080427,5892.165119510424
1.156,-1.032009383108754,5902.947037898598
1.16,-1.0257280726926172,5889.8623479567
1.164,-1.03542050810857,5889.193725416909
1.168,-1.0587389478064229,5899.695415842683
1.172,-1.0899865421087853,5896.778449705517
1.176,-1.1218423900460555,5897.242095642822
1.18,-1.1474477058715167,5903.127637652589
1.184,-1.162207271539999,5896.431839131654
1.188,-1.1647689822587086,5897.492378911069
1.192,-1.156928103181514,5904.733874434033
1.196,-1.1426021794532122,5911.981317796246
1.2,-1.1263749846963598,5896.831449266929
1.204,-1.1122117219478598,5890.278947456271
1.208,-1.1027460243812819,5900.756043574364
1.212,-1.0991913590305724,5893.650660127325
1.216,-1.1016489378563075,5897.91825313144
1.22,-1.1094867871537046,5894.684352750534
1.224,-1.121564241507487,5902.414670333046
1.228,-1.1362855741759763,5901.729117099373
1.232,-1.1516269771499972,5900.517444299099
1.236,-1.165305890354972,5895.984074867228
1.24,-1.1751883060823163,5911.149728282495
1.244,-1.179900886067759,5901.818239457168
1.248,-1.1794430775557008,5899.24734503478
1.252,-1.1754659043905906,5899.383696168958
1.256,-1.1709445510361505,5894.895713880771
1.26,-1.1692466785037325,5903.780174384912
1.264,-1.1729167377881677,5895.32567818464
1.268,-1.1826479754717047,5896.256085618461
1.272,-1.1968330848051691,5898.7504311988905
1.276,-1.2118604631633296,5898.235310180951
1.28,-1.223076348734962,5887.274775981974
1.284,-1.2261321284133928,5898.061600058863
1.288,-1.2183176945971765,5894.157306069901
1.292,-1.1994828881643458,5895.669055035625
1.296,-1.1722744518987072,5902.2575542243
1.3,-1.1416098214645827,5891.833662037986
1.304,-1.1135055857759202,5901.238308444449
1.308,-1.0935516265375185,5902.9486020032455
1.312,-1.085450633708814,5899.963277879494
1.316,-1.0900626488312553,5897.083741024519
1.32,-1.105238722678583,5898.870337861251
1.324,-1.1264405531797441,5895.565779554153
1.328,-1.1479014159469163,5895.942688078559
1.332,-1.1640060647387576,5904.048683467458
1.336,-1.1705709265034296,5903.856829957236
1.34,-1.1657061501883674,5902.142962820668
1.344,-1.15003318641887,5895.909710114768
1.348,-1.126275885298208,5897.3793974196105
1.352,-1.0984696956654258,5896.0208833878105
1.356,-1.0710688231902747,5909.888919821674
1.36,-1.0481384267095153,5901.818627424247
1.364,-1.0327509565487623,5899.023782784314
1.368,-1.0266712249413454,5897.620955195895
1.372,-1.030334089187105,5903.370518218163
1.376,-1.0430088203152839,5897.955317008406
1.38,-1.0630064759512248,5904.575456806943
1.384,-1.0878502950979507,5899.036385645744
1.388,-1.1144218151023888,5909.458832008813
1.392,-1.1391545779476808,5891.086175725245
1.396,-1.1583695515195933,5895.846127139768
1.4,-1.1688195531612953,5892.770970140252
1.404,-1.1683964276221224,5893.622019056968
1.408,-1.1567847294436133,5905.171391754234
1.412,-1.1357507480652542,5911.207879546564
1.416,-1.1088639404547915,5904.2029553033935
1.42,-1.080741048414711,5899.164103186974
1.424,-1.0561647052561782,5896.61359716566
1.428,-1.039411886067326,5892.015958576782
1.432,-1.0338462457692892,5892.592053799713
1.436,-1.0415764645272454,5902.638778086386
1.44,-1.0630131608652291,5895.289066542383
1.444,-1.0964245713396004,5896.874222057725
1.448,-1.1378256861716,5897.25382135295
1.452,-1.1814971322282173,5899.928275333641
1.456,-1.2211186126014548,5905.368730377752
1.46,-1.2511596010709818,5891.005359170289
1.464,-1.268045966919941,5893.784013352859
1.468,-1.2707521896923513,5904.60924765042
1.472,-1.260723778207359,5902.507309115451
1.476,-1.24126367334271,5904.705477469111
1.48,-1.216626492001174,5900.581280635799
1.484,-1.1910577540497522,5896.91236828292
1.488,-1.1679629737289066,5909.575441075378
1.492,-1.1493461658634745,5906.174146210795
1.496,-1.1356210023241469,5898.402274600006
1.5,-1.1258367085903145,5900.872397318196
1.504,-1.1182451906271402,5902.986774468037
1.508,-1.1110134133128167,5901.219750872476
1.512,-1.10284949052085,5905.885251895109
1.516,-1.0933718530269207,5903.21249574379
1.52,-1.0831398354730106,5897.488415111925
1.524,-1.073359073388651,5911.031752657753
1.528,-1.0653901216097568,5908.839546294024
1.532,-1.0602686520915312,5901.08631303536
1.536,-1.0584109373983737,5909.476098952798
1.54,-1.0595609807784814,5904.267338083442
1.544,-1.062952073105473,5901.02406867369
1.548,-1.0676400985977026,5899.100475030497
1.552,-1.0729319290609631,5896.192036818314
1.556,-1.078736471459523,5901.591956527673
1.56,-1.0856165834467904,5903.444423697138
1.564,-1.094436472817046,5904.54858735467
1.568,-1.105739507460105,5906.678484784386
1.572,-1.1191950228420378,5898.068475234907
1.576,-1.133476506491309,5897.969439206911
1.58,-1.1467231391402886,5901.939629700104
1.584,-1.1573706649024993,5901.124775008439
1.588,-1.1648396005382977,5903.176693318699
1.592,-1.1696025025043182,5897.545905772545
1.596,-1.1725826025625612,5894.840238014612
1.6,-1.1743571486765294,5903.77058082418
1.604,-1.1747811989328507,5892.0887346993895
1.608,-1.1732670206684397,5904.022781307126
1.612,-1.1694129225876382,5899.684356880074
1.616,-1.1634585425638457,5897.661596867659
1.62,-1.1562726418684384,5902.646584617702
1.624,-1.1489779708634953,5901.316462838783
1.628,-1.1425550116064396,5904.496400434011
1.632,-1.1377028297669147,5901.431511547968
1.636,-1.1349485161615434,5901.727827584735
1.64,-1.1347422961757963,5898.111772517605
1.644,-1.137306402662731,5908.350134743564
1.648,-1.1422817290116856,5903.07909631532
1.652,-1.1484303465574681,5895.307315722003
1.656,-1.1536265138084256,5902.305623522783
1.66,-1.1552192474940741,5907.651839222377
1.664,-1.1507201038773192,5905.906520016567
1.668,-1.138659413633135,5898.842326866356
1.672,-1.1193467494098717,5899.485187117876
1.676,-1.0952242678497988,5900.031150697427
1.68,-1.0705702981196694,5895.312499149591
1.684,-1.0505060524614893,5902.979480802545
1.688,-1.0395461480728159,5901.810668507644
1.692,-1.0401953666775192,5911.524179310713
1.696,-1.0521573206967612,5903.019106849414
1.7,-1.0725002717900742,5897.997136133948
1.704,-1.0967106063285288,5895.068462242792
1.708,-1.1201710666261286,5894.3393416449
1.712,-1.1394522649113499,5905.793328978964
1.716,-1.1529800258132983,5903.769387781648
1.72,-1.160985810882287,5907.538848047911
1.724,-1.1649251532691525,5901.370471556268
1.728,-1.1666649421843902,5898.398677034553
1.732,-1.1677431913392184,5900.807005806334
1.736,-1.1689289054955254,5903.155005644181
1.74,-1.1701681713610863,5905.35734880908
1.744,-1.1708622504083173,5891.72387333468
1.748,-1.1703332528908996,5900.8063529258025
1.752,-1.1682826936157122,5900.401364434248
1.756,-1.1650657382770189,5905.674007297385
1.76,-1.1617161859823093,5901.224178264941
1.764,-1.1597718133470427,5899.679687023109
1.768,-1.1609672867055842,5893.202755639676
1.772,-1.1668258667706584,5896.657188746794
1.776,-1.1781855228274707,5890.65288420303
1.78,-1.1947469504654966,5896.721793141462
1.784,-1.214782198041994,5896.571875590636
1.788,-1.235172986781651,5897.827841692496
1.792,-1.2519362329806467,5894.89477823933
1.796,-1.2612699722541905,5902.262448270085
1.8,-1.2608918879741047,5905.062763091237
1.804,-1.2511741786073023,5909.637084892111
1.808,-1.235501331866416,5900.870772830579
1.812,-1.2194989448876394,5901.63301387283
1.816,-1.2092484505450887,5896.861266646242
1.82,-1.209107635591739,5906.322796538871
