时间(s),电压(V),幅值(高频80K)
0.0,-1.2519984761991794,5902.359719457601
0.004,-1.2221487318372692,5911.678575771798
0.008,-1.1986959860533708,5898.717940093144
0.012,-1.1858841270039413,5913.840331527083
0.016,-1.185265054348642,5903.782525869813
0.02,-1.1953961378192888,5904.654638932418
0.024,-1.2122972095657574,5899.314308270109
0.028,-1.2305773696078168,5898.857337227702
0.032,-1.244981933128944,5898.1360072362
0.036,-1.2518543586868203,5898.174467820703
0.04,-1.2499046353653849,5901.0321984571065
0.044,-1.2399966566832823,5898.995896424623
0.048,-1.2242809538718489,5888.247388368659
0.052,-1.2053926525826673,5902.034713479776
0.056,-1.1862043503779434,5895.683595418234
0.06,-1.169953032460134,5902.041288407967
0.064,-1.1601354326576705,5898.743452143192
0.068,-1.1598353509148496,5909.484319523034
0.072,-1.170768536325981,5903.24154398069
0.076,-1.1926166433270635,5889.422027778402
0.08,-1.2229593720118117,5892.941421342132
0.084,-1.2577044007611125,5900.229520893369
0.088,-1.2917984866871441,5899.277461138713
0.092,-1.3201496097743681,5894.303930399702
0.096,-1.338726697587157,5888.376963581161
0.1,-1.3455779484851493,5903.054165391217
0.104,-1.3413198081577122,5903.480362330785
0.108,-1.3288282128302462,5894.933055663788
0.112,-1.3123048560903645,5895.011880069887
0.116,-1.2961787445204778,5900.084001952076
0.12,-1.284227806630014,5902.152142042519
0.124,-1.2790469404326068,5893.844255262376
0.128,-1.2818143253936611,5896.229736884777
0.132,-1.2922678104088146,5896.584720407739
0.136,-1.3088092817375203,5897.500458201104
0.14,-1.3287114655143717,5906.806161772523
0.144,-1.3485287377930852,5898.944989106574
0.148,-1.364842967551569,5901.742915428708
0.152,-1.3752433036647744,5894.33617266824
0.156,-1.379108034321376,5893.944253454368
0.16,-1.377698716010495,5906.23035848534
0.164,-1.3734605531995443,5893.109998531079
0.168,-1.3689733853577257,5903.611403112476
0.172,-1.3662021261483857,5894.432109961727
0.176,-1.366359502418071,5910.016181509247
0.18,-1.370169982175155,5907.1538304954665
0.184,-1.3780705537046563,5898.102266738775
0.188,-1.3900163905975675,5901.394165407733
0.192,-1.4049060206191435,5907.209723620676
0.196,-1.4199812042453155,5894.69113449155
0.2,-1.4307106156411453,5909.514962610638
0.204,-1.4315263275308536,5894.244238860279
0.208,-1.417385073868952,5908.179793858121
0.212,-1.3856630662401321,5896.774238586333
0.216,-1.3376071457506524,5906.965889017394
0.22,-1.278641368786656,5898.685223387333
0.224,-1.2172921145231872,5899.703095918937
0.228,-1.1631085565593284,5891.342259121434
0.232,-1.1243330506252742,5901.121666340725
0.236,-1.1060406283595006,5900.7305750506885
0.24,-1.1091810219612661,5908.597855355946
0.244,-1.130658975961041,5898.508133535308
0.248,-1.164354721364283,5897.085356170437
0.252,-1.2027700805346535,5896.004370596965
0.256,-1.2387945465437136,5905.932147317996
0.26,-1.2670647629406633,5902.032759637551
0.264,-1.284648324291381,5900.330676584154
0.268,-1.2911473284083086,5893.358619574708
0.272,-1.2884646354918246,5906.189604935916
0.276,-1.2803269047712762,5897.107905398378
0.28,-1.2714642266254979,5910.311567428315
0.284,-1.2663782828978718,5890.071559500339
0.288,-1.267922673192215,5896.821024242856
0.292,-1.2762568765425761,5901.336044934969
0.296,-1.2887949224310788,5895.835148830771
0.3,-1.301354130095954,5903.954677440376
0.304,-1.3099992620343193,5907.338119651741
0.308,-1.3126101144476405,5903.073501009467
0.312,-1.3094220620820698,5900.810252946473
0.316,-1.3025388649883887,5905.468850721802
0.32,-1.2950102595899546,5901.025477737534
0.324,-1.290044242282649,5895.7568902069725
0.328,-1.290528089911649,5898.125057622875
0.332,-1.2987534938823058,5905.298550826462
0.336,-1.316194474927253,5894.15369997477
0.34,-1.3432173927091724,5904.724471863727
0.344,-1.3786857955000065,5897.968399957943
0.348,-1.4196042218708331,5901.226703096617
0.352,-1.4610947917976604,5901.420168975096
0.356,-1.4969324618964268,5905.229160439081
0.36,-1.520610564808075,5893.235907914218
0.364,-1.5266905408122615,5903.677082414401
0.368,-1.5121373238231444,5901.491389016882
0.372,-1.4773415291536327,5900.582199096017
0.376,-1.4264657168585138,5890.296881047048
0.38,-1.366796060238468,5897.494894440079
0.384,-1.3071500520858232,5898.726293396072
0.388,-1.2558816857809723,5903.981018928339
0.392,-1.2191853844162053,5889.921214870959
0.396,-1.2001310390242206,5903.535964064634
0.4,-1.198496269438363,5901.637830319118
0.404,-1.21127008089348,5897.672402025935
0.408,-1.233637403014459,5904.487995032115
0.412,-1.2601873473126208,5903.883622494749
0.416,-1.2860378298209494,5909.360277043421
0.42,-1.3076147919571441,5904.311067896091
0.424,-1.3229635339302266,5905.229927985876
0.428,-1.3316392548360292,5899.332723574468
0.432,-1.334365823477582,5898.321134048256
0.436,-1.3327020733376365,5907.850537386143
0.44,-1.3288477677453905,5903.568426395227
0.444,-1.3255054691975312,5904.688433223707
0.448,-1.3255799867560232,5898.022213504124
0.452,-1.3315744170417267,5892.263993918032
0.456,-1.3447629404819983,5910.348617356686
0.46,-1.364429491138254,5905.166618678708
0.464,-1.3875411153466357,5903.385515321513
0.468,-1.4091123345018088,5896.522054756118
0.472,-1.4232447875901915,5895.009063736911
0.476,-1.4245502194038266,5897.17469264684
0.48,-1.4095359381011512,5898.64578166308
0.484,-1.3775771992158117,5893.366082682499
0.488,-1.3312557667750073,5900.113009404919
0.492,-1.2760145055201824,5891.761586192203
0.496,-1.219204345955498,5896.493719406189
0.5,-1.1687095537314567,5908.830060375326
0.504,-1.131459909855426,5899.203249786731
0.508,-1.1122008156888326,5893.339584009811
0.512,-1.1127998828706889,5907.091354348483
0.516,-1.132149776502963,5897.70946410001
0.52,-1.1665223491707797,5898.572448850855
0.524,-1.2101670259430664,5897.208740407615
0.528,-1.2560573044276493,5898.910118050996
0.532,-1.2968588251806843,5904.381522876984
0.536,-1.3261872096290939,5898.264169399207
0.54,-1.339943294777964,5901.552825226695
0.544,-1.3372302544546382,5892.731218691338
0.548,-1.3204425095133343,5898.455700016062
0.552,-1.2945371697615582,5904.6898912361
0.556,-1.2658670401652714,5896.18737120054
0.56,-1.241003688162277,5895.828850567141
0.5640000000000001,-1.2257574831390032,5904.014241055102
0.5680000000000001,-1.2243315442616187,5905.998954866343
0.5720000000000001,-1.238477058133857,5902.4444297009
0.5760000000000001,-1.266751564125609,5901.8693849045785
0.58,-1.3043082526787635,5907.268756703905
0.584,-1.3436691129827214,5899.4093687512695
0.588,-1.3765169048167387,5902.935846176836
0.592,-1.395994797992113,5903.646042309439
0.596,-1.3987337779989604,5900.745887822335
0.6,-1.3859258969384367,5896.164114490785
0.604,-1.3630888839778679,5896.365412495621
0.608,-1.3385948924923392,5897.901146290431
0.612,-1.3214235085852866,5898.54546555371
0.616,-1.3187934289116514,5887.842900290907
0.62,-1.334295732947165,5901.867348810657
0.624,-1.3669806183861928,5890.720979498559
0.628,-1.4116118176237704,5898.553293835402
0.632,-1.4600136208300232,5892.41121303459
0.636,-1.5031195185777952,5898.264509154048
0.64,-1.533096291080178,5894.306250818831
0.644,-1.5449024974197425,5897.806738801123
0.648,-1.5368784070887955,5896.592523445954
0.652,-1.5103508009728481,5905.588989476033
0.656,-1.468611127101497,5898.648278004248
0.66,-1.4158368934674783,5894.739796603103
0.664,-1.3564699618459863,5893.235344587649
0.668,-1.2952339992660464,5897.010525114993
0.672,-1.2375128216732543,5897.081135519498
0.676,-1.1895044039517049,5905.290998538636
0.68,-1.1576291480391472,5901.054858440211
0.684,-1.1470784064516533,5896.980133676032
0.6880000000000001,-1.1599322015633837,5900.229834164155
0.6920000000000001,-1.1936864744850306,5906.866556643107
0.6960000000000001,-1.2410608223196606,5903.289969517902
0.7000000000000001,-1.2915099261524121,5896.544125996127
0.704,-1.3340950310524635,5901.015875798405
0.708,-1.3606711428209868,5894.394090037064
0.712,-1.3681301794893503,5903.913991694108
0.716,-1.3588545414572377,5901.097189225878
0.72,-1.3393369752613804,5896.6718862233865
0.724,-1.3176966914680275,5899.410928515204
0.728,-1.3011898539540165,5893.177380100515
0.732,-1.294572700230235,5891.63647501293
0.736,-1.2995238441558452,5900.274185305421
0.74,-1.3148041751273833,5895.058555169905
0.744,-1.3367758140734651,5902.531026849325
0.748,-1.3601476756544681,5894.582908095513
0.752,-1.3789835157279469,5890.293648903755
0.756,-1.387934802040582,5900.450870165239
0.76,-1.3834674685929496,5902.723906470224
0.764,-1.364753336700654,5901.1379545534055
0.768,-1.33398239566904,5892.579702458333
0.772,-1.296026017443916,5898.79266108993
0.776,-1.2575309496549507,5890.953992284763
0.78,-1.2256472143603236,5903.690143963387
0.784,-1.2066842449514352,5894.773520543154
0.788,-1.2049677713594646,5903.092007043294
0.792,-1.2220396020873971,5895.1363636816695
0.796,-1.2562534282447066,5896.3076983673855
0.8,-1.30285597113017,5902.9606422746
0.804,-1.354685564750457,5899.702343183978
0.808,-1.403504576529542,5897.948617862417
0.812,-1.4417225024796578,5897.979428286607
0.8160000000000001,-1.4640583550235533,5904.823598942523
0.8200000000000001,-1.4686848561124026,5903.015796593294
0.8240000000000001,-1.4575572359632194,5900.806183701949
0.8280000000000001,-1.4358498381341764,5892.255014153929
0.8320000000000001,-1.4106554803125633,5902.958168831945
0.836,-1.389299149892859,5899.238429841878
0.84,-1.377697381989148,5893.84687716021
0.844,-1.3791382044396912,5900.309760158194
0.848,-1.393726558484389,5901.524511351186
0.852,-1.4185782639704274,5902.146127225715
0.856,-1.44865881460059,5895.057833098788
0.86,-1.4780041200493197,5904.629729147919
0.864,-1.5010099701790163,5896.859786750845
0.868,-1.5135426894572985,5897.141366099371
0.872,-1.5137274935904765,5894.820688325174
0.876,-1.5023295104866172,5900.423924646078
0.88,-1.48263306688821,5891.859329242541
0.884,-1.4597203142752277,5891.942815954074
0.888,-1.43915661638198,5904.925566355611
0.892,-1.4253297116984507,5902.571406155834
0.896,-1.4199607932848004,5900.044177178751
0.9,-1.4214049075631017,5900.3219469944925
0.904,-1.4251082293067427,5902.896005881584
0.908,-1.425085067049729,5896.494417869949
0.912,-1.4158776326432096,5900.261789809231
0.916,-1.3943883124717709,5898.990929091858
0.92,-1.3610920227398156,5901.965866323134
0.924,-1.320264805042489,5897.317303100247
0.928,-1.2790464127083077,5901.059448263691
0.932,-1.2454715673821295,5896.3584661990535
0.936,-1.2259828019936758,5898.322871735888
0.94,-1.223215471308895,5898.316588657463
0.944,-1.2348658000421904,5895.52006085674
0.948,-1.2541282415828576,5906.474071603813
0.952,-1.2716133188298169,5888.63875470268
0.956,-1.2781085720206389,5896.2147467844525
0.96,-1.2672922907815385,5905.449796052592
0.964,-1.2376197380992653,5909.275835517009
0.968,-1.1929142377665454,5886.8114786762
0.972,-1.1415060839967988,5908.894153446875
0.976,-1.0940607128580844,5903.015913240356
0.98,-1.0606374050056588,5899.387401765171
0.984,-1.0479157512508714,5895.184145094227
0.988,-1.057580819714779,5902.256314718064
0.992,-1.0864069377076082,5895.405576047988
0.996,-1.1278503499100607,5903.3829643602885
1.0,-1.1743604503023193,5898.564332394182
1.004,-1.2194569142727922,5901.333812808705
1.008,-1.2589334816079374,5901.259920013164
1.012,-1.2910769973038416,5901.513657166695
1.016,-1.316185286068245,5896.675426646263
1.02,-1.3357780950190097,5893.452623084155
1.024,-1.3518091055547918,5895.083851615695
1.028,-1.3660562624641142,5905.185644446177
1.032,-1.3797608547334614,5893.987237753991
1.036,-1.3934922742258162,5896.805654067015
1.04,-1.4071349891459282,5904.398252009335
1.044,-1.419872560802905,5900.997793090996
1.048,-1.430121936027055,5898.445878340566
1.052,-1.4355164487082024,5895.295055649097
1.056,-1.4331334023404803,5897.735771032355
1.06,-1.4201059110539613,5897.410973528697
1.064,-1.3945467436817882,5898.535627378301
1.068,-1.3564701656589038,5903.581128201825
1.072,-1.3083119706863187,5899.611240333191
1.076,-1.2547874224069138,5899.32923897603
1.08,-1.202067783782647,5906.468482431
1.084,-1.1564774998649932,5899.968175803224
1.088,-1.1231064241899418,5898.583880394674
1.092,-1.1048093534587997,5904.454989566
1.096,-1.1018841550320984,5894.719507327257
1.1,-1.1123870594818481,5901.4119504026585
1.104,-1.1328546759488154,5902.8465770845
1.108,-1.15920971144537,5897.937905068614
1.112,-1.1876303086777067,5902.231677593897
1.116,-1.2151382091829235,5897.8182409268575
1.12,-1.2398085373742564,5893.973846851717
1.124,-1.260787553898456,5904.901683792578
1.128,-1.278371805360126,5899.574770103156
1.132,-1.2941307388668635,5895.5668948976745
1.136,-1.310774147717657,5891.095535207851
1.14,-1.3314839160182288,5894.666949636657
1.144,-1.3587244943836423,5899.782882811652
1.148,-1.3929325188430917,5904.434104396679
1.152,-1.4317261846076739,5896.997570877737
1.156,-1.4701472302213232,5902.630770701656
1.16,-1.501973830755911,5903.089309793683
1.164,-1.5216321625608877,5894.994512165476
1.168,-1.5259996610002038,5892.672285396155
1.172,-1.5154929891273794,5898.704257065801
1.176,-1.4941157207823914,5906.942668007954
1.18,-1.4684571947057847,5898.9260353721775
1.184,-1.4459371629426863,5892.15333013792
1.188,-1.4328196209527324,5901.828861001862
1.192,-1.4325587409207163,5907.685542274848
1.196,-1.444873395251492,5901.180382364028
1.2,-1.465696196536875,5906.090019601375
1.204,-1.4879271747387888,5898.455856680568
1.208,-1.5028020601872378,5902.994186370981
1.212,-1.501667123998824,5898.093451395089
1.216,-1.477964409005614,5897.759371089847
1.22,-1.4291980691055444,5898.627745666761
1.224,-1.358562161850951,5907.581743636422
1.228,-1.2757800348425907,5901.712914046126
1.232,-1.1966177923205779,5906.688609973869
1.236,-1.1406342916678291,5901.334941616796
1.24,-1.1270759438343196,5898.357016891991
1.244,-1.1693431276973958,5903.829877903655
1.248,-1.2690314245971461,5904.604405694714
1.252,-1.4110231960582988,5893.147166852427
1.256,-1.5612612719525323,5895.869553319111
1.26,-1.6685752440225747,5894.244663272379
1.264,-1.671319292990097,5904.146797220713
1.268,-1.5086505422804395,5897.595414164604
1.272,-1.1349508938799595,5897.169924248771
1.276,-0.5342759678883431,5899.27720513239
1.28,0.2696164638539616,5898.978742884176
1.284,1.2121639611511825,5899.649709202499
1.288,2.198240261191583,5896.238068206384
1.292,3.1220460319868377,5892.780665182533
1.296,3.8906369372879213,5918.291258927027
1.3,4.443275289899957,5930.731567131834
1.304,4.76078680487494,5933.233788377229
1.308,4.863437789711116,5942.510544830098
1.312,4.799887754104228,5947.46009738236
1.316,4.631901482022979,5959.944889264732
1.32,4.419574795752529,5977.259502347769
1.324,4.210493821186804,5983.788993886653
1.328,4.034357976571697,5996.457036899337
1.332,3.9028397493240545,6005.03833669411
1.336,3.8132570547736724,6003.391121392846
1.34,3.754168642257084,6026.150809412234
1.344,3.7111376714784825,6019.111913300022
1.348,3.6713440421663255,6029.230596584515
1.352,3.6262954762993016,6047.752349345988
1.356,3.5725468445164137,6041.239781199528
1.36,3.510909311441627,6056.516697129287
1.364,3.4448660805900904,6070.977646503415
1.368,3.3788046364363646,6073.59800653361
1.372,3.316475753518958,6072.168391748994
1.376,3.25997740916482,6083.114033264985
1.38,3.2094584594577573,6106.61077667917
1.384,3.163509364999764,6106.151197928124
1.388,3.119949879985551,6104.743199258433
1.392,3.076635393806479,6119.644007893391
1.396,3.031994452905071,6121.766962673552
1.4,2.985166193468381,6125.5479364968605
1.404,2.9357774558417096,6133.191508194975
1.408,2.883548488548353,6147.818938200158
1.412,2.827975812414462,6146.672407799842
1.416,2.768290392186834,6146.150554742203
1.42,2.703763861759579,6159.45782263355
1.424,2.634281012066342,6155.924020929679
1.428,2.560958571556368,6158.770423562541
1.432,2.4865093174996553,6176.321162902647
1.436,2.415077131822111,6178.899257869934
1.44,2.3514487978854945,6176.216341608335
1.444,2.2998189964596287,6199.83460274583
1.448,2.2624767351353876,6194.534228565239
1.452,2.238824652851235,6199.116214889782
1.456,2.225111950066866,6206.028949632221
1.46,2.215140849231013,6204.285687250157
1.464,2.2018690893451787,6215.753735007629
1.468,2.179371129272393,6219.980295711848
1.472,2.1444108947985754,6224.407926471612
1.476,2.0971234246485997,6227.414922586228
1.48,2.040764114661908,6228.110488836135
1.484,1.9808025655014068,6239.498292129854
1.488,1.9237139323752317,6245.257963524175
1.492,1.8757538434166308,6237.985301406663
1.496,1.841873902572969,6239.833562417784
1.5,1.824816275286816,6254.44568108558
1.504,1.8244228445971566,6255.34298889102
1.508,1.8373025104248824,6254.386109145473
1.512,1.8570684561573512,6264.497511558239
1.516,1.8752677699766889,6261.826322839616
1.52,1.8828963200131967,6278.623424614565
1.524,1.8721535893879016,6275.08164525295
1.528,1.838021927413084,6270.5514082752825
1.532,1.7793950328185382,6275.704087680749
1.536,1.6996445558792472,6285.24011864728
1.54,1.6065037023243773,6295.100391444091
1.544,1.51104791346968,6284.775014897892
1.548,1.425677967032887,6306.418109110434
1.552,1.3614646101408023,6300.755954983271
1.556,1.3256439861529794,6295.276916029517
1.56,1.3200391171672803,6299.453438030699
1.564,1.3407474304302465,6299.762340119118
1.568,1.3789678596526853,6309.189585347518
1.572,1.4226467247984542,6310.315936421593
1.576,1.4586736238119902,6316.550063389523
1.58,1.4753971986658618,6316.499314452446
1.584,1.4650579516694722,6314.932270720707
1.588,1.425484586340757,6318.089890044048
1.592,1.3604289804427088,6319.110537796984
1.596,1.2783600418182166,6327.465040099884
1.6,1.1901312733054068,6313.584755019292
1.604,1.1063315163398137,6328.964966873535
1.608,1.03518371853067,6327.365410027669
1.612,0.9815709193346536,6326.338727885697
1.616,0.9472151241358135,6333.973674730511
1.62,0.931484288801863,6341.880063352818
1.624,0.9321456542810912,6329.122410772782
1.628,0.945741076837858,6342.234589647624
1.632,0.9677711369215724,6340.629324339291
1.636,0.9930426296045128,6345.609723388076
1.64,1.0162937509518497,6342.6902147642895
1.644,1.0329669609587473,6353.987467211608
1.648,1.0399961134512934,6358.9137380735965
1.652,1.0364539903574914,6348.191270337486
1.656,1.023692645094574,6356.36952354644
1.66,1.0046048131147591,6352.712836509796
1.664,0.9821889422743058,6361.830181355504
1.668,0.9582653347369101,6360.454064952919
1.672,0.9332084118498019,6361.361562933187
1.676,0.9068320416633371,6368.464082451388
1.68,0.8797198639212213,6359.5542226662255
1.684,0.8539832274671391,6365.981208832071
1.688,0.8328233213910758,6360.694424156486
1.692,0.8190678943235478,6368.848772995953
1.696,0.8135275194734908,6374.907239100292
1.7,0.8141453748023385,6371.132585863211
1.704,0.8164512261648464,6374.5009325717565
1.708,0.8151238923427204,6378.421341774712
1.712,0.8059462294023043,6385.15129292517
1.716,0.7873195312197943,6381.031737535725
1.72,0.7607655633361619,6383.353139573457
1.724,0.7303182249088639,6381.246954646302
1.728,0.7011527691842161,6389.672723380677
1.732,0.6779950979414238,6382.471060811739
1.736,0.6637662766110018,6378.33932333301
1.74,0.6587384663644142,6379.172088663123
1.744,0.660362764698741,6394.836751703932
1.748,0.6638356161199431,6385.751720020651
1.752,0.6633253402529704,6393.094322600688
1.756,0.6536036963907437,6387.382756588703
1.76,0.6316510475130052,6394.228135282484
1.764,0.5976746684014481,6392.5189938573
1.768,0.5550466861789888,6389.654561924661
1.772,0.5090668473464367,6395.721372862128
1.776,0.46506639982423037,6398.084055654154
1.78,0.42678967448678057,6392.624284752516
1.784,0.39584584181613125,6393.732060042245
1.788,0.37236691279353007,6396.964673709304
1.792,0.3563276864058873,6402.077970166945
1.796,0.3487309493974778,6393.143606118898
1.8,0.35205482496565277,6407.181237630844
1.804,0.3697327989264081,6384.563155556865
1.808,0.40481438294178695,6396.393095253935
1.812,0.45828966908210794,6403.055990084725
1.816,0.5277470196727521,6399.730235680399
1.82,0.6069364702652473,6397.149574667801
1.824,0.6864716600183012,6412.712966101083
1.828,0.7555024903617472,6399.0966098021945
1.832,0.8038855439086129,6407.434311965628
