时间(s),电压(V),幅值(高频80K)
0.0,-1.0975274858627437,5898.557973021228
0.004,-1.1028617750113008,5894.456696061717
0.008,-1.1138421435779682,5899.090709824014
0.012,-1.1337240108985536,5897.382104548194
0.016,-1.1625993079262749,5901.214142819245
0.02,-1.197399639324419,5900.189631800321
0.024,-1.2328734876798146,5897.350731297612
0.028,-1.263122157006407,5897.179997399954
0.032,-1.2833030345154948,5898.327670575086
0.036,-1.2910764289022358,5895.684089854662
0.04,-1.2873228112799135,5901.982003304893
0.044,-1.275812786813891,5901.769938671787
0.048,-1.2619193687708172,5903.94820123079
0.052,-1.2508925902817254,5899.258838430643
0.056,-1.246365060709448,5900.224246542629
0.06,-1.249533909077796,5900.049414788454
0.064,-1.259094115733706,5899.383680441348
0.068,-1.2717766252527687,5894.8273592226005
0.072,-1.283320605838142,5900.098100716453
0.076,-1.289696690321138,5900.208739943297
0.08,-1.2882896170361606,5898.584331950445
0.084,-1.2786709510860552,5897.17552809416
0.088,-1.2626957152199463,5908.491826124022
0.092,-1.2438925771032447,5897.307180229239
0.096,-1.2263316136874123,5908.1472735485495
0.1,-1.2132965362898485,5894.0431982342025
0.104,-1.2061902840297327,5903.567718035713
0.108,-1.2041065258473949,5893.629058014924
0.112,-1.2042963763468715,5910.569843842871
0.116,-1.2033861716549326,5902.243227321474
0.12,-1.198854059618039,5898.322363237269
0.124,-1.1901363973687744,5902.986728455178
0.128,-1.178877748110673,5897.2471570351545
0.132,-1.1682094391890603,5894.5589734811065
0.136,-1.1613868019111189,5902.943808423957
0.14,-1.1604152131110133,5904.489901006789
0.144,-1.1652853239233287,5904.673508873583
0.148,-1.1741321714984982,5906.093518095076
0.152,-1.1842009172782613,5898.278576716972
0.156,-1.1931443056639075,5904.622310660242
0.16,-1.2000438323455496,5893.175654193394
0.164,-1.2056991747675496,5902.451219019104
0.168,-1.2120998095003201,5905.5541544778325
0.172,-1.2213823745595642,5899.5014430054425
0.176,-1.2347700098090726,5887.449894661496
0.18,-1.2519184513540769,5901.580097353922
0.184,-1.270877775925521,5894.448974934371
0.188,-1.2886494495460716,5893.419581250926
0.192,-1.3021058604397344,5904.8973740421125
0.196,-1.3088943471342471,5898.926022326433
0.2,-1.3079947978995363,5898.633926979602
0.204,-1.29983978948904,5908.457261338186
0.208,-1.286129632558292,5896.053003395489
0.212,-1.2695078519774319,5890.203424669396
0.216,-1.253154879892085,5897.96923386482
0.22,-1.2402657602186062,5901.786351394263
0.224,-1.233405578467565,5901.08239083933
0.228,-1.2338802390716332,5906.08148114387
0.232,-1.2413955869432853,5900.345177978051
0.236,-1.2542420602403244,5900.711276359668
0.24,-1.2699999917340143,5901.087742382096
0.244,-1.2864689760141625,5900.063175068258
0.248,-1.3023997369194533,5901.30923453968
0.252,-1.3177271265293113,5900.683805096439
0.256,-1.3332639628272969,5903.181675892412
0.26,-1.350055098630081,5896.929230802686
0.264,-1.3687021189469326,5901.37908839472
0.268,-1.3889274996723218,5905.436526790573
0.272,-1.4094953740620837,5899.501278594896
0.276,-1.428423945177369,5895.980778353866
0.28,-1.4433185436836893,5898.45595853907
0.284,-1.4517053977001393,5896.5316369744205
0.288,-1.4513943851499111,5902.974698440441
0.292,-1.4409550922150922,5908.133013189198
0.296,-1.420251774072216,5905.053483776644
0.3,-1.3907845912744845,5902.113787766319
0.304,-1.3555630065028736,5901.5383721991175
0.308,-1.3184635334864183,5898.185187451288
0.312,-1.2833177598486802,5905.38150174346
0.316,-1.2530976725196683,5905.201343066639
0.32,-1.2294651971297874,5903.817181044456
0.324,-1.2127672192461065,5896.021584717935
0.328,-1.2023942842669435,5903.5332289073085
0.332,-1.1973055271389113,5897.924536419348
0.336,-1.1964943518858309,5894.440367774869
0.34,-1.1992586999734147,5902.101810323577
0.344,-1.2052799728964623,5904.075946300844
0.348,-1.2145876972177585,5898.719865495814
0.352,-1.2274368042573078,5906.089900476218
0.356,-1.2440339562896965,5900.704253328032
0.36,-1.2640889621827214,5905.132585911881
0.364,-1.2863726932700188,5899.1807952246245
0.368,-1.3086149616411835,5906.768803392975
0.372,-1.3279478272605176,5897.371505065459
0.376,-1.3417648539191112,5915.460792999217
0.38,-1.3486048083294988,5898.974248991309
0.384,-1.3486477138165576,5901.349741460608
0.388,-1.3436039332356453,5895.532430373447
0.392,-1.336064918300934,5903.808418833925
0.396,-1.32861552375052,5896.479616235392
0.4,-1.3230528635765764,5895.859183438909
0.404,-1.3199164005318724,5903.064342791121
0.408,-1.3183647999140866,5902.260685436148
0.412,-1.3163906811605754,5900.020255024463
0.416,-1.3113909442136387,5897.527225030426
0.42,-1.3010204272867572,5900.068223202468
0.424,-1.284050614700924,5897.060313018099
0.428,-1.2608765679710243,5903.18224861667
0.432,-1.233505750024894,5904.939257426845
0.436,-1.2051487718196954,5900.540892693848
0.44,-1.1796533787495445,5895.48263608354
0.444,-1.1609322745872257,5899.0032431314285
0.448,-1.1523916968228303,5907.471654232094
0.452,-1.1563258653078727,5898.854424158222
0.456,-1.1733284500880612,5904.935386519972
0.46,-1.2019035896425085,5898.918722375647
0.464,-1.2385127086132333,5902.546238343059
0.468,-1.2781831373311214,5895.788061810935
0.472,-1.3155642604911149,5891.416924120548
0.476,-1.3460976913047313,5902.21273852719
0.48,-1.366903410741793,5898.668779967192
0.484,-1.3770933618238452,5900.639830070964
0.488,-1.3774597057882025,5899.05596147761
0.492,-1.3697636343649007,5900.711310671818
0.496,-1.3560254789354713,5901.34666481767
0.5,-1.3381599605558152,5906.878633478064
0.504,-1.3180456768819149,5904.859910748867
0.508,-1.2978369568387356,5898.538664077049
0.512,-1.2801763950410514,5905.289797154438
0.516,-1.2680096875915767,5896.094410869042
0.52,-1.2639130313297453,5905.637150958229
0.524,-1.2691224764294646,5891.426172453307
0.528,-1.282678320242725,5901.770577341173
0.532,-1.301140417745887,5895.438331988694
0.536,-1.319123591493114,5913.061086417274
0.54,-1.3305418612592415,5891.954703890528
0.544,-1.3301639353729815,5906.336301038911
0.548,-1.3150018852338854,5900.812189038191
0.552,-1.2851288905424763,5905.116766368995
0.556,-1.2436843681493186,5892.164347008848
0.56,-1.196072782548468,5900.093309071068
0.5640000000000001,-1.148635886019682,5900.436352533056
0.5680000000000001,-1.1072385811433707,5897.858527516977
0.5720000000000001,-1.0761857988772057,5893.175975529005
0.5760000000000001,-1.057728643326826,5903.648986438835
0.58,-1.0521946821404489,5894.565767310428
0.584,-1.058554110311866,5894.655439215184
0.588,-1.075095419953501,5894.874988535869
0.592,-1.099901750998415,5902.40259299374
0.596,-1.1309800810387836,5897.140259401114
0.6,-1.166108065223142,5901.361085771103
0.604,-1.2026285521338382,5902.76282822888
0.608,-1.2374624455852778,5906.035553465286
0.612,-1.267472124733507,5901.740212624831
0.616,-1.2900395303637096,5902.506501100756
0.62,-1.3035289795108753,5900.220452714715
0.624,-1.307390449721107,5897.423220931476
0.628,-1.3019797495677876,5904.075415754104
0.632,-1.2883983930046123,5902.451012507422
0.636,-1.2685292886928854,5902.755683310791
0.64,-1.2451235584406528,5892.862994163033
0.644,-1.2216612330653467,5902.905267787175
0.648,-1.2018890232892332,5902.602661935531
0.652,-1.1892031052461483,5892.638130483019
0.656,-1.1861315471300202,5907.612472815034
0.66,-1.1940400577355441,5902.94792782126
0.664,-1.2129937939793134,5899.191461783369
0.668,-1.2416390714355856,5902.666550785507
0.672,-1.277070530670271,5905.727060471632
0.676,-1.3148123600535697,5907.489416909617
0.68,-1.349130509447134,5893.25788379152
0.684,-1.3738438561407529,5901.267817289585
0.6880000000000001,-1.383603828760003,5901.347837310529
0.6920000000000001,-1.3753309767102835,5906.102505567756
0.6960000000000001,-1.3493174036876083,5901.315316392495
0.7000000000000001,-1.3095504009353964,5890.402763531604
0.704,-1.2630186743080443,5886.853289788261
0.708,-1.2180642539128976,5902.551387891534
0.712,-1.1822495276241687,5902.605501129961
0.716,-1.1605385006393931,5894.136354415033
0.72,-1.154505639513638,5896.731908643375
0.724,-1.1627465768351162,5894.931624371686
0.728,-1.182065646814635,5904.33306376663
0.732,-1.2087587787947431,5904.217263399869
0.736,-1.2394632839136965,5906.998822133881
0.74,-1.2714167437115906,5902.862874465467
0.744,-1.3023135159470949,5901.573452542794
0.748,-1.33009180002876,5893.01473336041
0.752,-1.3529068992954063,5904.3623906169
0.756,-1.3693763412614812,5899.290998549453
0.76,-1.3790200445198282,5902.206555596083
0.764,-1.382662304063351,5905.350290908705
0.768,-1.3824543596402323,5898.730225569984
0.772,-1.3812678294704377,5893.5729158497
0.776,-1.38157025947029,5905.148401673568
0.78,-1.3843043072869967,5898.832952224859
0.784,-1.388379029744078,5895.635019814585
0.788,-1.391047304655289,5897.029992766346
0.792,-1.3889925856123175,5899.201411088465
0.796,-1.3796948339855613,5889.313542639716
0.8,-1.3626008484370347,5897.870056482175
0.804,-1.3396752043922622,5899.846560696191
0.808,-1.3150594900790566,5896.431104759793
0.812,-1.293869540921634,5903.392165526651
0.8160000000000001,-1.2805392639271642,5899.661480350296
0.8200000000000001,-1.277372156955712,5903.555110228676
0.8240000000000001,-1.2838973354810848,5900.741327106949
0.8280000000000001,-1.2972397029218639,5898.508427465694
0.8320000000000001,-1.3132240748989839,5895.556854578499
0.836,-1.3276369073874739,5904.5093493273325
0.84,-1.3371289082938067,5907.715171217102
0.844,-1.3395715492933178,5903.509228381928
0.848,-1.3340153622525919,5898.680441829643
0.852,-1.320514747158396,5901.270139936878
0.856,-1.2999769043622376,5892.462638313921
0.86,-1.2740388256829245,5898.233392629453
0.864,-1.2449380582415668,5902.685121297689
0.868,-1.2153991676552505,5895.781798239944
0.872,-1.1885610150739463,5892.859396924508
0.876,-1.167858804688982,5908.22821852882
0.88,-1.1566721228820591,5898.092711629544
0.884,-1.1576319512552846,5904.522748962379
0.888,-1.171742541725249,5901.532822913194
0.892,-1.197687652853951,5897.282845731768
0.896,-1.2316643368232627,5904.635172286778
0.9,-1.2678895424414887,5906.826073654172
0.904,-1.2997298317803894,5894.378329319035
0.908,-1.3212490157320642,5897.777810432121
0.912,-1.3287913423955713,5896.0114389952805
0.916,-1.32207160017808,5899.112452661069
0.92,-1.304302776303107,5894.275494035007
0.924,-1.2812192502022297,5899.324171983737
0.928,-1.2592942239694205,5898.623564016808
0.932,-1.2437822741676419,5902.793715436708
0.936,-1.2372808913405404,5900.913130933894
0.94,-1.239255203435253,5894.631924379838
0.944,-1.2465562689533785,5898.161708774174
0.948,-1.25463446231845,5894.904790676491
0.952,-1.2590178728196864,5904.628282646806
0.956,-1.2566318505507348,5899.187123737067
0.96,-1.2466080989500037,5908.97290744001
0.964,-1.2303698355860178,5899.987943810183
0.968,-1.2110076386056565,5898.515859480482
0.972,-1.1922217988406432,5905.387923939824
0.976,-1.177249296961913,5905.190979147953
0.98,-1.168125361178264,5894.945775852013
0.984,-1.1654248307143213,5899.838044025671
0.988,-1.168432850871081,5900.787167828083
0.992,-1.1755927225419012,5893.536229621988
0.996,-1.1850570775522191,5900.468711696064
1.0,-1.195176934385802,5894.8071255980085
1.004,-1.2048059269039952,5888.964103368548
1.008,-1.2133952639208727,5907.050088855231
1.012,-1.2209429184743756,5905.211964640705
1.016,-1.227853242138879,5902.620808165842
1.02,-1.2346991866753045,5905.1933306730125
1.024,-1.2418718050851159,5894.153369212514
1.028,-1.2491871465607536,5898.972719830865
1.032,-1.2556282283147029,5886.7460191866085
1.036,-1.2594296423235487,5909.54099744967
1.04,-1.2586079903394884,5894.873561727681
1.044,-1.2518185931180736,5896.895135857486
1.048,-1.239180400742835,5896.792040925621
1.052,-1.222632821333002,5901.000833469488
1.056,-1.2055905593000336,5899.038876969502
1.06,-1.1920375215376628,5892.679360143759
1.064,-1.1854689734789237,5903.306987638842
1.068,-1.1880832137689536,5899.888804645506
1.072,-1.2004172047328259,5902.702331451645
1.076,-1.2213949645044841,5906.431357815644
1.08,-1.2486430051058037,5898.69361350921
1.084,-1.2789671002830614,5901.190994877448
1.088,-1.3089832710241969,5898.33311260676
1.092,-1.3358547735115038,5904.600003161012
1.096,-1.3578901393546758,5902.14874023127
1.1,-1.374685544621872,5905.768539310641
1.104,-1.3867399442059112,5900.634045827673
1.108,-1.3948297354671904,5902.707027150167
1.112,-1.3995585741257786,5899.452033646395
1.116,-1.4013009332575723,5904.117159219221
1.12,-1.4004258151843851,5898.971265429717
1.124,-1.3974889447257421,5903.892376544038
1.128,-1.393154088910404,5898.537364774526
1.132,-1.3878629008993213,5902.839068825896
1.136,-1.3814928514638547,5903.046168292236
1.14,-1.3732553529389429,5894.548327077463
1.144,-1.361912144309836,5897.34724079058
1.148,-1.3461830808073236,5900.447164945893
1.152,-1.3251432692438656,5903.972495439189
1.156,-1.2985160445525024,5906.98400995098
1.16,-1.2669225658185153,5908.527819813839
1.164,-1.2321265364326035,5897.505016983986
1.168,-1.197105855618785,5899.095576782392
1.172,-1.1656729462721098,5897.165052739639
1.176,-1.1415773755226468,5907.180890527056
1.18,-1.1274085580706203,5893.160166138338
1.184,-1.1238065379810687,5899.166942285205
1.188,-1.12931831173838,5898.673896031682
1.192,-1.1408888458130608,5906.596533192933
1.196,-1.1547422199836,5903.367296454858
1.2,-1.1673792580612095,5904.021978089579
1.204,-1.1764592283111899,5902.583058679595
1.208,-1.181333751426882,5895.798821708807
1.212,-1.1830320299418822,5901.368977318446
1.216,-1.183688661016402,5898.518384808584
1.22,-1.1857030584542287,5906.2319158745295
1.224,-1.1910469017831578,5898.387340288228
1.228,-1.2009276552115022,5897.527604037106
1.232,-1.2156850583291958,5908.70972099772
1.236,-1.2346868363256405,5893.346381555456
1.24,-1.2561655335436035,5891.214215680188
1.244,-1.2771814531209995,5899.247890566177
1.248,-1.2939772386203334,5896.944778958645
1.252,-1.3028297907110593,5897.167185404656
1.256,-1.301184096278606,5892.278542548286
1.26,-1.288578232628756,5902.26535983861
1.264,-1.2668764618945665,5901.300774757655
1.268,-1.239673449429652,5894.050599548666
1.272,-1.211180903027918,5908.093740635145
1.276,-1.185125029061286,5893.1627010015045
1.28,-1.1640491629641208,5895.401007717134
1.284,-1.1491136680212442,5897.759911243536
1.288,-1.1402833519033722,5903.61769495299
1.292,-1.1367530416702585,5904.071347087812
1.296,-1.1374371360468694,5899.036503821468
1.3,-1.1412842574602517,5904.530236439973
1.304,-1.147241190259291,5900.657346563815
1.308,-1.153985244366145,5895.09884089517
1.312,-1.159841049161926,5898.476379085217
1.316,-1.163238955053563,5896.543762542963
1.32,-1.1636279959988212,5910.443447727257
1.324,-1.162302284557825,5900.134050445321
1.328,-1.1625174019589397,5900.486945185156
1.332,-1.1686125641104272,5892.749526670592
1.336,-1.1843796057926599,5900.30257120261
1.34,-1.2113376816027197,5898.531969053368
1.344,-1.2476819265025054,5890.128169006635
1.348,-1.288417705735549,5897.948096221802
1.352,-1.3266821466714411,5901.846773763265
1.356,-1.3557436257410949,5895.152781166098
1.36,-1.3709096348490206,5892.02059102395
1.364,-1.3706656675809645,5900.651944703866
1.368,-1.3567323100869997,5900.134289078036
1.372,-1.3331772985342984,5897.071101784132
1.376,-1.3050522426081546,5899.23232344114
1.38,-1.2771064662164686,5901.2229682340685
1.384,-1.2529610181286415,5893.619943045655
1.388,-1.2348231978133803,5904.6541540287535
1.392,-1.2235629041217022,5901.427316554582
1.396,-1.218906196948808,5898.56310901517
1.4,-1.2196250305120104,5897.326644786644
1.404,-1.223758441931987,5904.030211133168
1.408,-1.2289605943068034,5901.55885826634
1.412,-1.2330147774093083,5894.104791005721
1.416,-1.2344118487121747,5896.671525192332
1.42,-1.232752794363383,5898.136833027478
1.424,-1.2287281565009471,5901.446766163012
1.428,-1.223616105333148,5902.580975721746
1.432,-1.2185315986517251,5903.415504032791
1.436,-1.2138416204851283,5903.340937503292
1.44,-1.2090882174374813,5899.459838630281
1.444,-1.203470319052378,5903.699584976048
1.448,-1.1965983293118554,5902.407300999634
1.452,-1.18906421372943,5899.047835097013
1.456,-1.182500910410828,5905.820454693322
1.46,-1.179126735088652,5905.374030690293
1.464,-1.1809983349123339,5897.720920320069
1.468,-1.1892231479062008,5900.486077944105
1.472,-1.2033614116125904,5900.779437248755
1.476,-1.221275370269515,5895.387423895383
1.48,-1.2396294106914165,5900.578837024711
1.484,-1.2549719032228204,5897.032554405289
1.488,-1.2649626649816799,5901.034315794335
1.492,-1.2691670029979365,5897.469130849271
1.496,-1.2690671713919222,5884.882019302713
1.5,-1.2673469863342584,5891.959885056417
1.504,-1.2667903456917735,5899.424185233928
1.508,-1.2692031449869672,5900.067894162669
1.512,-1.2747002247861814,5900.572940677381
1.516,-1.2815724054179765,5889.506883131555
1.52,-1.286774044392075,5907.589992813796
1.524,-1.2868657533251824,5912.7666854808085
1.528,-1.2791074680740657,5902.097889698118
1.532,-1.2624101059767818,5911.815412297815
1.536,-1.237944423939893,5902.521018891857
1.54,-1.2092397097644887,5901.711615495813
1.544,-1.18162675657182,5898.346155272882
1.548,-1.1610411577061754,5896.446751254668
1.552,-1.1524777372175925,5899.907834354677
1.556,-1.1585807858113903,5895.095175331769
1.56,-1.1788628899797007,5902.259713766196
1.564,-1.2098722369202133,5905.9402201255225
1.568,-1.246279009372325,5890.928879845242
1.572,-1.2824438756966188,5893.7028221154005
1.576,-1.3138386581040153,5907.319142687238
1.58,-1.3378510714035672,5887.775606456866
1.584,-1.3538568310559553,5903.012161820577
1.588,-1.3627334290668067,5901.225316145815
1.592,-1.3661270731750221,5891.226700446732
1.596,-1.3657944777551583,5903.087865589178
1.6,-1.3632357291562076,5895.668923264592
1.604,-1.3596255701852058,5905.526120285431
1.608,-1.3558436410506738,5894.448817720318
1.612,-1.3523622043231085,5905.789003311168
1.616,-1.3489415684856145,5905.765478120065
1.62,-1.3443743027290032,5905.555049914628
1.624,-1.3366508458932862,5890.433429924188
1.628,-1.3237523296388858,5901.429062044917
1.632,-1.30491471810482,5908.271847755397
1.636,-1.2818862883195736,5896.132401868589
1.64,-1.259620738301511,5895.41952775895
1.644,-1.2460312430593812,5898.864052383147
1.648,-1.2506836984841891,5902.541059258802
1.652,-1.2824661402551785,5890.834793363813
1.656,-1.3464013457459412,5899.42717915042
1.66,-1.4400087475662002,5898.662703130417
1.664,-1.5499767783369685,5893.948924277212
1.668,-1.6502659658975691,5897.052891731584
1.672,-1.7029248292477719,5899.610732109755
1.676,-1.662604571112945,5901.3125221337805
1.68,-1.4848859471241147,5893.839396408133
1.684,-1.1372509894941283,5891.221890946901
1.688,-0.6101944628719485,5903.373923464406
1.692,0.07498608419413144,5898.954615926275
1.696,0.8651854985763406,5901.3058243690375
1.7,1.6831989980048028,5893.018398644215
1.704,2.4429972110848497,5904.286081982106
1.708,3.068107975464199,5926.768639645612
1.712,3.507185644429838,5928.212655387112
1.716,3.742247493938236,5953.791171657519
1.72,3.788207603959069,5959.017820825497
1.724,3.6852983096302534,5972.868780609943
1.728,3.487601437309527,5989.456699514424
1.732,3.251112851045452,5992.9091482479935
1.736,3.023954241587459,6004.5065800260045
1.74,2.840136983223044,6022.259293854957
1.744,2.7172079363412722,6033.2140942793085
1.748,2.6573498170886998,6049.951128572716
1.752,2.6509695100778674,6050.309451842692
1.756,2.6814763464812517,6066.565282864902
1.76,2.7299911655258873,6076.516167608449
1.764,2.779130222772051,6076.309426377249
1.768,2.8154951429956316,6098.616886933062
1.772,2.83084836110149,6101.894061021386
1.776,2.822171882933104,6106.056990422359
1.78,2.7909444689187843,6122.92804487062
1.784,2.7419965479500914,6131.115456262493
1.788,2.682207427650194,6131.262324143227
1.792,2.6191778623737925,6134.452559287704
1.796,2.5599312481121865,6150.0760760776
1.8,2.5097008343277594,6157.138617602161
1.804,2.4709434850567282,6171.349130516225
1.808,2.442835456320733,6176.351100167557
1.812,2.4215265899096017,6181.898799383177
1.816,2.4012300093553556,6194.347493218939
1.82,2.3758627214964867,6198.469714836899
