时间(s),电压(V),幅值(高频80K)
0.0,-1.0681534669201973,5896.056621570864
0.004,-1.1190885642070658,5905.22446303171
0.008,-1.1653520747276285,5895.310690549984
0.012,-1.2030469074727241,5898.363862319545
0.016,-1.229751020823041,5904.586626057618
0.02,-1.2446757138496847,5899.2162558019445
0.024,-1.2484550751978751,5893.813626260052
0.028,-1.242773181270595,5899.837949532658
0.032,-1.2300381614490226,5907.059930722505
0.036,-1.2131697615862633,5897.132399966075
0.04,-1.1953766452805135,5898.969354818914
0.044,-1.1797433486271611,5890.386816835122
0.048,-1.16864040819593,5900.953303850656
0.052,-1.1632540865860677,5899.20460127542
0.056,-1.163560572187737,5894.363793576737
0.06,-1.1687553853180181,5896.802622476966
0.064,-1.177819701858614,5889.65212300091
0.068,-1.1898845053004174,5905.179748098744
0.072,-1.204282146061923,5904.0702858003015
0.076,-1.2203761783091802,5902.76765924024
0.08,-1.2373027763830262,5896.781192940663
0.084,-1.2537388040071498,5908.73751504935
0.088,-1.2678491660042437,5903.332934723455
0.092,-1.2775933007219633,5899.896846434765
0.096,-1.2814223512406853,5894.904362077455
0.1,-1.279087129179372,5900.163711287675
0.104,-1.2720685489589152,5898.297752283635
0.108,-1.2632792791078606,5903.695914677649
0.112,-1.2560984906000294,5898.64803895698
0.116,-1.2531721713955655,5908.315203780811
0.12,-1.255491663116369,5900.9998669349
0.124,-1.2620755799550047,5890.617306409142
0.128,-1.2703102232948145,5898.404246637592
0.132,-1.2767797669916012,5907.655839182655
0.136,-1.278274951876793,5905.301313832859
0.14,-1.2726470192956432,5904.908920375702
0.144,-1.2592996711823536,5905.028732715768
0.148,-1.2393068543507668,5894.077305776334
0.152,-1.2152613372073655,5902.086527309934
0.156,-1.1909277840135821,5906.413503647626
0.16,-1.1706694430471312,5901.5546499423
0.164,-1.1585965336335449,5903.338885380904
0.168,-1.1575392079969646,5897.477701747495
0.172,-1.1681847719585647,5901.8223107609065
0.176,-1.188802933010369,5895.897789797333
0.18,-1.2157726845381442,5904.290305022087
0.184,-1.2447464784443667,5896.391544066751
0.188,-1.2720034075851467,5900.749536703206
0.192,-1.295485786351725,5896.204058621738
0.196,-1.315134116759237,5901.885711368004
0.2,-1.332361154482302,5904.048182442844
0.204,-1.3488348010909417,5901.0244811719695
0.208,-1.3651195389378394,5901.9948496563775
0.212,-1.3799082138096617,5890.57250088666
0.216,-1.3902976666558111,5894.962759687543
0.22,-1.3929457895949233,5900.997075600172
0.224,-1.3854883872232409,5900.3054062483125
0.228,-1.3676095381606568,5892.170424553359
0.232,-1.3414691019933813,5899.8999458783255
0.236,-1.3114508111536283,5891.636514529192
0.24,-1.2833099915360724,5895.546963792243
0.244,-1.2628928998248874,5897.120445343625
0.248,-1.254729863051168,5899.092554886482
0.252,-1.2608758820870511,5905.20714323277
0.256,-1.2802957692347452,5903.627711974732
0.26,-1.3089268111114,5908.730814662375
0.264,-1.3404235080873494,5899.944507551133
0.268,-1.3675047406226664,5900.640276749148
0.272,-1.3836776053989301,5900.001323351734
0.276,-1.3848933119876918,5899.005140663047
0.28,-1.370596433846479,5902.143233672396
0.284,-1.3438239708907018,5905.732394251569
0.288,-1.3103688267892155,5898.793710793557
0.292,-1.2772959451243877,5899.278721426119
0.296,-1.2512146113320477,5906.740626581994
0.3,-1.2367292351692405,5903.75696327958
0.304,-1.2354404088390074,5896.900677846283
0.308,-1.24573955986214,5901.126947726052
0.312,-1.2634523650380693,5905.810797259476
0.316,-1.2831625731994725,5901.888598691775
0.32,-1.2998038772836884,5893.176702371304
0.324,-1.309943860585649,5894.801645946725
0.328,-1.3122943962704126,5902.955623505439
0.332,-1.3073946825135914,5895.745513471337
0.336,-1.2968405007919408,5900.3437666221735
0.34,-1.282563393280833,5893.41574332033
0.344,-1.2664726711786787,5895.555471757495
0.348,-1.250462385142573,5898.139394112907
0.352,-1.2365535110748822,5895.334135338085
0.356,-1.2269029186629825,5892.665223893064
0.36,-1.2235708606572304,5897.872136804172
0.364,-1.2281507824664446,5891.390343453468
0.368,-1.2414385282617098,5898.242091380369
0.372,-1.263224724383681,5901.060732041097
0.376,-1.2921764373038915,5905.872324462416
0.38,-1.325770360190263,5892.653012283408
0.384,-1.360352308209468,5896.721502141628
0.388,-1.3914826300268286,5894.328739866583
0.392,-1.4146392418140699,5896.839678996247
0.396,-1.4261393086463796,5903.974061426741
0.4,-1.4240026140400028,5896.820828576779
0.404,-1.4084956314250876,5904.853349910891
0.408,-1.3821706158587799,5902.121529954799
0.412,-1.349293580567523,5904.89936148407
0.416,-1.3147239021026984,5900.14853278405
0.42,-1.282583340393847,5898.715749869103
0.424,-1.2552332335395997,5898.39366010383
0.428,-1.2329747994629279,5899.647299737497
0.432,-1.2145610924746906,5903.129075402136
0.436,-1.1982552234088988,5899.864082730087
0.44,-1.1829368637238984,5907.615290281884
0.444,-1.168772567890703,5899.49878468501
0.448,-1.1572533163905734,5893.915865777596
0.452,-1.1507383198594643,5901.324272431124
0.456,-1.151746845757166,5907.838461584726
0.46,-1.1621456424455907,5911.139335970788
0.464,-1.1823478065988298,5892.248106564904
0.468,-1.210749047900178,5898.999691309628
0.472,-1.2437037112969151,5897.170854662426
0.476,-1.2762178774863626,5897.284241558318
0.48,-1.3032333575539357,5903.3934455452
0.484,-1.3210698442884479,5894.621129865745
0.488,-1.328470706790829,5896.27650032828
0.492,-1.3268397291143168,5894.169480923
0.496,-1.3195888786335515,5907.359829585287
0.5,-1.310870519641021,5900.551748095861
0.504,-1.3041784817509563,5907.671431231941
0.508,-1.3012963914283147,5898.959315249391
0.512,-1.3018920266683276,5903.597677359381
0.516,-1.3038289625071886,5898.188230968157
0.52,-1.3040817919028258,5900.233718061198
0.524,-1.2999778932239416,5906.924359536767
0.528,-1.290330412673102,5900.840850228911
0.532,-1.2759940951057114,5908.009554357611
0.536,-1.2595939837439194,5908.235019430698
0.54,-1.2445576852131095,5889.199205289707
0.544,-1.2338829517957135,5906.119284370699
0.548,-1.229138925732055,5897.845770313421
0.552,-1.2300413336818687,5899.101357927638
0.556,-1.2346695343890568,5892.4683813081
0.56,-1.2401580262552407,5901.479639286604
0.5640000000000001,-1.2435977272638503,5897.079961181578
0.5680000000000001,-1.2428950929195017,5902.539798783881
0.5720000000000001,-1.2373773654222717,5907.55608617794
0.5760000000000001,-1.2279841343270377,5897.46509062657
0.58,-1.2169830181454404,5894.935658037652
0.584,-1.2073018737524286,5893.754973894708
0.588,-1.201734217889194,5894.509852704234
0.592,-1.2023188823336912,5897.169044932032
0.596,-1.2100267740929782,5890.002016054607
0.6,-1.2246532017638638,5899.222992562822
0.604,-1.2447725311489843,5896.031796829068
0.608,-1.2677809523418488,5904.831460889207
0.612,-1.2901987950324014,5903.231169753637
0.616,-1.3083452315509005,5901.206924997574
0.62,-1.3192677873347025,5896.922362442383
0.624,-1.3215884719992863,5908.154572592448
0.628,-1.3159002355726046,5903.743445862698
0.632,-1.3045401942366852,5891.352949843552
0.636,-1.2908400408587026,5904.212220059702
0.64,-1.278154025193703,5901.142027156644
0.644,-1.2690183999505058,5897.310064890239
0.648,-1.2646993910833702,5901.430446233884
0.652,-1.2652036055051137,5898.206588019026
0.656,-1.2696538845828051,5893.8111312218425
0.66,-1.2768216656592828,5901.076690127333
0.664,-1.285566514436754,5902.098993450827
0.668,-1.2950001203073167,5893.575056848476
0.672,-1.304357725964075,5901.354999444449
0.676,-1.312731275966647,5900.196586048194
0.68,-1.3189082011607827,5904.377344129008
0.684,-1.321535770820255,5902.506463661174
0.6880000000000001,-1.3196811313442138,5898.614109613316
0.6920000000000001,-1.3136043955088663,5904.283434915838
0.6960000000000001,-1.3053166891927206,5911.935391110578
0.7000000000000001,-1.2984405868245585,5898.097962354167
0.704,-1.2971654519180877,5899.550572101541
0.708,-1.3046068577128165,5898.585356878898
0.712,-1.3212928585708128,5902.248037645612
0.716,-1.344499830123805,5894.615081995397
0.72,-1.3687789756236823,5896.9124620118055
0.724,-1.387530739615297,5896.012387333681
0.728,-1.3951108526889902,5897.483108718606
0.732,-1.3887569411581637,5900.737566080016
0.736,-1.369650563319071,5896.811310954323
0.74,-1.342710389461038,5901.153456437885
0.744,-1.3151782767851452,5903.701530545002
0.748,-1.294504901089753,5899.688937254471
0.752,-1.2862559005014218,5898.547834284485
0.756,-1.2926911360528972,5894.36611491967
0.76,-1.312403502148973,5898.2025576601
0.764,-1.3410413119465459,5902.553010144875
0.768,-1.3727731564378425,5903.279240032092
0.772,-1.4019097409732024,5895.998745412161
0.776,-1.4240989219579785,5892.869119535581
0.78,-1.436778071682117,5892.743610339111
0.784,-1.4389573236281483,5903.131806081603
0.788,-1.4307026216157064,5897.327387474002
0.792,-1.4127449202877589,5906.911824092226
0.796,-1.386442763156175,5900.607091831673
0.8,-1.3539864469948215,5898.575583117533
0.804,-1.3184889747656021,5902.405288601975
0.808,-1.2836638602425148,5904.275237796473
0.812,-1.253103219867017,5898.776272530805
0.8160000000000001,-1.2294738105639313,5901.116199283412
0.8200000000000001,-1.2139993607146384,5904.965707872529
0.8240000000000001,-1.2063938449034977,5902.384023711726
0.8280000000000001,-1.2051686978748413,5901.711047362973
0.8320000000000001,-1.2081522521366213,5898.799891861183
0.836,-1.213117438603336,5890.155519689354
0.84,-1.2184451565706562,5901.996122215122
0.844,-1.2236496053715817,5901.490584724055
0.848,-1.2294777241671244,5903.754434679748
0.852,-1.2374016584509806,5900.45518518121
0.856,-1.248676660385229,5895.007259537017
0.86,-1.2634508371657533,5894.175204346523
0.864,-1.2803895586390426,5900.771709205756
0.868,-1.2969370774943216,5893.425913754589
0.872,-1.3099874090238333,5907.022353594665
0.876,-1.3166380114418794,5892.021743332184
0.88,-1.314831220922587,5904.202728675071
0.884,-1.3038301953964073,5901.636574297417
0.888,-1.284490546339769,5895.9934736261
0.892,-1.259250809929881,5907.131574001075
0.896,-1.2318033418378949,5901.840911628837
0.9,-1.206511387106122,5902.585899636535
0.904,-1.1876908046870789,5895.839275008226
0.908,-1.178836352149809,5898.027012064574
0.912,-1.1818585784206352,5892.534350638729
0.916,-1.1965017707568972,5906.248439630872
0.92,-1.2202120901981346,5892.826191543338
0.924,-1.2486302642154805,5903.551670995746
0.928,-1.276603833362087,5904.715381962423
0.932,-1.2993240278779667,5891.804580759848
0.936,-1.3131045968864927,5902.307459476074
0.94,-1.3155790012510704,5899.492754456258
0.944,-1.305557457549092,5894.711804226091
0.948,-1.2830367979170076,5897.831412257939
0.952,-1.2496290549505926,5896.637296125777
0.956,-1.2091685367113088,5898.905516188997
0.96,-1.1679113968732995,5899.639955476171
0.964,-1.1338186323291242,5895.40381033697
0.968,-1.1148603791620997,5901.234895577
0.972,-1.1168403515640857,5900.784845221667
0.976,-1.1415786855238708,5884.840736628832
0.98,-1.1861690864296155,5895.710159227629
0.984,-1.243524681197129,5901.5050593072665
0.988,-1.3039226882763955,5903.93428491575
0.992,-1.3570474830041663,5902.399853482679
0.996,-1.3940656712076331,5899.908347590367
1.0,-1.4093483844564962,5900.048028379206
1.004,-1.4015391573656222,5898.740892467309
1.008,-1.3737901898602063,5907.566226283178
1.012,-1.3331143307446955,5903.344992054267
1.016,-1.2889000425021677,5900.608863118446
1.02,-1.2508018937434169,5897.579633101899
1.024,-1.2264906241964646,5897.38213530729
1.028,-1.2199484120880544,5897.248326585833
1.032,-1.2308667668427,5906.085131449997
1.036,-1.255229667625046,5905.494121561744
1.04,-1.2866719061486698,5901.934124094237
1.044,-1.3180471404524983,5895.36269539664
1.048,-1.342835820026356,5898.625098538697
1.052,-1.356283523877848,5896.491978525527
1.056,-1.3562360945541778,5902.171011595934
1.06,-1.343526540582932,5900.07007212268
1.064,-1.321669469075904,5905.672076079852
1.068,-1.2957491519339892,5901.4662868551095
1.072,-1.2707661512015498,5914.1161988875565
1.076,-1.2500822326417245,5892.681882867616
1.08,-1.2346471077345464,5895.120016341092
1.084,-1.2233174581687711,5907.679032140838
1.088,-1.2140458271750691,5904.900378633698
1.092,-1.2053651827583454,5893.412179994313
1.096,-1.1975437605507064,5896.154908012313
1.1,-1.1929511900144336,5894.361878655872
1.104,-1.1954616903685908,5910.32470059624
1.108,-1.2090537178926966,5902.185279365393
1.112,-1.2360705302233481,5898.210536765932
1.116,-1.2757915973655263,5904.084542485713
1.12,-1.3239254287298534,5898.830478037754
1.124,-1.3733154113770407,5906.928956621726
1.128,-1.4156708966033897,5902.356405240819
1.132,-1.443748135970999,5901.676615117501
1.136,-1.4532774354953966,5903.414279735697
1.14,-1.4440574298795772,5905.164631128358
1.144,-1.419924317195207,5892.184090680253
1.148,-1.3876433112268516,5894.278271373943
1.152,-1.355064162543268,5896.836867352396
1.156,-1.3290818325838112,5897.376785115387
1.16,-1.3139968810398241,5897.546365440987
1.164,-1.3107141921481131,5897.872651606147
1.168,-1.3169028301984635,5899.422653505388
1.172,-1.327947976850805,5894.878821996481
1.176,-1.3383794615950384,5901.115983385929
1.18,-1.3434186480070216,5900.773519712911
1.184,-1.3402799280948796,5899.18398897415
1.188,-1.328908059704886,5900.96544836081
1.192,-1.311959240447603,5887.632968745153
1.196,-1.2940326526849428,5902.23312855296
1.2,-1.2803775534217527,5897.241619508043
1.204,-1.2754502434826689,5895.121070332579
1.208,-1.2817169988365644,5901.938925137658
1.212,-1.2990137240496284,5894.511547059305
1.216,-1.3246171123312236,5896.399369710988
1.22,-1.3539796052332285,5893.867644381364
1.224,-1.3818897842447482,5890.519100934319
1.228,-1.4037068845973324,5906.883082877303
1.232,-1.4162997309103058,5903.558881423643
1.236,-1.4184021310723123,5902.493098384612
1.24,-1.410318795798318,5905.903727044086
1.244,-1.3932463976093912,5896.904275509939
1.248,-1.3686888767775096,5900.467482304666
1.252,-1.3383235252624681,5898.579885950019
1.256,-1.3043067898478988,5895.057862447839
1.26,-1.2696967777740946,5895.331895788909
1.264,-1.238585238436689,5898.813070320682
1.268,-1.2156515346665648,5906.215702158602
1.272,-1.205092837930592,5903.98084814453
1.276,-1.2091890517581598,5900.185752018438
1.28,-1.2270562307194723,5893.9307894688745
1.284,-1.254260460392383,5895.086065918134
1.288,-1.2837069512572703,5896.248347425369
1.292,-1.3076192929318933,5897.288456768402
1.296,-1.3198406184307507,5901.448915250541
1.3,-1.3175075061190833,5908.487840773452
1.304,-1.301463109804958,5903.621737661373
1.308,-1.2754042834242942,5896.144034584859
1.312,-1.2443603082445134,5893.375102348882
1.316,-1.2133072396928632,5904.070248333163
1.32,-1.1864102495924165,5897.8530998341885
1.324,-1.1668480634119003,5901.674626221543
1.328,-1.1568354172640563,5900.123916943987
1.332,-1.1575076396692214,5897.97833122714
1.336,-1.1686351198902032,5900.470459003086
1.34,-1.1884060810613426,5893.4051307456375
1.344,-1.2135355155963854,5892.211293600675
1.348,-1.239756919619479,5896.628259418329
1.352,-1.2625661434965207,5896.857573129921
1.356,-1.278066832070301,5908.00764437331
1.36,-1.2838114509678213,5897.243048943381
1.364,-1.2794833088892585,5897.378243634768
1.368,-1.2671688943469082,5897.248030610595
1.372,-1.250986460252925,5900.793327445373
1.376,-1.236015796583709,5897.118218155148
1.38,-1.2267454242072935,5891.426343888716
1.384,-1.2255202457239418,5899.392526379084
1.388,-1.2316104709194455,5903.247568099222
1.392,-1.2413908732272314,5896.911422459324
1.396,-1.2496861226632474,5902.105950620269
1.4,-1.2517824576577306,5897.927393684375
1.404,-1.2452524163250525,5903.733977688083
1.408,-1.2308329672160194,5904.065053854169
1.412,-1.2120851910920156,5901.504780603867
1.416,-1.1941159185199823,5898.091426658826
1.42,-1.1819384571819012,5900.665106847017
1.424,-1.1790216532042554,5900.832628524319
1.428,-1.1863741483039343,5906.7348451058215
1.432,-1.2023078303231394,5899.816165088551
1.436,-1.2228796507360051,5905.068594750394
1.44,-1.2428890300954907,5892.926408196061
1.444,-1.2571841010482,5900.813267654331
1.448,-1.261943531817979,5896.911056284694
1.452,-1.2556227070707626,5900.349458814125
1.456,-1.2393936115962192,5895.498213237658
1.46,-1.217065500148119,5903.011926094993
1.464,-1.1945299135237741,5896.819531114183
1.468,-1.1787390811164624,5902.140460417307
1.472,-1.1762413853558582,5897.297974927536
1.476,-1.1914602758798836,5896.838862329376
1.48,-1.2251366976857656,5908.759167761274
1.484,-1.2734805928913302,5898.707895394778
1.488,-1.328475447779239,5899.982839039233
1.492,-1.3794584926483169,5898.996119028233
1.496,-1.4156615636551857,5900.526783022193
1.5,-1.429004301308846,5904.062289887475
1.504,-1.416288491741502,5905.648358239476
1.508,-1.3801977860133732,5902.18117215131
1.512,-1.3290226879172442,5902.3652026020045
1.516,-1.2754078079403686,5896.97653547642
1.52,-1.2344176764238552,5903.625603353593
1.524,-1.2210096796970424,5905.668054175711
1.528,-1.2469166747284854,5903.145085804522
1.532,-1.317123072248318,5898.9071716174985
1.536,-1.4264581133961802,5897.1442142127735
1.54,-1.5571077962077045,5897.092530307658
1.544,-1.6779332441925903,5888.027036033514
1.548,-1.7464144566435298,5900.796548792693
1.552,-1.7138369750892557,5900.533463482792
1.556,-1.5338283139101052,5909.35469458146
1.56,-1.173315331683581,5894.617245136111
1.564,-0.6235539686705439,5895.454280027087
1.568,0.09228451621954308,5904.957255875449
1.572,0.9185656827772505,5895.67111315019
1.576,1.7756460687328914,5879.396160998577
1.58,2.5760200652713143,5903.165734592866
1.584,3.2432997446437457,5918.971576396925
1.588,3.727637347978949,5925.231854258409
1.592,4.012905654653134,5937.354693221828
1.596,4.114656721991412,5957.778490848666
1.6,4.07121828755186,5960.353696601806
1.604,3.931849500309278,5970.412078441887
1.608,3.7456482441084042,5987.575545095957
1.612,3.5535753895040467,5997.05534742632
1.616,3.384363588912754,6014.843237211556
1.62,3.253843551362727,6021.433559542737
1.624,3.16660825068523,6025.863522381396
1.628,3.118857940395144,6045.531050865589
1.632,3.101502886777599,6048.145503864441
1.636,3.1029620561540217,6061.096349713239
1.64,3.1114387848317526,6064.134817599961
1.644,3.116656613570218,6082.652145231836
1.648,3.111073816096808,6077.763528952073
1.652,3.090542239803159,6099.479955867607
1.656,3.0543391450533135,6103.514728280802
1.66,3.004557379759911,6122.075471480363
1.664,2.945004861241428,6118.812351902759
1.668,2.879955519892203,6138.926684602587
1.672,2.8131600894427735,6146.342575966694
1.676,2.747374496904679,6146.16263364911
1.68,2.684380687739106,6151.0950776787295
1.684,2.6252636089224497,6163.714414762366
1.688,2.570685568420756,6170.135453023886
1.692,2.521007442728656,6183.624040772668
1.696,2.4762403580796377,6175.513923378229
1.7,2.43591987406003,6191.215630835692
1.704,2.3990344164282154,6204.481809395039
1.708,2.364083835141077,6206.122333154589
1.712,2.329255650845587,6211.26923080163
1.716,2.292665638346415,6221.726294771876
1.72,2.2526055252910666,6230.715387865841
1.724,2.2077550374632655,6231.768157434519
1.728,2.1573759989976597,6232.283112612993
1.732,2.101558083639696,6250.689833821041
1.736,2.041506412414668,6250.3847571717215
1.74,1.979696825044213,6254.079058708657
1.744,1.9196908620036384,6263.1489344404135
1.748,1.8655646621998374,6274.321691742332
1.752,1.8210844480832427,6269.571771771915
1.756,1.7888197521961797,6279.950544745011
1.76,1.7693928960810434,6282.943722218194
1.764,1.7610952643004294,6289.245774816759
1.768,1.7600735781745558,6287.993971220922
1.772,1.7611048674887966,6297.093133153436
1.776,1.7587257042858362,6294.275172790421
1.78,1.7483532946781992,6314.484145064014
1.784,1.7270963363923062,6307.252072476864
1.788,1.694109030783209,6318.784354986503
1.792,1.6505048253521604,6325.921808706666
1.796,1.5989822943773049,6329.599249858058
1.8,1.5433751747483895,6333.844420277738
1.804,1.4882631157221244,6338.221285146739
1.808,1.438582902366585,6342.172582798636
1.812,1.3990234170053932,6346.670659384724
1.816,1.3730917092516226,6337.243173073271
1.82,1.3620893605443118,6348.881401668285
1.824,1.3645008082207604,6346.6176221204405
