时间(s),电压(V),幅值(高频80K)
0.0,-1.5937235004738142,5902.575954054161
0.004,-1.5215627431925047,5895.961978875044
0.008,-1.4556135927772587,5897.318923898514
0.012,-1.4008874213575975,5904.345865435044
0.016,-1.3606401287232672,5899.866794477151
0.02,-1.3359117222488406,5894.618616457262
0.024,-1.3253310193106742,5896.415136695743
0.028,-1.3252850243524699,5891.315904382027
0.032,-1.3306779220995373,5899.052418381295
0.036,-1.3362729518694056,5899.571984977914
0.04,-1.3381396761739104,5896.3217838862965
0.044,-1.3345211267066495,5896.029038512475
0.048,-1.3257832943498777,5896.841611109018
0.052,-1.3137055974491034,5899.56360253899
0.056,-1.3006526905296765,5897.806299505671
0.06,-1.2889722394098315,5901.890093537196
0.064,-1.280641821320989,5903.442370429414
0.068,-1.2770854650182013,5896.046275354694
0.072,-1.2791400421537784,5906.937506730415
0.076,-1.2871442092589518,5905.205625748467
0.08,-1.3010366815168604,5900.584484860178
0.084,-1.3203529608887126,5888.243650268447
0.088,-1.344144573978999,5899.388007048029
0.092,-1.3709715503611293,5891.83881499862
0.096,-1.3990902021270597,5898.467447961417
0.1,-1.4267680433482068,5893.25758433087
0.104,-1.4524765369560155,5899.520557859743
0.108,-1.474762239605723,5898.713758502848
0.112,-1.491892000963156,5890.9942443531245
0.116,-1.5016460380650605,5893.369249641422
0.12,-1.5016219318304111,5904.919551905571
0.124,-1.4901003485420823,5900.774664965437
0.128,-1.467140466023569,5908.364052482348
0.132,-1.4353710838570435,5901.893164133236
0.136,-1.4000099529787826,5898.627123818492
0.14,-1.3679194657427562,5896.267422801217
0.144,-1.3458992661012146,5899.073178977315
0.148,-1.3387879433216305,5892.2023081257885
0.152,-1.3480625295369875,5897.658920823495
0.156,-1.3713540120347203,5894.5580710482855
0.16,-1.402869580646418,5900.994250190918
0.164,-1.4345165507768092,5900.977406863083
0.168,-1.4575955019768418,5898.712288748933
0.172,-1.4649206917589968,5899.014503821385
0.176,-1.452935301196991,5907.524553014323
0.18,-1.4230752912339268,5900.126018783286
0.184,-1.3816948651113437,5907.060678819575
0.188,-1.3384013144995104,5903.080994370435
0.192,-1.3033681456098831,5891.934174040941
0.196,-1.2846377575452355,5898.126132939667
0.2,-1.2863230837058721,5896.287004368228
0.204,-1.3081132113593066,5903.122731918635
0.208,-1.3459312244390167,5891.398320366246
0.212,-1.3932466091408156,5891.371164082886
0.216,-1.4425106512990193,5897.674116809847
0.22,-1.4863975541824037,5909.370083019832
0.224,-1.5187834276121104,5904.444566285192
0.228,-1.5355012320076014,5902.79541455442
0.232,-1.5348811724024014,5910.339620249699
0.236,-1.5180192596120365,5897.671629702622
0.24,-1.4886778849924136,5896.450085979232
0.244,-1.4527499477721635,5897.616375018392
0.248,-1.4173018320221742,5900.196800445967
0.252,-1.3892926942319623,5898.166381182339
0.256,-1.3741369824739464,5894.762426193948
0.26,-1.374387582536337,5904.253077347619
0.264,-1.3889469332077946,5909.012540894974
0.268,-1.413192040841896,5901.8924390845
0.272,-1.4401084737858403,5895.737451418628
0.276,-1.462117502826355,5904.125265564237
0.28,-1.473027906709093,5899.856889545679
0.284,-1.4695686620761028,5902.2273371134015
0.288,-1.4521578469135734,5898.706654074359
0.292,-1.424759307415469,5907.590596456694
0.296,-1.3938051741190902,5901.08800642386
0.3,-1.3663185005182914,5897.120294831106
0.304,-1.3476579194200813,5903.53089716622
0.308,-1.3396353471656284,5899.23402412657
0.312,-1.3398478970922183,5911.714075628919
0.316,-1.342664298488077,5898.4417557698325
0.32,-1.3415165271069625,5900.64149143019
0.324,-1.3314910225685623,5891.91415245707
0.328,-1.311166093292064,5897.297017478208
0.332,-1.2831397578454617,5903.45006697723
0.336,-1.253280292904511,5894.662318812604
0.34,-1.2290862014874622,5903.464434366017
0.344,-1.2176702026494066,5903.396406483054
0.348,-1.2239044848884473,5902.525580520598
0.352,-1.2491909888207986,5903.397229830931
0.356,-1.291095639308913,5900.432922903289
0.36,-1.3438006493796495,5909.333379358097
0.364,-1.3991965061545937,5903.420738169153
0.368,-1.448461601568529,5905.975651813263
0.372,-1.4839193477704802,5898.430297874383
0.376,-1.500756024804559,5906.211810671007
0.38,-1.4980836324951436,5898.807461190258
0.384,-1.4790005568638427,5902.814239830635
0.388,-1.4496213144249923,5900.046997663584
0.392,-1.4173823035905522,5893.495685816414
0.396,-1.389190621508336,5901.127553617749
0.4,-1.369993325396583,5891.679769303385
0.404,-1.362051478745584,5893.393677555935
0.408,-1.3648641577209721,5900.783884854768
0.412,-1.3755724131828624,5898.091927270944
0.416,-1.3897444166984454,5898.822091370455
0.42,-1.4024884185725413,5902.831231550992
0.424,-1.40974682272854,5905.636210209729
0.428,-1.409453894001056,5900.240943466392
0.432,-1.4021552226061764,5892.140111342638
0.436,-1.3908276160966402,5892.06532419603
0.44,-1.3799720646448388,5895.537505108525
0.444,-1.3743473880959096,5901.983700761833
0.448,-1.3777484658755557,5905.231317946361
0.452,-1.3920612211118095,5908.339808065482
0.456,-1.4166837858252377,5896.905778430832
0.46,-1.4483892451974063,5901.22304304808
0.464,-1.4817025126510743,5896.713847144336
0.468,-1.5097727266996384,5903.845397629139
0.472,-1.5256124005645897,5903.079295889526
0.476,-1.5235427559017192,5900.303734019281
0.48,-1.5006827859966556,5898.865840280002
0.484,-1.458214422382263,5900.373422903897
0.488,-1.4019532036286286,5896.815276442709
0.492,-1.341707030621575,5892.719526694829
0.496,-1.2892653003061414,5902.490449054766
0.5,-1.2554920535925282,5906.882655627832
0.504,-1.247476296790993,5895.996877183804
0.508,-1.266746337094996,5898.247802951464
0.512,-1.3091683990040162,5909.877261793197
0.516,-1.3664682834648305,5901.154089009492
0.52,-1.428666800112204,5897.966253837579
0.524,-1.4864682825238713,5895.00355929206
0.528,-1.532869321995017,5905.0391143137895
0.532,-1.5637444753466423,5892.498693040878
0.536,-1.577625985071762,5908.082756359465
0.54,-1.575111836429331,5902.4839507061615
0.544,-1.55827024799634,5890.966977664972
0.548,-1.530213703369538,5901.396641733423
0.552,-1.4948530571571246,5899.926364903279
0.556,-1.4567172186234676,5899.118498615323
0.56,-1.420624014677907,5901.060897969253
0.5640000000000001,-1.3910235371308641,5890.275930192477
0.5680000000000001,-1.3710678137879764,5888.178314333487
0.5720000000000001,-1.3617293459505668,5904.365143691764
0.5760000000000001,-1.361373711497736,5908.838229845884
0.58,-1.3660471282840092,5903.859792753222
0.584,-1.3704789115898353,5903.814086620882
0.588,-1.3695156502808419,5908.3453217557535
0.592,-1.3594996793916487,5907.237804282516
0.596,-1.3391397067573128,5911.109996732257
0.6,-1.3097048127877102,5899.113724263791
0.604,-1.274654982115712,5890.72348216724
0.608,-1.238916467230112,5898.196523230337
0.612,-1.207986547409861,5892.199680923543
0.616,-1.1869964053027873,5899.866648776576
0.62,-1.1797892350663106,5893.217252091182
0.624,-1.1880745279352543,5903.950440676462
0.628,-1.2108666218914854,5898.43408893598
0.632,-1.2445433426743933,5901.243350401938
0.636,-1.2837063096304995,5898.978396835468
0.64,-1.3225899057365464,5904.801777792799
0.644,-1.356421973179316,5897.61419359614
0.648,-1.3822282850898204,5910.786787560287
0.652,-1.3989778019785524,5901.559004237045
0.656,-1.40728170012648,5901.028512846389
0.66,-1.4088901830332101,5890.341491287611
0.664,-1.4061013850551078,5897.545692745656
0.668,-1.4011069020527154,5892.32321702041
0.672,-1.3953389001248182,5901.0718124155865
0.676,-1.388986061102971,5901.479308981612
0.68,-1.38087669746812,5904.589104021047
0.684,-1.3688520076733421,5900.347069952864
0.6880000000000001,-1.3506139907745711,5900.733083777464
0.6920000000000001,-1.3248443223540336,5897.558393584014
0.6960000000000001,-1.292204211087366,5897.527755040113
0.7000000000000001,-1.2557801547177856,5897.621800512156
0.704,-1.2207123198725578,5892.515384936644
0.708,-1.1930538942866247,5894.321386839224
0.712,-1.1782172633420411,5896.217381747757
0.716,-1.1795399606592734,5896.699109267686
0.72,-1.1974726186534939,5898.07429870343
0.724,-1.2296429981989865,5896.903625953589
0.728,-1.271666858292751,5903.544029798257
0.732,-1.3182571230236226,5904.557554813411
0.736,-1.3641507532027812,5896.580643652579
0.74,-1.4046431258969683,5903.200695488873
0.744,-1.4358364305864795,5892.262373274956
0.748,-1.4548161313786137,5892.866437415467
0.752,-1.4598574802549311,5891.861125255932
0.756,-1.450593833639113,5886.792119416157
0.76,-1.428014821634148,5896.052771461678
0.764,-1.3942725050922553,5905.397640320572
0.768,-1.3524338769254673,5903.859575358197
0.772,-1.3063153900327478,5897.986798784939
0.776,-1.2603762623785344,5902.717611087258
0.78,-1.2195482567392273,5902.230299884463
0.784,-1.188908036690715,5900.503514970787
0.788,-1.173135175172725,5907.197342119003
0.792,-1.1757341437546978,5902.718403704431
0.796,-1.1981304283113305,5905.241819752634
0.8,-1.2389239529757097,5898.29062205819
0.804,-1.293616180970038,5904.778956261649
0.808,-1.3549932892663819,5904.778320625096
0.812,-1.414186498844868,5894.54270777417
0.8160000000000001,-1.4622919466236801,5901.79063858511
0.8200000000000001,-1.4922412337082143,5899.399609374442
0.8240000000000001,-1.500406458859373,5899.618021617322
0.8280000000000001,-1.4873973529670075,5904.253851983877
0.8320000000000001,-1.4577625889802515,5911.65543979904
0.836,-1.4186913503200984,5896.0540197239625
0.84,-1.3781128957913964,5899.006479631156
0.844,-1.342751542186641,5898.004356142307
0.848,-1.316724072143487,5896.256000578384
0.852,-1.3011069554844927,5899.56538149588
0.856,-1.294531978196818,5896.501489424329
0.86,-1.294458662428046,5899.447748943638
0.864,-1.2985516189757935,5896.1148969056485
0.868,-1.3056411827612593,5903.113291822714
0.872,-1.3159828299776974,5903.461314731226
0.876,-1.3308172267641638,5904.714107401815
0.88,-1.3514590858154054,5897.956315639212
0.884,-1.3782737138139491,5899.74591057242
0.888,-1.409937910925084,5895.894774965266
0.892,-1.4433010480015527,5900.755429510057
0.896,-1.4739472745795759,5907.8750229819725
0.9,-1.4972854050802369,5901.520204488895
0.904,-1.5097937797707401,5899.69938441822
0.908,-1.5100029621085047,5901.228431950695
0.912,-1.4988958590044776,5903.789360104276
0.916,-1.4796113764821086,5895.637791310387
0.92,-1.4566022146202955,5898.734583287635
0.924,-1.4345732188462372,5893.301089368346
0.928,-1.4174950106543676,5897.992278042242
0.932,-1.40783968931466,5901.263857465684
0.936,-1.4060996770126921,5897.43268920157
0.94,-1.4106661737382273,5904.870909587029
0.944,-1.4181719177171708,5897.212999055178
0.948,-1.4243382786420913,5893.626148967118
0.952,-1.425167257772588,5896.768089581828
0.956,-1.418099499245584,5893.242691201343
0.96,-1.402723234745617,5896.110717827514
0.964,-1.3808216101155237,5902.488869420544
0.968,-1.355840311804466,5896.732211888551
0.972,-1.3320728487061266,5894.609921727536
0.976,-1.3138948070598664,5906.5270938716185
0.98,-1.3051943419150558,5905.730065278367
0.984,-1.308874939881271,5899.909939545539
0.988,-1.3262376201297985,5900.675210511349
0.992,-1.3563038934984717,5896.495150005198
0.996,-1.395454390390152,5902.251836918354
1.0,-1.4377686902639495,5904.206093602565
1.004,-1.476124529482972,5902.821875564428
1.008,-1.5037516448664405,5894.596953737087
1.012,-1.5157966195488732,5909.98011603388
1.016,-1.5105188511080627,5890.109736996486
1.02,-1.4898581942897144,5903.956703933422
1.024,-1.4592267953407392,5897.889015463554
1.028,-1.426492312220028,5891.578416331237
1.032,-1.4002667055492557,5903.516303308035
1.036,-1.3878136343461944,5893.784356556482
1.04,-1.3930940075292726,5905.366799926268
1.044,-1.4155622812588995,5898.607879612835
1.048,-1.450182094935695,5904.272838091185
1.052,-1.4887383160793435,5897.929100769253
1.056,-1.5220523454480082,5899.848493961608
1.06,-1.5423983364204565,5907.068963540783
1.064,-1.545387242951076,5895.560586915651
1.068,-1.5308017566916048,5899.0671901486285
1.072,-1.5022321286432756,5909.229949325812
1.076,-1.4657393522150737,5903.448893764148
1.08,-1.4280240506422521,5899.090358206504
1.084,-1.394672971336751,5905.837344652395
1.088,-1.3690050411533992,5894.368956302249
1.092,-1.3518194485335175,5907.534781571691
1.096,-1.3419838264012889,5909.46309145124
1.1,-1.3374713212941318,5905.037870978225
1.104,-1.3363624322961558,5896.692758997154
1.108,-1.3374715431587219,5902.181792739343
1.112,-1.340469714053802,5894.250535898227
1.116,-1.3455556257665662,5900.480491473987
1.12,-1.352902599846971,5898.882386696029
1.124,-1.3622435147094376,5890.86861826298
1.128,-1.3728924066722936,5901.717119917013
1.132,-1.3841935700626393,5899.597844920291
1.136,-1.3960473367966832,5899.08037735532
1.14,-1.409078492717693,5905.541507280234
1.144,-1.4242601073075807,5904.772772007949
1.148,-1.4421715237047963,5905.370226205748
1.152,-1.4622835685063347,5896.783008062861
1.156,-1.4826228496551206,5899.738672730468
1.16,-1.4999601413974397,5902.86776203878
1.164,-1.510468694665827,5893.871296249495
1.168,-1.5107135283664703,5902.835752631177
1.172,-1.498792006816128,5894.344064242091
1.176,-1.475310464700156,5898.253452884837
1.18,-1.443722204729491,5899.482251561312
1.184,-1.409663892623924,5895.868278679627
1.188,-1.3794241647496157,5892.480785173076
1.192,-1.3582123740527436,5900.674727202674
1.196,-1.3489875270235892,5905.490583053544
1.2,-1.352188854989807,5906.839042576436
1.204,-1.3661636864121793,5900.543385878713
1.208,-1.3878232303788256,5891.522862379999
1.212,-1.4131729400135826,5893.751688027806
1.216,-1.4376717358930655,5892.289551708123
1.22,-1.456612700374553,5900.594389551272
1.224,-1.465757478255716,5904.382005949632
1.228,-1.4623159004064838,5902.904534172452
1.232,-1.4460830605139665,5908.267593740303
1.236,-1.4202147710981254,5908.008707336613
1.24,-1.3910008580734445,5905.912144986178
1.244,-1.36633167856688,5897.642121075148
1.248,-1.3532093608661384,5895.9205251075255
1.252,-1.3552041808438318,5890.414643015936
1.256,-1.3709114078339215,5899.537039898668
1.26,-1.394192255644708,5899.71684042894
1.264,-1.4163663791010346,5911.101729937689
1.268,-1.429746372890395,5910.18499678446
1.272,-1.431257373744547,5903.964907203627
1.276,-1.4246565552914827,5907.985441499
1.28,-1.42022808999943,5891.763716819138
1.284,-1.4316951431155438,5899.366656675252
1.288,-1.4710638229541257,5895.937572086029
1.292,-1.542745753362326,5900.07058136819
1.296,-1.6384761251765256,5906.133841458528
1.3,-1.7344415018540398,5906.07250155549
1.304,-1.7918073831315768,5888.327648010482
1.308,-1.7614431540595163,5897.119681946714
1.312,-1.5929254215326882,5898.136022040148
1.316,-1.2467305041535555,5892.513329526745
1.32,-0.707026986862564,5900.97171731509
1.324,0.00880354955719112,5897.939414998996
1.328,0.8480348322948073,5906.144278546899
1.332,1.7303978709293344,5893.047293610408
1.336,2.5648148267251476,5911.987058633388
1.34,3.2699486606955546,5917.165604473382
1.344,3.7914696264235155,5946.333876643663
1.348,4.110642843400764,5976.0034616590765
1.352,4.242881951426028,5999.408283714226
1.356,4.228572927909466,6009.989363269309
1.36,4.120213239181213,6017.495117294893
1.364,3.96984787117167,6037.092291651736
1.368,3.81962297124276,6058.440604288438
1.372,3.6966739020924844,6071.926775446675
1.376,3.612137250130649,6088.07514855441
1.38,3.5633096983728887,6091.517724588169
1.384,3.537856134945502,6133.063978033835
1.388,3.5190215428791207,6140.39150493743
1.392,3.490724874457716,6156.73163206731
1.396,3.44143897406767,6165.54887519376
1.4,3.3661820175908024,6180.376632889006
1.404,3.266603321511552,6193.246059182397
1.408,3.1496435712974598,6206.741024865767
1.412,3.025418394654227,6228.562202181337
1.416,2.9049111193046238,6219.562877862379
1.42,2.79790522271223,6253.100899660797
1.424,2.7114293003529197,6259.833574666275
1.428,2.648884502973704,6275.526106865938
1.432,2.6099655068224203,6288.805886542286
1.436,2.591355187340887,6294.955299037151
1.44,2.587896334360479,6317.118782415519
1.444,2.5937045106592524,6312.113208933854
1.448,2.602791154723511,6332.820090547899
1.452,2.6092129922674085,6349.373254915478
1.456,2.6071669315876655,6362.88092707655
1.46,2.591476976423492,6364.174308431035
1.464,2.5585840422418324,6372.451251451757
1.468,2.5076771537419154,6389.088151324255
1.472,2.441295851652766,6394.699947008717
1.476,2.3648800037469226,6409.689216824188
1.48,2.28534239931778,6412.640680706033
1.484,2.2093324070201317,6422.140612138489
1.488,2.141939488462343,6435.126356393248
1.492,2.0861552432247064,6439.5159758112895
1.496,2.042931604002004,6460.241833563609
1.5,2.0115209119610142,6449.651289480042
1.504,1.9899257996747446,6471.920116973134
1.508,1.9754216752379905,6475.255537838512
1.512,1.9650716091689633,6483.288784357655
1.516,1.9560823168949832,6494.890729842442
1.52,1.9459507237258893,6507.411424487572
1.524,1.9325391086064545,6506.248059798385
1.528,1.9142464422373784,6507.574516201469
1.532,1.8902743087662446,6527.227576280558
1.536,1.8608264411171875,6534.8627250346
1.54,1.827084963543553,6538.952234031795
1.544,1.7909100850272093,6544.696420844393
1.548,1.7543078410997033,6551.6128224062695
1.552,1.7188126448765544,6563.416725419446
1.556,1.6850368178085486,6568.904410407773
1.56,1.6526228695639347,6573.0115735160525
1.564,1.6206278275695303,6587.031824924156
1.568,1.5881281895705994,6593.8271961649225
1.572,1.5547612652335454,6594.912694222145
1.576,1.521005292899099,6599.847312609828
1.58,1.4880974464655614,6609.654010212915
1.584,1.4575652123233243,6615.009475446488
1.588,1.4305049995377814,6611.875575235298
1.592,1.406968066081678,6625.449588428569
1.596,1.3858770455005134,6619.180960392611
1.6,1.3656126274419764,6628.522067340415
1.604,1.3449462114981385,6639.026512642724
1.608,1.3237506366158398,6648.61839899679
1.612,1.3030918771588285,6641.822296797604
1.616,1.2846991986309413,6656.047139888179
1.62,1.2701176019665663,6649.5364566403205
1.624,1.2599227899569374,6651.882413121127
1.628,1.2532703295072452,6644.6878729696
1.632,1.2478726807137335,6668.0743795735225
1.636,1.240370683463347,6680.017610408686
1.64,1.227045614217472,6672.345333974305
1.644,1.2048179226437061,6685.062050990084
1.648,1.1723655388800474,6686.459162459643
1.652,1.1309940853676674,6697.473445132229
1.656,1.0847956710485034,6702.061311402367
1.66,1.039798976400805,6696.045615442708
1.664,1.0022136581489616,6709.968079991593
1.668,0.9763053947606811,6705.530806307797
1.672,0.9626792288268505,6712.967113006765
1.676,0.9577085785365397,6714.437919067783
1.68,0.9545329489307922,6715.389107284124
1.684,0.945472248471409,6723.596205820256
1.688,0.9250238322152,6722.114332909258
1.692,0.8922065330983189,6728.569306322425
1.696,0.851215323393762,6731.595298604776
1.7,0.8100766154024572,6745.136156161396
1.704,0.7778472288319267,6738.87956899034
1.708,0.7614575440116518,6734.80221533332
1.712,0.7633523904486524,6745.903559453829
1.716,0.7806956282979457,6746.030601274823
1.72,0.8063011820620959,6748.116697995431
1.724,0.8308778522358514,6749.408176808369
1.728,0.8458140974709067,6764.177943392329
1.732,0.8456524948015685,6749.694707931554
1.736,0.8295608604463305,6763.34254044848
1.74,0.8014218258287449,6766.122890270419
1.744,0.7685786919788188,6772.592629231855
1.748,0.7396923839205285,6774.065216024849
1.752,0.7224209019964681,6778.66447063202
1.756,0.7216000136228654,6781.175135794462
1.76,0.7383095115094633,6776.495620603709
1.764,0.7698528142979714,6777.283635112623
1.768,0.8104612672440172,6786.619228044252
1.772,0.8524885665997036,6786.528427449131
1.776,0.8878743959427248,6790.655387027904
1.78,0.9096317550683961,6785.5124741865575
1.784,0.9130584347608428,6795.003680349724
1.788,0.8963854025188858,6783.20744715564
1.792,0.8607360136248118,6792.991204603808
1.796,0.8095304297859897,6784.022629201878
1.8,0.747644834642844,6801.471007021401
1.804,0.6805922909608395,6799.443237937752
1.808,0.6138088576486187,6793.729246892117
1.812,0.5520006651734742,6801.1311711303815
1.816,0.4985565162199501,6812.334160786668
1.82,0.4552112202718271,6809.57995934871
1.824,0.4222485353786175,6814.568260981932
1.828,0.3993292300518525,6803.612335859662
1.832,0.3865598342393807,6813.016285162176
