时间(s),电压(V),幅值(高频80K)
0.0,-1.557923241261632,5890.974466128204
0.004,-1.5037717436680669,5893.669093326388
0.008,-1.455330312336417,5901.891983087035
0.012,-1.4168664278609595,5897.895244342719
0.016,-1.3904319639363991,5899.086474472312
0.02,-1.375831924825907,5890.098867741597
0.024,-1.3712442427393667,5892.642258867514
0.028,-1.3741713046118478,5904.775375798362
0.032,-1.3823894576488596,5897.090749337002
0.036,-1.394569011978101,5901.346587735329
0.04,-1.4103147995504135,5897.877088042135
0.044,-1.42962080965832,5900.098130928123
0.048,-1.452064000781206,5900.892311683425
0.052,-1.476242692759756,5900.112757857317
0.056,-1.4998065836913501,5901.741638786837
0.06,-1.5200186412716499,5906.0455911666
0.064,-1.5344712701815881,5902.50899125373
0.068,-1.5415912295331826,5893.140120356973
0.072,-1.5408059195247321,5897.532330049236
0.076,-1.5324315708591645,5904.747568221574
0.08,-1.517373665840804,5897.671165485105
0.084,-1.4967347882089486,5901.805692169208
0.088,-1.4715130283209161,5899.359788784611
0.092,-1.4426150511635598,5893.285489009482
0.096,-1.4112298944447625,5901.765318630373
0.1,-1.3793089503727236,5894.942967185898
0.104,-1.3497519257937927,5894.647164288571
0.108,-1.3260333618074174,5902.233768239407
0.112,-1.311312869771211,5901.219381416711
0.116,-1.3073795932640582,5912.723194688758
0.12,-1.3139344095943504,5908.381268449769
0.124,-1.3286063404466448,5895.2612857768745
0.128,-1.34775895307311,5903.983761087573
0.132,-1.3677399101999366,5901.816940570302
0.136,-1.3859690530157374,5901.28420670254
0.14,-1.4013133343396205,5897.603088306685
0.144,-1.4136184332642339,5898.956213870427
0.148,-1.422849389739306,5898.242864347785
0.152,-1.4285735413555,5889.59894236733
0.156,-1.430200622448149,5912.481390493059
0.16,-1.4277362390405224,5908.49691448988
0.164,-1.422394128745074,5910.45398816329
0.168,-1.41655681458246,5904.513278525918
0.172,-1.413049646112952,5899.393052318831
0.176,-1.4140728108264986,5900.67341588475
0.18,-1.420233332160511,5902.044185841224
0.184,-1.430048611092285,5898.762484140426
0.188,-1.44017915725573,5896.524415352663
0.192,-1.4464457031113938,5892.492311686643
0.196,-1.4453484549050837,5902.688942277036
0.2,-1.4354979569247754,5901.227353471555
0.204,-1.4183454339762789,5901.58637277966
0.208,-1.3979163600598004,5890.238660697381
0.212,-1.37968968098976,5895.483359135541
0.216,-1.3690637716918643,5893.993423790413
0.22,-1.3699051094278691,5898.563592283878
0.224,-1.3835664918664592,5903.321736479596
0.228,-1.4086004872356863,5897.375420125383
0.232,-1.441196126465356,5904.850702201751
0.236,-1.4761361625290843,5896.589901008896
0.24,-1.5079203799654846,5894.812551670187
0.244,-1.5317458379902298,5897.596940668485
0.248,-1.544223948474348,5902.926406916509
0.252,-1.5438575800312362,5895.799468476186
0.256,-1.531296171154185,5897.820330086352
0.26,-1.5093181757128438,5914.517719341286
0.264,-1.4824724792488309,5899.782570713882
0.268,-1.4563470389204194,5906.7059282150485
0.272,-1.4365017532063193,5891.789778034775
0.276,-1.4272191131937098,5903.450582570607
0.28,-1.4303600501075593,5907.882217946114
0.284,-1.4446900623230146,5905.830773170341
0.288,-1.4660110049916342,5901.893349070103
0.292,-1.4882345064929108,5896.579092253735
0.296,-1.505146168047408,5899.909874818417
0.3,-1.5122358908355484,5898.112123785811
0.304,-1.5079229895897557,5901.694895937259
0.308,-1.493833699626016,5899.549150760747
0.312,-1.4742008698179236,5899.535928057141
0.316,-1.454683464888854,5903.607717111972
0.32,-1.4409361104428469,5886.418284435135
0.324,-1.437206284967804,5899.094459558371
0.328,-1.4451958699107403,5895.144836331664
0.332,-1.4634428329118503,5899.720302109713
0.336,-1.4874842617685191,5907.986334643815
0.34,-1.5109148450268677,5894.885417328574
0.344,-1.5271439680320462,5902.361086835571
0.348,-1.531322450468071,5892.470475952329
0.352,-1.5217354206562475,5904.8422354830855
0.356,-1.500087191930313,5900.74602786008
0.36,-1.4705538994417218,5896.870440691817
0.364,-1.4380381954431303,5901.529003464656
0.368,-1.4064050302321838,5903.781704419027
0.372,-1.3774314287669913,5900.3133663708695
0.376,-1.3508386987007983,5902.488342387833
0.38,-1.3253034162847177,5905.573501146372
0.384,-1.2999526611584211,5900.813104502318
0.388,-1.2756576376112918,5896.968121380813
0.392,-1.2555243804993583,5905.713646877416
0.396,-1.2443250430417034,5903.374978587221
0.4,-1.2470473903271593,5897.639699303671
0.404,-1.267054419602506,5903.807998342176
0.408,-1.304467732687266,5896.239820179965
0.412,-1.355352043627922,5897.374164311124
0.416,-1.412074131563777,5898.57847215198
0.42,-1.464807359148352,5900.0991431014645
0.424,-1.50370375293393,5902.668862259096
0.428,-1.52106914035977,5900.004008132765
0.432,-1.513053950378677,5892.935642254123
0.436,-1.480651481402305,5897.972104607331
0.44,-1.4299013331437267,5902.173089272456
0.444,-1.3711510550652166,5899.971794619061
0.448,-1.3172502980929586,5903.734054453988
0.452,-1.280798057086396,5898.5975909105455
0.456,-1.270993893865264,5901.173499160937
0.46,-1.2910137049627766,5910.407355337851
0.464,-1.3368496892347477,5910.283036422706
0.468,-1.3981207225020809,5902.785090508381
0.472,-1.4606624699824553,5901.080099614145
0.476,-1.5100967494382957,5900.854537161469
0.48,-1.5353215948929508,5899.211724144403
0.484,-1.5309924955953045,5907.35080135614
0.488,-1.4984496673545349,5903.023232189481
0.492,-1.4450275590913002,5890.968709687702
0.496,-1.3821159928968374,5894.766747343291
0.5,-1.322584416541244,5908.854605202778
0.504,-1.2781717037848095,5896.620159107611
0.508,-1.2572846561201094,5901.431454456199
0.512,-1.2635094430866844,5901.320288707477
0.516,-1.295083266034239,5902.510206449027
0.52,-1.3454939201568303,5907.171513507919
0.524,-1.4051455437509301,5896.747724614853
0.528,-1.463693041910157,5902.760249026211
0.532,-1.512399306088302,5898.590821195896
0.536,-1.545845820518807,5904.564822798934
0.54,-1.5625381106006098,5900.142945886617
0.544,-1.5643504277895672,5897.939852156419
0.548,-1.5552115597982141,5899.076298854989
0.552,-1.539678173365521,5897.756803797953
0.556,-1.521908440259785,5901.675784105901
0.56,-1.5051822077182784,5895.537337688608
0.5640000000000001,-1.4918073742310507,5899.13115326813
0.5680000000000001,-1.4831654792785718,5902.342527725025
0.5720000000000001,-1.4797472173063126,5904.041068713103
0.5760000000000001,-1.4811709677641096,5894.343097963341
0.58,-1.486249117121114,5900.622782298319
0.584,-1.4931682320073714,5890.200736210852
0.588,-1.4998297609074323,5903.482036637811
0.592,-1.5043416707450963,5899.5096538963735
0.596,-1.5055336476545773,5896.6255775590325
0.6,-1.5032672373951979,5908.231983713629
0.604,-1.4983461910907423,5891.372850668166
0.608,-1.4920180906926839,5906.539227728155
0.612,-1.4852789156619333,5899.375203390746
0.616,-1.4782961399173378,5907.421758037766
0.62,-1.4702011326067077,5890.804881303653
0.624,-1.4593420200681992,5897.357992296193
0.628,-1.4439329345490215,5905.013379453983
0.632,-1.422921840186407,5902.8390272042125
0.636,-1.396808921608135,5902.512704906549
0.64,-1.3680832937157914,5888.109224579512
0.644,-1.340992377805863,5901.318659940649
0.648,-1.3205982051958751,5899.9486437680125
0.652,-1.3114187980008674,5896.79466073001
0.656,-1.31617010858798,5900.260993774684
0.66,-1.3350707726328672,5905.173488280543
0.664,-1.3658910967022715,5899.666501210037
0.668,-1.4045780274605237,5895.021320568898
0.672,-1.446083144814793,5902.299815169081
0.676,-1.4851075522565675,5906.283496131877
0.68,-1.5167334748008463,5899.499858718146
0.684,-1.5370266290896735,5898.3769296190985
0.6880000000000001,-1.5435738998954907,5899.371335628408
0.6920000000000001,-1.5358113123727692,5898.623751783071
0.6960000000000001,-1.5150801285647821,5903.638967301523
0.7000000000000001,-1.484489510900528,5897.5036642316745
0.704,-1.4486626633374546,5912.025426110773
0.708,-1.4133124956130567,5904.022541227553
0.712,-1.3845025266839461,5895.10383549584
0.716,-1.3675372561507855,5900.089429209017
0.72,-1.3656861983842676,5905.84175778609
0.724,-1.3792023328689962,5905.342407807997
0.728,-1.4051104386961697,5898.85492185377
0.732,-1.4379273341464263,5909.204893851033
0.736,-1.4710305291681187,5899.109920768064
0.74,-1.498146235615559,5901.636614242652
0.744,-1.5145302550878197,5894.196129076714
0.748,-1.5176879526170857,5891.16465249941
0.752,-1.507644473722116,5898.129676468259
0.756,-1.486777313316679,5892.378662996193
0.76,-1.4592253278076543,5901.422729516823
0.764,-1.4299940749266058,5893.163788467818
0.768,-1.4039796417579615,5906.960778868031
0.772,-1.3851028228099163,5905.715907925731
0.776,-1.3756623466603648,5894.544072328872
0.78,-1.3760275390327457,5911.59727772532
0.784,-1.384810800630588,5902.68243977994
0.788,-1.3995066564241077,5893.464135452166
0.792,-1.417341808993256,5903.536918029043
0.796,-1.435989203626739,5901.723175379686
0.8,-1.4539023091039593,5893.504927429003
0.804,-1.4702053413004386,5900.54866987685
0.808,-1.4842701492086234,5904.764058638003
0.812,-1.4952881995092282,5893.811764475503
0.8160000000000001,-1.502179733542239,5897.642367976596
0.8200000000000001,-1.5039631415109809,5894.715047982559
0.8240000000000001,-1.5003644195673498,5902.403899190381
0.8280000000000001,-1.4922689963634437,5895.795613364894
0.8320000000000001,-1.4817281276827807,5909.044711736548
0.836,-1.4714853981740768,5901.365612100423
0.84,-1.4641939412342992,5905.3915270557645
0.844,-1.4615803281215307,5904.041947456203
0.848,-1.4638156316169888,5899.810026508077
0.852,-1.4693350616822027,5905.29275445625
0.856,-1.475274790749388,5901.2073097625625
0.86,-1.4784876481259974,5896.446326476406
0.864,-1.4768053032292634,5901.294952375906
0.868,-1.4700274744725494,5892.796568236415
0.872,-1.4601800510264638,5908.067907584825
0.876,-1.450865266826023,5907.645110646873
0.88,-1.4458971181997187,5908.634285174908
0.884,-1.4477217719194926,5902.680468754584
0.888,-1.4562323529549417,5901.314904650853
0.892,-1.468443408630154,5896.225716974445
0.896,-1.4791647790861924,5897.37051833202
0.9,-1.4824754968318015,5903.785030484783
0.904,-1.4735753376690217,5912.087745306524
0.908,-1.4504907419823412,5905.637858744464
0.912,-1.415107115126519,5900.139177137328
0.916,-1.3731295065869367,5899.631534132415
0.92,-1.332869494180623,5900.570912300955
0.924,-1.3031543517108215,5898.567308034913
0.928,-1.29100751644312,5901.7701830610495
0.932,-1.2998668050318272,5900.520458045426
0.936,-1.3288804344669658,5901.125470703439
0.94,-1.3733795993751283,5893.4340591363125
0.944,-1.4262428600856367,5896.0446305489
0.948,-1.4796815743219816,5899.060858227235
0.952,-1.5269351142085827,5899.768626765534
0.956,-1.5634135882809022,5899.243794745566
0.96,-1.5870027166546503,5898.400695493191
0.964,-1.5975655644831759,5896.301456299849
0.968,-1.59601031894496,5898.981917560605
0.972,-1.583458029184044,5899.446554113514
0.976,-1.560962206227875,5900.323929702538
0.98,-1.5299346113399694,5899.814399778263
0.984,-1.4930058775033794,5893.586141804576
0.988,-1.454688631205718,5898.424707651817
0.992,-1.4211815603968625,5900.819457257462
0.996,-1.3990666095776418,5895.84097046904
1.0,-1.3932949953391593,5898.500481664475
1.004,-1.4053218059653856,5904.222556873199
1.008,-1.4322375692101277,5899.720330382974
1.012,-1.4672902432010224,5901.384787507554
1.016,-1.5016007791850654,5907.676413153419
1.02,-1.5264786197285178,5905.796028051615
1.024,-1.5356591412910812,5903.319503057408
1.028,-1.5268960300229513,5899.09785448104
1.032,-1.502494804908567,5897.517828399605
1.036,-1.4685824213015586,5900.705198846571
1.04,-1.4332602019032783,5903.3714737623895
1.044,-1.4042022900890228,5904.635186557426
1.048,-1.3865043101275567,5896.766636989485
1.052,-1.3815032013454664,5899.461641439983
1.056,-1.3869114117654897,5903.615476950987
1.06,-1.3980924164485162,5899.5693998300985
1.064,-1.4098700094193608,5902.874699364679
1.068,-1.418121867782997,5893.219938330764
1.072,-1.4206184431770124,5896.815861024429
1.076,-1.416982895542877,5909.205864128046
1.08,-1.4080349594433863,5894.371924131726
1.084,-1.3949793252889815,5898.651393439956
1.088,-1.3788656755830189,5900.839614618119
1.092,-1.360534709357722,5896.32523907921
1.096,-1.340970338145412,5902.802474006864
1.1,-1.3217417123966293,5902.964557268664
1.104,-1.3051899660326525,5900.931705656711
1.108,-1.2942065742634112,5903.323974800221
1.112,-1.2916852628935565,5895.57764692798
1.116,-1.2998394882716888,5906.961258343126
1.12,-1.3195662454292751,5898.000149856033
1.124,-1.3500003943517227,5907.94132871788
1.128,-1.3884030629421271,5903.07628142283
1.132,-1.4305325902479888,5897.509068565986
1.136,-1.4715400764642557,5901.9840251883215
1.14,-1.5071641335153738,5898.727515736887
1.144,-1.534750079295075,5906.667002276878
1.148,-1.553638961693838,5908.035249629747
1.152,-1.5647745668727393,5894.723066686942
1.156,-1.569745141827652,5905.212361041033
1.16,-1.5697254402200918,5898.879477660223
1.164,-1.564845642946243,5909.161819175764
1.168,-1.554335025053191,5892.577360277053
1.172,-1.5373726599286521,5896.614055019906
1.176,-1.5141391347367732,5908.666890865841
1.18,-1.4864298906004878,5893.204284773429
1.184,-1.4574658611016096,5901.398334140651
1.188,-1.4310010018989792,5910.100719023851
1.192,-1.4101775243253187,5900.134606726819
1.196,-1.3966516055510703,5900.806395523166
1.2,-1.3903257447496746,5900.618834834192
1.204,-1.3897352610686713,5907.064904138865
1.208,-1.3928861657083986,5910.511963317132
1.212,-1.3981701055167841,5908.176816455258
1.216,-1.4049341647727631,5899.19103536095
1.22,-1.4134370179784035,5895.065518081962
1.224,-1.4242382913209908,5897.122906879382
1.228,-1.4373653089929073,5895.763979289365
1.232,-1.4517154401603243,5903.518831092828
1.236,-1.465020225084576,5901.286364769816
1.24,-1.4743814307421927,5900.829454228582
1.244,-1.4770799466977897,5895.854636307285
1.248,-1.4712536504612213,5907.563393526635
1.252,-1.4561888697317642,5901.528936587101
1.256,-1.4322727935989643,5899.552416588527
1.26,-1.4009336554432144,5898.517683455543
1.264,-1.3649378286794107,5898.2082606839085
1.268,-1.3291063640099638,5895.228580927354
1.272,-1.3010102817114204,5909.050151278095
1.276,-1.2908377110669322,5903.927435550469
1.28,-1.3096620204767373,5911.151481189918
1.284,-1.3658417763348936,5904.499530064188
1.288,-1.4601052274927788,5904.571368169915
1.292,-1.5806913560039209,5895.182107758308
1.296,-1.70036629105204,5905.929778447102
1.3,-1.7770095674653688,5896.026525055548
1.304,-1.7588124675453163,5888.789493000506
1.308,-1.5940432216813327,5910.757371727119
1.312,-1.2438674419923008,5901.169761835119
1.316,-0.6951494100239962,5889.633479985624
1.32,0.03084993657566588,5900.366826711
1.324,0.8776896189971058,5904.39681875487
1.328,1.762684439760518,5897.777025353373
1.332,2.593877788700029,5910.027155886955
1.336,3.289886693302128,5937.310915584752
1.34,3.796162877228952,5952.924643264785
1.344,4.093037031182717,5958.173385586506
1.348,4.194489609628466,5978.347342776334
1.352,4.139741793265691,5990.0518442261455
1.356,3.981308443098114,6002.715724956506
1.36,3.773104542032583,6013.737979444029
1.364,3.561115434191648,6033.279427117149
1.368,3.3777654377278057,6038.44916549833
1.372,3.240029703021724,6056.695660212879
1.376,3.1507024586192007,6068.222652335094
1.38,3.101906831342697,6084.562526279074
1.384,3.0797388168855435,6099.637149464692
1.388,3.0688945206427074,6101.49382544332
1.392,3.056326468546894,6110.776000719769
1.396,3.033380869594276,6129.2574420422925
1.4,2.996349482812172,6137.914019325206
1.404,2.945800849052734,6154.921108239369
1.408,2.885293509717509,6164.922935750646
1.412,2.8200028951858664,6174.119090096857
1.416,2.755507402728714,6184.3149775562
1.42,2.696745948303003,6194.436502282819
1.424,2.647141772008272,6203.66848401252
1.428,2.608006495005521,6219.526394192302
1.432,2.578396284101217,6225.301051916563
1.436,2.5554782039355004,6235.585224718378
1.44,2.5352735023151522,6244.233592113905
1.444,2.5135526625837468,6243.94376467199
1.448,2.4866958222564395,6266.498877268792
1.452,2.4523963489215967,6274.328236536485
1.456,2.410112371443124,6275.411488218444
1.46,2.361173313488788,6285.755861561014
1.464,2.3084621158805056,6283.387928792189
1.468,2.255672131167411,6303.243353039845
1.472,2.2062858345916974,6307.584519310208
1.476,2.162547527988353,6316.416122724039
1.48,2.1247241746610026,6325.174720940476
1.484,2.0908974612125433,6330.249466155921
1.488,2.057448644482936,6330.725711248893
1.492,2.020230237518846,6348.769718209019
1.496,1.9761210849813766,6355.362317884428
1.5,1.9243722879011285,6360.003636919289
1.504,1.8671120552757905,6361.197789427771
1.508,1.8086951283836517,6374.888048282822
1.512,1.7541297542857264,6389.430007536493
1.516,1.7072881408799951,6387.595016846892
1.52,1.6696952028715404,6391.466353013656
1.524,1.6403391734269486,6384.476538584833
1.528,1.6164315195040286,6409.018213469288
1.532,1.5946896016678265,6411.829635541873
1.536,1.5726093130272356,6415.969453540204
1.54,1.5492565316975484,6415.413109745586
1.544,1.5253134650570908,6430.9448305483
1.548,1.502455972788909,6427.51061185873
1.552,1.4824471798522119,6436.169813381725
1.556,1.4664057037289113,6438.021471593692
1.56,1.4545137786357798,6451.628826285127
1.564,1.4461257438302182,6452.746766236054
1.568,1.4400407258710408,6454.99641659205
1.572,1.4347566173231838,6456.271062416789
1.576,1.4287223937022466,6468.5436153922665
1.58,1.4206732809913885,6469.450862924567
1.584,1.409974903723232,6484.026177202778
1.588,1.3967513798038544,6485.721914068781
1.592,1.3816682354565137,6491.345098134901
1.596,1.3655129302973512,6486.17554411095
1.6,1.3488715306600612,6494.080623890386
1.604,1.3320788371061383,6494.923120797158
1.608,1.3153709847301704,6495.832813705652
1.612,1.2990444346386019,6512.7310231307165
1.616,1.2834832260292897,6507.28457172482
1.62,1.2690395844724207,6515.696810570813
1.624,1.2558365225776604,6521.027566135616
1.628,1.2435847710420527,6516.55952847114
1.632,1.2314915990132629,6515.842514662964
1.636,1.2183039278685341,6527.831124545856
1.64,1.2024791502837586,6534.751523094773
1.644,1.182429037985268,6540.916016370803
1.648,1.1567655368614054,6533.786639076291
1.652,1.1245140019195836,6538.974057161358
1.656,1.0853243687237162,6543.975538644958
1.66,1.0397331400830727,6544.31982461974
1.664,0.9894666267566926,6544.4377776537485
1.668,0.9376618433318686,6560.7986728097085
1.672,0.8887890524726043,6555.426949132445
1.676,0.8480775648057547,6558.717363717218
1.68,0.8204343991341221,6559.688061754786
1.684,0.8091300087479139,6564.439075965799
1.688,0.8147169619247959,6567.817026075945
1.692,0.8346205396453756,6568.154882184859
1.696,0.8636147902019683,6567.229848091967
1.7,0.8950657833673905,6574.821167928764
1.704,0.9225110380312158,6589.207706392031
1.708,0.9410178468672182,6583.704213946731
1.712,0.9479272512231542,6581.744337076354
1.716,0.9429307992711362,6578.243774618499
1.72,0.9276902592111096,6586.637329439295
1.724,0.905261216162905,6582.77182976641
1.728,0.8794820758505715,6595.063794039646
1.732,0.8543702111540723,6592.315121653451
1.736,0.8335158119486775,6598.807561553599
1.74,0.8194839500744385,6592.446903495612
1.744,0.8132737094521653,6601.171715918559
1.748,0.8139322916370121,6602.514899854117
1.752,0.8185021175063751,6603.5059302752925
1.756,0.8225149961499048,6600.716738309649
1.76,0.8211037700963529,6597.963539727112
1.764,0.8104754663500285,6604.480139111116
1.768,0.789181228568484,6602.436799912841
1.772,0.7585795434793409,6616.861319720772
1.776,0.7222274753554142,6606.4292585438925
1.78,0.6845012928864584,6618.374560214393
1.784,0.6491625958614221,6619.7574438021575
1.788,0.6185172138905108,6614.205706682978
1.792,0.5933505275508352,6622.022022065338
1.796,0.5733956264389612,6628.648664415259
1.8,0.5579712620226213,6618.518449036805
1.804,0.5465169362566733,6626.338110772449
1.808,0.5388647275483486,6623.751741100918
1.812,0.5351790530781607,6626.03430223477
1.816,0.5356100093706568,6633.416810993262
1.82,0.53984305507666,6636.544484846561
1.824,0.5468081810461489,6632.358362766356
1.828,0.5547504576378864,6630.023212430983
1.832,0.561671112242719,6646.189022000954
