时间(s),电压(V),幅值(高频80K)
0.0,-1.9006054659947769,5896.126155553126
0.004,-1.8710704965676286,5895.750768174202
0.008,-1.8404258146431058,5895.242935172559
0.012,-1.8078817655049302,5900.084471523538
0.016,-1.7742467054585516,5898.918019635517
0.02,-1.7420931366874168,5896.2139469710455
0.024,-1.7152047137341513,5896.730259176526
0.028,-1.6974624366264008,5898.708263904727
0.032,-1.6916068954286878,5891.600995743066
0.036,-1.6983540521729295,5901.725485740412
0.04,-1.716116250554991,5898.770114417152
0.044,-1.7413226172523235,5896.121083810747
0.048,-1.7692282976169886,5899.484835730209
0.052,-1.7950487904427566,5904.959736440514
0.056,-1.815101076228136,5902.195773109355
0.06,-1.827499106206446,5891.957740154871
0.064,-1.8321119343839816,5903.369878834891
0.068,-1.8299492612184023,5895.02304460448
0.072,-1.8224985206999065,5910.86270245218
0.076,-1.811430045601235,5904.316066858831
0.08,-1.798628196922279,5907.993398556848
0.084,-1.786186275540041,5905.720567912112
0.088,-1.7761146645343904,5899.431349358142
0.092,-1.7698568105102137,5909.2871894771015
0.096,-1.767903557137056,5908.26911861153
0.1,-1.7697195696874206,5903.127070198744
0.104,-1.7740174896128853,5899.708879998814
0.108,-1.7792909548756797,5906.739570614633
0.112,-1.7844265054774517,5901.227718502809
0.116,-1.7891308346262005,5901.436593659888
0.12,-1.7939321151115089,5888.860467692213
0.124,-1.7997253669579654,5900.618683052907
0.128,-1.8071273084236315,5905.68883674538
0.132,-1.8160363950908351,5903.976373318108
0.136,-1.825612638052545,5893.923142883279
0.14,-1.8345564435664,5906.566441558374
0.144,-1.8413951603758034,5894.882835307934
0.148,-1.8446096409048072,5910.303511499955
0.152,-1.8426875256402029,5907.332547743974
0.156,-1.8343357908890237,5901.09958755027
0.16,-1.8190068681191902,5901.885484664819
0.164,-1.7976383343326645,5900.1465978812375
0.168,-1.7732438405289697,5901.7829958049
0.172,-1.7509064901731959,5899.08018547765
0.176,-1.7368999576519615,5897.290128171455
0.18,-1.7370373902204148,5898.4873280191
0.184,-1.7547457267799513,5906.779836069573
0.188,-1.789574232349142,5901.029154549403
0.192,-1.8367467765462977,5894.190512105451
0.196,-1.8879894356275186,5901.90826347566
0.2,-1.9333802199066907,5903.165812250381
0.204,-1.9636128984102452,5887.212555803963
0.208,-1.9720196441076687,5900.858482674049
0.212,-1.9559171452511355,5901.717456222696
0.216,-1.9170889925973196,5906.573841320108
0.22,-1.8613626647441108,5893.246141553691
0.224,-1.7973902539221391,5899.795952940258
0.228,-1.734938470308119,5900.169162978323
0.232,-1.68307208341124,5909.335391644918
0.236,-1.6485230648681704,5897.393040891599
0.24,-1.6344479546938968,5891.2606870378495
0.244,-1.639802091889858,5896.458875477457
0.248,-1.6596079052289041,5902.6410220545695
0.252,-1.686280421207439,5894.190947599902
0.256,-1.7118010794309533,5904.563402178264
0.26,-1.7300687107666175,5907.963215732753
0.264,-1.7385603013885988,5908.241839371789
0.268,-1.7386856275304354,5901.887384524072
0.272,-1.7347585668761532,5898.076252494142
0.276,-1.7320407359112793,5904.734590348207
0.28,-1.7346220579668923,5898.144897557682
0.284,-1.743886095844466,5900.216821344363
0.288,-1.7580114594338896,5904.501298855417
0.292,-1.7725657420803194,5901.037376944286
0.296,-1.7819247405418208,5901.891274850025
0.3,-1.7810494497401532,5891.988304312048
0.304,-1.7670760387691415,5901.945699808962
0.308,-1.7402403755814262,5894.63238129441
0.312,-1.7038714447260954,5893.497443744738
0.316,-1.6634887074720675,5903.313043902695
0.32,-1.6253348962490208,5913.682383612239
0.324,-1.5948612577698573,5894.254823298055
0.328,-1.5756598865339582,5906.904430557591
0.332,-1.5691096136660116,5897.7224421501605
0.336,-1.5746915420320993,5906.536455330571
0.34,-1.5906805836056015,5905.65736713562
0.344,-1.6148272148463356,5894.38680202861
0.348,-1.6447481477783894,5902.475775218679
0.352,-1.6779823456015697,5902.209057886165
0.356,-1.7118827854602854,5908.332798086573
0.36,-1.7435749572638097,5900.370126534447
0.364,-1.7701270178693265,5903.169215537768
0.368,-1.7889493448201668,5899.090685132152
0.372,-1.7983352095898868,5891.093473201653
0.376,-1.7979548862668386,5907.900161314427
0.38,-1.789060495904255,5896.385493397014
0.384,-1.7742592524345435,5905.375648895453
0.388,-1.75695575238421,5896.873196926765
0.392,-1.7407364252257531,5900.3690941820205
0.396,-1.7288967176122514,5900.193468412992
0.4,-1.72408535569099,5902.861624665129
0.404,-1.727920183587144,5902.289928181667
0.408,-1.7405505543132551,5899.904434652032
0.412,-1.7603608710459528,5909.950282842121
0.416,-1.7840841632323623,5899.096350208672
0.42,-1.8074484274426064,5905.336836253741
0.424,-1.8262280444831913,5896.636886601303
0.428,-1.8373547484546016,5909.855066043392
0.432,-1.8396640904896497,5900.177253020325
0.436,-1.8340006047850503,5907.385480765722
0.44,-1.822715992948182,5902.043067985831
0.444,-1.808836284243214,5893.8368947618665
0.448,-1.7952030119115774,5907.926665870231
0.452,-1.7838058043767717,5901.609919597519
0.456,-1.7754502330525608,5898.612252878909
0.46,-1.7698251401375646,5901.697661505978
0.464,-1.7658899205443175,5900.278085110306
0.468,-1.7623682152461642,5898.475696013404
0.472,-1.75814290456535,5903.763322257909
0.476,-1.7524902438584462,5892.598842523543
0.48,-1.7452151753474303,5907.267664735095
0.484,-1.7367469926232924,5899.6464955981255
0.488,-1.7281697718176459,5901.471058877108
0.492,-1.7211205209358842,5901.870979182279
0.496,-1.7175491298043426,5900.453661673754
0.5,-1.7194154407620013,5890.180350896034
0.504,-1.7283806137165385,5902.982273692763
0.508,-1.7454518630680518,5902.767106277324
0.512,-1.7705179203189993,5905.213995415929
0.516,-1.8018675086196472,5890.516638103349
0.52,-1.8359967087907938,5896.064385645842
0.524,-1.86802375807989,5899.475306565836
0.528,-1.8927364060767002,5889.5005577761885
0.532,-1.905915470658324,5893.842775062196
0.536,-1.9054235021565527,5906.079242346042
0.54,-1.8916880510578993,5901.055291713027
0.544,-1.8674705058833099,5911.3398150480925
0.548,-1.8370481131562975,5901.287455631051
0.552,-1.8051109089838693,5887.574761448955
0.556,-1.7757348994288147,5899.494396146829
0.56,-1.7517053516734487,5897.086555680708
0.5640000000000001,-1.734315957280811,5893.878564341689
0.5680000000000001,-1.7236427725028347,5895.446521684535
0.5720000000000001,-1.719144236403408,5909.469050592727
0.5760000000000001,-1.7202606552880564,5899.814184899081
0.58,-1.726640629905741,5909.476140560887
0.584,-1.7378628894122525,5898.83833853396
0.588,-1.752932940980873,5903.75907149168
0.592,-1.7700579499272522,5904.128415581886
0.596,-1.7869950841130358,5905.6331166905065
0.6,-1.8017949281960888,5895.469738244352
0.604,-1.8134536064853037,5899.792164927695
0.608,-1.822078876003155,5901.142474164215
0.612,-1.8285074822090477,5893.496975304872
0.616,-1.8335902724919382,5904.259627706911
0.62,-1.8374659280265198,5892.446831786032
0.624,-1.8391328684829515,5893.003086341186
0.628,-1.8365543132355397,5899.038112225113
0.632,-1.8273566343346106,5900.876268208306
0.636,-1.8099035926485,5903.948225105213
0.64,-1.7842875391144648,5899.9536188545535
0.644,-1.7527561250560653,5900.385500253686
0.648,-1.719344250271926,5896.259873933697
0.652,-1.6888719547372422,5911.9025307382935
0.656,-1.6657544275054963,5900.769686801521
0.66,-1.6530713487599684,5895.410949586197
0.664,-1.6520993203618737,5891.649614843965
0.668,-1.6622376663762095,5892.98920300468
0.672,-1.6811560593573618,5895.710274009621
0.676,-1.7051024784978446,5896.669618460644
0.68,-1.7294742966815502,5904.245475826384
0.684,-1.7497410452219495,5898.309246778198
0.6880000000000001,-1.7625486810820519,5900.488129012898
0.6920000000000001,-1.76655075809448,5900.629665407451
0.6960000000000001,-1.7625189815128026,5900.504120034007
0.7000000000000001,-1.7526611565324626,5906.8621105420125
0.704,-1.7395405926551692,5905.783738102339
0.708,-1.7251861055457123,5894.62908920165
0.712,-1.7107911462882524,5904.028568360457
0.716,-1.6969966452249612,5900.487722322559
0.72,-1.6844183388427891,5902.217534669676
0.724,-1.6740098595840556,5902.5235446429815
0.728,-1.6670407012096882,5899.649438132483
0.732,-1.6647555586076788,5897.947179194189
0.736,-1.6679743854335232,5914.112689261778
0.74,-1.6768631775238172,5901.856450603252
0.744,-1.6909150256964394,5899.641281807238
0.748,-1.7090406526161606,5903.416972459744
0.752,-1.729681638207986,5899.61640067766
0.756,-1.750934423973916,5903.310312192759
0.76,-1.7707126454965976,5900.532060488199
0.764,-1.786982621163899,5897.749450388285
0.768,-1.7980950725279965,5905.127168363011
0.772,-1.8031862944684376,5892.96801980378
0.776,-1.8025255572693686,5913.544531422446
0.78,-1.7975924255746365,5902.398433872639
0.784,-1.790696220148682,5897.496400272394
0.788,-1.7841704849657245,5902.6426441540825
0.792,-1.7794662841735374,5902.05454699573
0.796,-1.776590477898991,5900.819159061824
0.8,-1.7741758308976128,5907.646317666541
0.804,-1.770158128283593,5895.121475229825
0.808,-1.762789604666961,5899.907105144665
0.812,-1.751609895732389,5885.535802310599
0.8160000000000001,-1.7379700261205022,5895.034322257358
0.8200000000000001,-1.7247893816183122,5896.5631732295005
0.8240000000000001,-1.7155110315670463,5904.444908979018
0.8280000000000001,-1.7126326524249322,5907.263403306827
0.8320000000000001,-1.716472718650806,5892.6790523757845
0.836,-1.7247771293186274,5900.97225179754
0.84,-1.7333935296212173,5910.200679509358
0.844,-1.7377505391269148,5893.237736540453
0.848,-1.7345292267528452,5893.692774614628
0.852,-1.722854529769905,5903.740736922819
0.856,-1.7045731625028573,5902.232107328464
0.86,-1.6835893083935423,5899.4819683456935
0.864,-1.6645753872355942,5897.504684195568
0.868,-1.6515190911817108,5891.408054367614
0.872,-1.6465605858858556,5898.986011359021
0.876,-1.649497828797296,5901.994443446245
0.88,-1.6581309893167582,5902.9028489694765
0.884,-1.6692444575240437,5905.502712288955
0.888,-1.679714726459031,5896.055800899833
0.892,-1.6872679788630829,5900.312936563776
0.896,-1.6907520404394163,5901.545241603098
0.9,-1.6901113163927928,5898.088307736096
0.904,-1.6863165349898384,5892.878946528792
0.908,-1.6813280417686711,5910.008338783242
0.912,-1.6779610126033957,5898.244618647952
0.916,-1.6794513085281755,5896.595857272412
0.92,-1.6886257341471758,5900.391727185714
0.924,-1.7067838573485383,5900.158097931342
0.928,-1.732615456717494,5898.801793571588
0.932,-1.7616328077130305,5896.906913723443
0.936,-1.786586599181544,5889.833683135293
0.94,-1.7990632764818113,5907.48544755962
0.944,-1.7919781847809504,5906.916461540292
0.948,-1.7622428658282794,5897.582467838097
0.952,-1.7127741334006181,5901.894968380931
0.956,-1.6532273210525237,5898.823951750137
0.96,-1.5991234816366287,5896.014265623412
0.964,-1.5692325901470554,5900.851590758104
0.968,-1.581275012774759,5904.980920673406
0.972,-1.6464068870375088,5895.946894430309
0.976,-1.763557116591942,5909.721368640545
0.98,-1.915195473985588,5899.524955907524
0.984,-2.066172274564909,5895.956121245794
0.988,-2.1667470059284217,5899.092531056771
0.992,-2.15999125516818,5893.827363362306
0.996,-1.9927098826440863,5894.715578962921
1.0,-1.628056800186696,5901.183446332248
1.004,-1.0571466422971625,5902.16754569356
1.008,-0.30629894775609134,5904.2207095810745
1.012,0.5633727721412766,5898.841545921414
1.016,1.4657190429409837,5893.063864414127
1.02,2.3070741087514515,5908.475584608106
1.024,3.00637336252654,5936.393485512493
1.028,3.5112324247335858,5946.233268708676
1.032,3.805209386938612,5978.364871049019
1.036,3.905352230620975,5979.508576767988
1.04,3.852590685354156,6006.48039844454
1.044,3.699112073818392,6029.319647925434
1.048,3.496570296404048,6041.085347163032
1.052,3.2875757488910815,6051.683114190014
1.056,3.101296910369536,6065.704220209581
1.06,2.952808729631678,6091.215840632254
1.064,2.845205538336331,6088.864774720546
1.068,2.773272071384862,6118.1674896252825
1.072,2.7275022027768916,6124.054458289847
1.076,2.6974819438778304,6145.008651182168
1.08,2.6741389037577656,6161.613161134174
1.084,2.650902168114882,6168.707883771544
1.088,2.6240777241053834,6179.514915684896
1.092,2.5926564841421325,6203.909808862857
1.096,2.557646309681414,6209.059388812701
1.1,2.521118994225482,6224.659829933448
1.104,2.4853292695337426,6234.656693848673
1.108,2.452179842639724,6242.012390150416
1.112,2.4230062590424764,6257.635096570894
1.116,2.398479386944864,6267.947305497457
1.12,2.3785295461763467,6289.453179352717
1.124,2.36237232646572,6289.597916865146
1.128,2.3487005748690026,6313.603675755711
1.132,2.335916685252861,6321.486952134688
1.136,2.3221787084771672,6330.852165266074
1.14,2.305216495977788,6337.453018724787
1.144,2.282182734958767,6342.193044323053
1.148,2.249880879076514,6357.098738868442
1.152,2.2054559553041355,6361.587720051326
1.156,2.147308770028212,6379.441369783774
1.16,2.075865582588353,6387.36038199953
1.164,1.9939112158485255,6396.271156940748
1.168,1.9063449490859377,6403.626833155337
1.172,1.8193873953417048,6414.18125867453
1.176,1.7394507725426798,6431.866828702923
1.18,1.6719989986864527,6430.671314539163
1.184,1.620660884782596,6437.720490671579
1.188,1.5866991205825167,6446.174134849252
1.192,1.5688637540030015,6464.087132471949
1.196,1.5636769737739262,6459.180582312369
1.2,1.5661694054136417,6461.119393213134
1.204,1.5709677006221876,6478.6563219467935
1.208,1.5734791373526804,6497.545167449942
1.212,1.5708288691593049,6495.762517552204
1.216,1.5622615961840567,6504.459660036688
1.22,1.5488999646258748,6507.227298432638
1.224,1.532954833013977,6516.160814590054
1.228,1.51664744276322,6521.553329541463
1.232,1.5012074122240184,6527.62762494679
1.236,1.4863048452653906,6536.880009234297
1.24,1.4701339509518891,6541.932181373396
1.244,1.45014433494865,6552.357800087742
1.248,1.4241990648547092,6552.946390980662
1.252,1.3917692398641435,6566.080638285799
1.256,1.3546802313066226,6567.929424762935
1.26,1.3169773360944703,6572.117283780978
1.264,1.283758552198057,6583.078088791564
1.268,1.2592866070758075,6583.307801626561
1.272,1.2451137800648302,6588.443162122272
1.276,1.2390586209215482,6598.498992377265
1.28,1.2355665818162633,6603.768315669703
1.284,1.2274060136652907,6612.227505712661
1.288,1.208072311631449,6608.098744938615
1.292,1.1739800314092015,6622.832555832325
1.296,1.125656269753817,6622.467620416866
1.3,1.067612811339784,6628.127756836794
1.304,1.0071117022338252,6621.494554748411
1.308,0.952372057899786,6632.897256547093
1.312,0.910752952585557,6633.655256420421
1.316,0.8872307383530669,6637.502570706796
1.32,0.8833683558467834,6644.892805143796
1.324,0.8969967297348226,6648.106839899784
1.328,0.922749828485406,6658.493991534426
1.332,0.9533383620998415,6651.428627086265
1.336,0.9812195832557514,6655.692228536066
1.34,1.0002330122461551,6668.290105783041
1.344,1.0067750485815279,6670.550181629968
1.348,1.0002141980441555,6672.3813956941085
1.352,0.9825312561388055,6661.628838026375
1.356,0.9574416000052336,6680.922088352992
1.36,0.9293398309528721,6683.950395354116
1.364,0.9023182076508763,6683.669526836349
1.368,0.8793896991152773,6689.490357476798
1.372,0.8619860881767732,6695.639938051088
1.376,0.8497928595159455,6701.034986484507
1.38,0.8409687662801257,6703.278811587728
1.384,0.8327464752569739,6696.794737429571
1.388,0.8223328716457365,6711.715669699891
1.392,0.8079351247956048,6714.32772766018
1.396,0.7896277605567692,6713.763447150069
1.4,0.769698711284999,6715.630046548024
1.404,0.7522008070739687,6727.558561503404
1.408,0.741742490813693,6713.520002667491
1.412,0.7419088009121959,6729.957323132299
1.416,0.753872332168118,6723.79162204856
1.42,0.7756718865978378,6728.445541647175
1.424,0.8024006358335108,6726.6001542494505
1.428,0.827264233596352,6731.938663151572
1.432,0.8432305627599224,6744.990253287478
1.436,0.8448467045532189,6743.130364498055
1.44,0.8297383100545433,6742.2805128102345
1.444,0.7993464345075587,6738.379221620648
1.448,0.7586393886941688,6745.507778990957
1.452,0.7148263777971471,6750.430503804168
1.456,0.6753992844094469,6752.052785827071
1.46,0.6460618824083175,6747.417329792132
1.464,0.6291850342863062,6756.030153892306
1.468,0.6232740161938842,6765.509079329996
1.472,0.6235932284225385,6761.974369697683
1.476,0.6237164822801874,6761.049617301838
1.48,0.6175044247928773,6759.74705240724
1.484,0.6009375664257576,6759.574315765518
1.488,0.5733407462012302,6772.163447656713
1.492,0.5377226824541497,6773.418191990558
1.496,0.5001468941901005,6771.533315129016
1.5,0.46825510074756416,6777.352833878272
1.504,0.4492858901976422,6776.993728283949
1.508,0.44810224908657703,6780.038137385463
1.512,0.46576928756538083,6770.60918634497
1.516,0.4990786545189275,6783.443339855922
1.52,0.541156618722173,6783.447712889243
1.524,0.5830134800016036,6788.3405808771895
1.528,0.6156613572694772,6781.781375068751
1.532,0.6322676286518845,6777.398239168372
1.536,0.6297455178906423,6781.4033042830815
1.54,0.6092885574734971,6790.109824071756
1.544,0.5756921922121894,6785.454154928582
1.548,0.535773356276758,6795.6981030611
1.552,0.49653786832136615,6793.257988543839
1.556,0.46373410531563586,6792.231532511202
1.56,0.4410961703695275,6807.293500764046
1.564,0.43018658510145824,6797.585394938312
1.568,0.43055299652817847,6793.053858369884
1.572,0.43996961757498027,6793.234968745719
1.576,0.4547401069566226,6803.812656356298
1.58,0.47022880752574314,6795.691007923036
1.584,0.48178256964064764,6796.306926705498
1.588,0.4859408630113482,6798.874377237773
1.592,0.4814851491207771,6810.4102644435225
1.596,0.46977070996393444,6806.81920109502
1.6,0.4540739264959024,6806.721263905731
1.604,0.43819402013796815,6804.150958042806
1.608,0.4249358831155644,6809.62617017794
1.612,0.4151744980145604,6799.661433507548
1.616,0.4079463286496651,6807.330866388751
1.62,0.40151290491659186,6815.309732250618
1.624,0.39481213179544483,6807.439396233349
1.628,0.3884734847357053,6801.515832812569
1.632,0.38480667981497063,6814.680378822532
1.636,0.38673071902668044,6818.650720056124
1.64,0.3961408230821,6825.521615957851
1.644,0.41246118408213284,6817.692188540357
1.648,0.4320570995255956,6817.554985819103
1.652,0.44884558287675475,6822.413037775844
1.656,0.45596558737777637,6813.058895443313
1.66,0.4479357558436866,6821.1960407386405
1.664,0.4225375191301039,6822.600086214077
1.668,0.38178891097735185,6818.996184880558
1.672,0.3317175205912173,6814.633800340362
1.676,0.28102283734879074,6830.887911045512
1.68,0.23902774766755755,6826.4341055893
1.684,0.21351300743508872,6824.588209936782
1.688,0.209043909989756,6816.029595830658
1.692,0.22618663594193306,6820.148953027232
1.696,0.26167218106221246,6808.147811120496
1.7,0.30929593488019574,6830.396754205392
1.704,0.36122030405584177,6832.87851282359
1.708,0.4093302196413357,6822.074343274592
1.712,0.4463831138745307,6832.325934149416
1.716,0.4668985906250961,6824.3636503349135
1.72,0.4678835961467697,6822.840755385396
1.724,0.44942143949258406,6815.991310582812
1.728,0.414958883721212,6830.035202960304
1.732,0.37102861559855277,6828.397491574813
1.736,0.32623335244609497,6826.1231028378925
1.74,0.28954829681971417,6834.644803455495
1.744,0.2683082156534406,6832.683061251709
1.748,0.26650733420457073,6834.679193195527
1.752,0.28402520868454,6830.027769944459
1.756,0.31699097775501367,6838.816084985039
1.76,0.35896629451782963,6836.135455452574
1.764,0.40238823615161995,6830.945061184956
1.768,0.43988772716378133,6834.263449626731
1.772,0.4653906293713625,6839.335773166284
1.776,0.4749937393541576,6839.560806321226
1.78,0.4674939153591199,6821.996904403079
1.784,0.44439100007822874,6833.667013312796
1.788,0.4093290197158644,6832.698142845946
1.792,0.3671671118889555,6832.368775985604
1.796,0.3229972104917363,6838.591527959224
1.8,0.28138999946051485,6832.1206803100495
1.804,0.24598910872248658,6838.819825222919
1.808,0.21936043825299215,6840.39277929134
1.812,0.20288126892216393,6835.426586540087
1.816,0.19655880065656783,6835.441652375221
1.82,0.1989211327959184,6838.993185289008
1.824,0.2072357728740449,6838.958206580857
1.828,0.21813573954539103,6843.170176547346
1.832,0.22846783954448927,6839.32135065638
