时间(s),电压(V),幅值(高频80K)
0.0,-1.1605544898707834,5892.577613707324
0.004,-1.1672698240686796,5898.715574856993
0.008,-1.1696464308287475,5900.516550331335
0.012,-1.1645387596066472,5895.999956262758
0.016,-1.1508586811743153,5890.412996643227
0.02,-1.130063167945275,5892.4827483391655
0.024,-1.1059328872169787,5903.442469720116
0.028,-1.0836066714311705,5900.450420492103
0.032,-1.0681859559020146,5901.001028936954
0.036,-1.0633848034997886,5899.317010889955
0.04,-1.0705977063691632,5910.045291146527
0.044,-1.0885668095601893,5897.956206407598
0.048,-1.1136916834497999,5897.318283037208
0.052,-1.1409115013477231,5893.795863823822
0.056,-1.1649529600703108,5899.524095275082
0.06,-1.1816135486579575,5901.060710751296
0.064,-1.1887259599562576,5893.636420271974
0.068,-1.186566458525785,5905.764985936313
0.072,-1.1776353260454409,5907.63285040164
0.076,-1.1658334057736734,5902.462202762537
0.08,-1.1551557301458044,5896.138483745555
0.084,-1.148262116137083,5886.425025802932
0.088,-1.145531023614559,5892.935170829172
0.092,-1.1451037869821277,5903.509110692199
0.096,-1.143895472572444,5897.019996206802
0.1,-1.1389822168198545,5900.999190938415
0.104,-1.1286517387028716,5900.014646474968
0.108,-1.112779537876365,5904.833825073663
0.112,-1.0926845325501118,5904.467831256919
0.116,-1.0708080362357577,5884.4936815189885
0.12,-1.050376490308148,5893.912736803925
0.124,-1.0349581292450432,5904.151006296436
0.128,-1.0278395942265024,5895.160657662936
0.132,-1.0313793755189473,5891.081486686112
0.136,-1.0465872348841971,5910.454545304337
0.14,-1.0729936506194975,5909.35485664668
0.144,-1.1086689433072068,5911.326949262018
0.148,-1.1502795246619213,5900.999916936539
0.152,-1.1932445756169718,5893.352305053673
0.156,-1.2321270549516927,5898.859106096981
0.16,-1.2612829232630225,5896.866370888257
0.164,-1.275671067486203,5898.195377767527
0.168,-1.2717249946542983,5903.654246372172
0.172,-1.2482021462050403,5899.007611099978
0.176,-1.20682851812142,5905.914143124926
0.18,-1.1524396670322725,5905.554590063311
0.184,-1.0923727645456938,5908.081033396052
0.188,-1.0351186454349528,5901.807358569195
0.192,-0.9885601355973764,5895.938257933727
0.196,-0.9583247997643874,5900.003758498712
0.2,-0.9467595667176488,5893.154934596021
0.204,-0.9528264550028293,5899.309809749556
0.208,-0.9729245327700587,5895.060315613826
0.212,-1.0023244906197961,5905.088440342665
0.216,-1.0366542954557987,5895.888497152319
0.22,-1.072863621937157,5901.387458579368
0.224,-1.1093623177309626,5907.681684070338
0.228,-1.1454060418964378,5902.68083090521
0.232,-1.1801103750677715,5898.24014158718
0.236,-1.2116317947171686,5905.013113729057
0.24,-1.2370000568966522,5902.342578539219
0.244,-1.2528006518552395,5893.321009511121
0.248,-1.2564926137725534,5904.893898636376
0.252,-1.2477973014679722,5898.7558525056575
0.256,-1.2294732438751232,5890.981661792147
0.26,-1.2069709541603277,5902.595425871442
0.264,-1.186911786279762,5899.498555398365
0.268,-1.1749182799133597,5896.9223235814525
0.272,-1.1737387796343337,5901.545105077207
0.276,-1.1825170198182042,5899.862689913241
0.28,-1.1974405433931312,5893.789177130491
0.284,-1.2132930748277249,5894.227475227181
0.288,-1.2251289112258816,5895.645469674912
0.292,-1.2294831229111176,5898.706048038338
0.296,-1.2249315472379925,5907.321338328977
0.3,-1.2120832645566366,5888.1813038624805
0.304,-1.1931591764631932,5906.477273444783
0.308,-1.1713245170927211,5903.835301134985
0.312,-1.1499638021405727,5899.862629174631
0.316,-1.1320548837143112,5902.160677614901
0.32,-1.119724557729428,5894.148723358773
0.324,-1.114028706160644,5904.732074472471
0.328,-1.114988094215104,5898.97729306563
0.332,-1.121861605833802,5905.947735398929
0.336,-1.133546131728859,5898.999562310044
0.34,-1.1489223208476915,5896.80332358155
0.344,-1.1669913244699281,5893.715898033408
0.348,-1.186775470064118,5889.57837341372
0.352,-1.2071058296438733,5894.9596423970615
0.356,-1.2264934776916483,5896.610096356479
0.36,-1.2432270643193324,5909.370881036003
0.364,-1.2556783765723223,5905.562781877143
0.368,-1.2626443107226692,5907.526514776407
0.372,-1.2635509417620794,5900.091877212287
0.376,-1.2584919212482264,5904.5537769870525
0.38,-1.248200789692533,5894.903593032461
0.384,-1.2340436002600117,5903.0625859492975
0.388,-1.218005573902795,5895.00744220292
0.392,-1.2025406484549594,5894.991658365153
0.396,-1.1901627243658117,5893.818322721622
0.4,-1.1828304467537665,5900.351443393608
0.404,-1.1813854230471632,5898.661020473864
0.408,-1.1853321099485963,5900.688004444436
0.412,-1.1930685567189718,5892.870597144171
0.416,-1.2024650480506698,5898.810768390183
0.42,-1.211568041495076,5902.470107980108
0.424,-1.219172696411625,5894.138139499589
0.428,-1.225049877223872,5900.624015083141
0.432,-1.2297547978411507,5897.497056782914
0.436,-1.2341415381994647,5903.133395494329
0.44,-1.2388429267970453,5898.852683979844
0.444,-1.2439595290176975,5899.17797388344
0.448,-1.2490544822628178,5894.502027267354
0.452,-1.2533833680583826,5896.432460939778
0.456,-1.2562074441306565,5903.965471800632
0.46,-1.2570669357494537,5896.021784050305
0.464,-1.2559678034051858,5900.236333843766
0.468,-1.2534866500935222,5897.985938334614
0.472,-1.2507967533272708,5894.587358506936
0.476,-1.2495711118406023,5902.411150512487
0.48,-1.251665490028413,5906.310920343146
0.484,-1.2585274042234122,5888.283820169931
0.488,-1.2704776524123318,5893.531214979261
0.492,-1.2862276167979492,5901.404778293259
0.496,-1.302977277253414,5898.755606205802
0.5,-1.3171294493603418,5904.056275701537
0.504,-1.325298446540958,5899.46319566734
0.508,-1.32517636950912,5905.874318645289
0.512,-1.3159844155302391,5907.8003342265465
0.516,-1.2984752743800694,5904.870879545403
0.52,-1.274587011437573,5897.085159289825
0.524,-1.2468953779724947,5906.763751355448
0.528,-1.2180554262331653,5900.974626605933
0.532,-1.1904212951459892,5904.086817396221
0.536,-1.1659042435451865,5901.821427195618
0.54,-1.1459611086273207,5905.506218996637
0.544,-1.131556933818322,5906.067317349626
0.548,-1.1230361510420213,5896.081600824267
0.552,-1.119977068649418,5905.664474668685
0.556,-1.1211925853212756,5900.083486966628
0.56,-1.1249904348070585,5903.595014822732
0.5640000000000001,-1.129646177701946,5896.722081060654
0.5680000000000001,-1.1339207125885782,5910.898368009413
0.5720000000000001,-1.137435895136318,5905.185321726607
0.5760000000000001,-1.1407418947616745,5895.605017013977
0.58,-1.14498251072706,5900.31357075899
0.584,-1.1512604216390003,5902.962123400587
0.588,-1.1600142736278392,5902.027715936138
0.592,-1.1707363676838025,5893.505052991228
0.596,-1.182159462377227,5896.627500651314
0.6,-1.1927770035989667,5899.617662338018
0.604,-1.2013863135842542,5903.074215974039
0.608,-1.2073593418638626,5896.600724178335
0.612,-1.2105585720522456,5902.087046969835
0.616,-1.2110810213063963,5899.062664393923
0.62,-1.2091289944025578,5898.545667553522
0.624,-1.2051836466166115,5901.896063387792
0.628,-1.2003707902238,5899.455387298499
0.632,-1.1966625549923398,5900.74086948576
0.636,-1.1965769405749864,5898.80622161256
0.64,-1.2023543981629066,5905.457181908734
0.644,-1.2149714911382334,5892.510339903086
0.648,-1.2334937136528301,5902.054041142417
0.652,-1.2550867633518334,5899.270444168244
0.656,-1.275683188588157,5898.637303808503
0.66,-1.291059102090963,5898.793097185142
0.664,-1.2979555432976455,5893.382014901118
0.668,-1.2948439588439073,5905.904128138909
0.672,-1.2820477732781936,5904.23020020132
0.676,-1.2612307624784476,5901.2558693244655
0.68,-1.2345701533702296,5907.537751329434
0.684,-1.2040370275168275,5897.828446139296
0.6880000000000001,-1.1711083003186362,5895.877807718704
0.6920000000000001,-1.1370107343410014,5896.218928669405
0.6960000000000001,-1.1032859120185472,5896.5179333031865
0.7000000000000001,-1.0722290149554754,5892.122865365261
0.704,-1.0468256170433798,5899.664478883753
0.708,-1.0301478864486164,5898.76518748991
0.712,-1.02447529849627,5896.06010416809
0.716,-1.0305049430846345,5895.664877534178
0.72,-1.0469719664727666,5901.590390087461
0.724,-1.0708728020960938,5901.179726944204
0.728,-1.098272950765942,5892.65863993473
0.732,-1.1254384495282916,5897.750804500212
0.736,-1.1498663034711134,5894.874978034969
0.74,-1.1708019706424877,5889.792965713284
0.744,-1.1890445785131516,5910.994737390973
0.748,-1.2061578081055915,5899.618910064466
0.752,-1.2234571510245125,5900.8616091444965
0.756,-1.2412086205968391,5892.972305717515
0.76,-1.2583448927032483,5900.95004158559
0.764,-1.2727709174478008,5902.402375458943
0.768,-1.282104199704281,5898.231698502719
0.772,-1.2845641860527826,5889.566362390387
0.776,-1.2797234708470842,5898.916435906834
0.78,-1.268908787115898,5899.1505804961735
0.784,-1.2551079277952712,5908.061762466635
0.788,-1.2423004404336606,5896.518293302031
0.792,-1.234275101872604,5903.474294628823
0.796,-1.2332513847116073,5909.893913831387
0.8,-1.2388477150653558,5894.559062618924
0.804,-1.2479398506662929,5903.628990343882
0.808,-1.2556415829461842,5897.006116860838
0.812,-1.2571192962367457,5897.932279974071
0.8160000000000001,-1.24949421164101,5901.311863497649
0.8200000000000001,-1.2329839600258692,5896.931854092683
0.8240000000000001,-1.2107672935312972,5904.968716123556
0.8280000000000001,-1.1876352204560265,5906.874673625821
0.8320000000000001,-1.1680410151001832,5903.2435370150215
0.836,-1.154433414074237,5898.433049075973
0.84,-1.1465884880444788,5898.411409819885
0.844,-1.1421203194082037,5894.020624581422
0.848,-1.1377936145933243,5895.444144248585
0.852,-1.1310072629251793,5900.435542073729
0.856,-1.1209013061305897,5909.87151806042
0.86,-1.1087811132359302,5901.348462092949
0.864,-1.0977881547087194,5901.294629374042
0.868,-1.0919382933231785,5910.030745350853
0.872,-1.0948284247966356,5908.467811765186
0.876,-1.1084513793917985,5900.992144764839
0.88,-1.1325409251834244,5893.045163562317
0.884,-1.1646457149108125,5903.761294499345
0.888,-1.2008205648527954,5901.233901056519
0.892,-1.2365966371623731,5897.388209433792
0.896,-1.2678472757017238,5896.4506132418055
0.9,-1.291311640952606,5908.281710442493
0.904,-1.3047880146410127,5892.51875003332
0.908,-1.3071940366718724,5902.728027968102
0.912,-1.2986774818940083,5886.601974915006
0.916,-1.2807779658440515,5898.443443218232
0.92,-1.2564514758630274,5891.22826408466
0.924,-1.2297228327584162,5909.413707162227
0.928,-1.2048651093825122,5899.868988597097
0.932,-1.185267702869373,5896.526355444092
0.936,-1.172418033745932,5894.139992245696
0.94,-1.1654980158796415,5900.619581388336
0.944,-1.1618724137896599,5897.981497639739
0.948,-1.1583221088963607,5898.353014605259
0.952,-1.1524974820248122,5898.501835434283
0.956,-1.1439530648377607,5899.727690534433
0.96,-1.1343435941402662,5893.482450299942
0.964,-1.1267756181563695,5902.909920842377
0.968,-1.124656631459908,5900.610088551723
0.972,-1.1304990110731528,5894.275615117216
0.976,-1.1450459517014087,5895.752312924896
0.98,-1.166916693546146,5898.305941435149
0.984,-1.1928197178150544,5894.7645730829145
0.988,-1.218274287632648,5902.896550648094
0.992,-1.238673740843778,5905.65242492549
0.996,-1.25040907895589,5898.704033178775
1.0,-1.2517201590311477,5897.585768864731
1.004,-1.2430325385483303,5897.550402548544
1.008,-1.2267406857210756,5906.041006072374
1.012,-1.2065964259944177,5895.351471162347
1.016,-1.1869619536847795,5905.558341140386
1.02,-1.1721398063519204,5891.655217729091
1.024,-1.1658161440977264,5896.445736364984
1.028,-1.1705071344199822,5905.971150789885
1.032,-1.1869530938771466,5892.78408359881
1.036,-1.2136161370073195,5895.4164092492365
1.04,-1.2465887882604032,5911.819735574765
1.044,-1.2801578767256925,5902.544579264976
1.048,-1.3079985532290996,5901.338328230203
1.052,-1.3246471477465669,5907.894592019986
1.056,-1.326731627509359,5891.051310188619
1.06,-1.3135516981082684,5895.759977228151
1.064,-1.2869174540677657,5911.035130938632
1.068,-1.250456420020892,5901.97078399858
1.072,-1.2087246461340067,5899.113027152292
1.076,-1.1664047376721072,5902.339821609605
1.08,-1.1277280376829846,5910.774108789288
1.084,-1.0961195662445775,5899.679818458388
1.088,-1.0740023357978414,5898.644402707092
1.092,-1.062708938881072,5894.950678008872
1.096,-1.0624811331257935,5900.726022298353
1.1,-1.0725552500957944,5895.761334914592
1.104,-1.091320861270301,5898.344391778084
1.108,-1.1165139722699386,5893.937731191
1.112,-1.145395474752561,5906.33235493025
1.116,-1.174892461559442,5907.859605318412
1.12,-1.2017492141656951,5899.838914025194
1.124,-1.222811136696491,5899.66987008914
1.128,-1.2355432081826838,5892.150252352632
1.132,-1.2387023380178372,5902.436571345943
1.136,-1.232856319264455,5904.76600915124
1.14,-1.2203740182607659,5903.126785539792
1.144,-1.204708274209305,5898.285896725333
1.148,-1.18918243906236,5899.684806515123
1.152,-1.1758328304116843,5905.460623138641
1.156,-1.1648919943004825,5896.081011346471
1.16,-1.155171237110051,5899.561406284805
1.164,-1.1451162354878808,5904.20333837803
1.168,-1.1339469976002354,5900.512534396842
1.172,-1.122261798682084,5893.916090615169
1.176,-1.1118210695864366,5895.052187883213
1.18,-1.104713138155147,5897.718728857586
1.184,-1.1023923572228624,5892.530333003491
1.188,-1.105022413447354,5900.72668891117
1.192,-1.1113129248900333,5903.172778264266
1.196,-1.1188364475088288,5902.856910278431
1.2,-1.12472933917262,5898.991205872414
1.204,-1.1266373566484456,5899.717299486172
1.208,-1.1236755962491856,5900.735680203043
1.212,-1.1170539794788732,5896.689466175525
1.216,-1.1100178361644388,5905.02945912727
1.22,-1.1069822263277225,5907.171402262834
1.224,-1.112117723856767,5899.472116572137
1.228,-1.1279333409777232,5887.17412539504
1.232,-1.1543953135758993,5899.195215742281
1.236,-1.188817459115801,5909.930636454572
1.24,-1.2263884346380052,5907.181037087242
1.244,-1.2610488776404107,5907.028257782249
1.248,-1.286539211589268,5903.344808009089
1.252,-1.2975614267763707,5904.213347871343
1.256,-1.2909430758124099,5898.67950353499
1.26,-1.2665459740040759,5907.581325612727
1.264,-1.2276147357042024,5896.913159624139
1.268,-1.1803738218233586,5895.419025945778
1.272,-1.1328873125555372,5895.291993749396
1.276,-1.093399742952258,5894.862480213578
1.28,-1.0685271902265874,5895.034224787399
1.284,-1.0617461942517383,5895.577909596079
1.288,-1.0726077783318615,5899.839524881216
1.292,-1.0969484591810643,5898.369657445705
1.296,-1.1280848457142079,5895.571107323435
1.3,-1.1586484077599208,5893.6489195905015
1.304,-1.1824796066855778,5899.073612580424
1.308,-1.1959907047948726,5897.05638981935
1.312,-1.1986650915668817,5893.200718769608
1.316,-1.1927293532856975,5892.828702680572
1.32,-1.1822559382694424,5900.787227597896
1.324,-1.1719541596602405,5902.776891566442
1.328,-1.1658460386615375,5904.802301508261
1.332,-1.1660582830044466,5909.679950993006
1.336,-1.1720690974023145,5896.430411372144
1.34,-1.1807712625991829,5898.930932307989
1.344,-1.1875189109789988,5899.874859569974
1.348,-1.1879400627975112,5896.506415619419
1.352,-1.1799033495946227,5905.620032219262
1.356,-1.1648408679157358,5892.219041567444
1.36,-1.1477755518469757,5900.944550574392
1.364,-1.1358664766142847,5892.826742194721
1.368,-1.135899566011534,5909.396562623744
1.372,-1.1516340892721977,5900.7021671666735
1.376,-1.182027942435691,5895.87888959352
1.38,-1.2210551481029754,5900.456180532114
1.384,-1.2592368321104328,5898.439400565147
1.388,-1.2863772322556886,5895.901240476674
1.392,-1.294586369376614,5902.3652386204985
1.396,-1.2806298355820949,5902.175649545882
1.4,-1.2469229553523535,5906.500241510753
1.404,-1.2009052291525673,5895.013699236089
1.408,-1.1529712254827604,5900.190371480405
1.412,-1.1135582644082593,5905.849851829361
1.416,-1.0902845855259051,5901.493945428529
1.42,-1.0860084408840798,5894.208997572793
1.424,-1.0983362766819995,5891.196264717455
1.428,-1.1206592046541353,5900.630461894156
1.432,-1.1443807837163618,5903.216310390138
1.436,-1.1616255237315967,5902.956413766186
1.44,-1.1675045350983586,5909.045310239376
1.444,-1.1611681660198017,5907.512713623539
1.448,-1.1453896639319245,5896.61466890156
1.452,-1.1250222519634825,5901.355759390461
1.456,-1.1050588254792517,5897.391768150893
1.46,-1.089075259932127,5904.624726308151
1.464,-1.0785885287495045,5897.110765876978
1.468,-1.0734222969552836,5897.560876270521
1.472,-1.072718177197585,5909.472821502703
1.476,-1.0759788113440765,5896.748283938162
1.48,-1.0836160394919283,5893.960458965686
1.484,-1.0968173618476411,5901.051157641447
1.488,-1.1168940268123653,5910.357275839181
1.492,-1.1444505674725542,5894.207162496048
1.496,-1.178709601883947,5903.813525471639
1.5,-1.2172310605788055,5909.17473413923
1.504,-1.2561338266208242,5907.377789181659
1.508,-1.2907573904066665,5903.862908861813
1.512,-1.3165512155935166,5896.944671400051
1.516,-1.3299557694126318,5897.941339435548
1.52,-1.3291309807357636,5898.171446248653
1.524,-1.3144578979465726,5901.534247004355
1.528,-1.2887051294029477,5893.4420744354165
1.532,-1.256701330005084,5896.875876171015
1.536,-1.2244370717706636,5908.005836925225
1.54,-1.1977357480541224,5899.625898701182
1.544,-1.1808283552900156,5895.646494846632
1.548,-1.1752351480239471,5899.455107191825
1.552,-1.1793218216495858,5890.937850735541
1.556,-1.1887644170191485,5897.382550998084
1.56,-1.1978759071308223,5893.950789684228
1.564,-1.2013904891947997,5894.8324710382685
1.568,-1.196089410930996,5898.688116744852
1.572,-1.1817268504210119,5891.965033369329
1.576,-1.1610119447818958,5907.299045659143
1.58,-1.1387454217834838,5901.5236167668745
1.584,-1.12043340046896,5897.70928013798
1.588,-1.1107602424680765,5895.044293108716
1.592,-1.1122867758612547,5902.616558604804
1.596,-1.124725130266471,5903.28693365744
1.6,-1.145047673299123,5897.952947260383
1.604,-1.168417718042685,5899.908062634263
1.608,-1.189591605752009,5907.779059302286
1.612,-1.2042704790712528,5900.5089062372745
1.616,-1.2099803254946155,5893.181346179364
1.62,-1.2063341292313194,5904.694887959462
1.624,-1.1947948066146277,5898.201459259155
1.628,-1.1781765801802044,5895.132437718532
1.632,-1.1600806592810016,5893.675263652438
1.636,-1.1443241732328597,5903.800118083539
1.64,-1.1343052388992043,5897.921365206423
1.644,-1.1322954607943996,5908.56508708115
1.648,-1.1388602378269608,5901.555179044519
1.652,-1.152729148153033,5902.911669955966
1.656,-1.1712658289885411,5896.68816272269
1.66,-1.1913460897334178,5899.740318203622
1.664,-1.2102416228874762,5903.931464775748
1.668,-1.2261503595908294,5895.340135908806
1.672,-1.2382230806525252,5900.5639941967
1.676,-1.2461714919456008,5903.363055885662
1.68,-1.2497201581509516,5903.145995867911
1.684,-1.2482452367975,5904.594339437875
1.688,-1.2408898746626693,5896.926347501247
1.692,-1.227218756786902,5902.926127417305
1.696,-1.2081259634663635,5907.39116948745
1.7,-1.1864569933298392,5904.599475555848
1.704,-1.1668755218663867,5905.170291724484
1.708,-1.154883125875483,5901.566343552194
1.712,-1.155311511246532,5895.087906051284
1.716,-1.1707933534540016,5900.659494120106
1.72,-1.2006584027775387,5902.349839079141
1.724,-1.2405467337295626,5895.731354940591
1.728,-1.2828961172973536,5892.336251260542
1.732,-1.3183203024219832,5890.699828043155
1.736,-1.3376709236217956,5896.031977932023
1.74,-1.334301540054994,5903.104827688259
1.744,-1.305896575225405,5899.871211671184
1.748,-1.2553195332303053,5902.412547286888
1.752,-1.1902349413178048,5904.85963473509
1.756,-1.1216254084566162,5899.503273127226
1.76,-1.0616025906820543,5903.974352058721
1.764,-1.0209955061430527,5898.446433587306
1.768,-1.0071547789900068,5901.740741461755
1.772,-1.0223906821657351,5901.679594092938
1.776,-1.0634373498594123,5896.627550669295
1.78,-1.122121013878827,5891.57209531433
1.784,-1.1870224776826959,5904.25699998944
1.788,-1.2456441339781632,5902.650649862483
1.792,-1.2866010597101805,5904.200531985185
1.796,-1.3015232073839371,5901.901610644803
1.8,-1.286469247852854,5897.039580861717
1.804,-1.2426899328509287,5896.061862896631
1.808,-1.1766511268296613,5905.489676438978
1.812,-1.0993613563262,5895.230647467392
1.816,-1.0251372700887758,5906.22764122238
