时间(s),电压(V),幅值(高频80K)
0.0,-1.903593416810851,5897.075101962647
0.004,-1.8092395108413553,5902.25936135308
0.008,-1.728507058007075,5908.84739702896
0.012,-1.671537406278964,5891.458548873715
0.016,-1.643364912252087,5899.676413346947
0.02,-1.6430674600415536,5890.761808908238
0.024,-1.6642712985622377,5888.434005179023
0.028,-1.6968829886160794,5897.1996369114495
0.032,-1.7296435453752264,5910.640988681495
0.036,-1.7528522843793426,5901.262410344451
0.04,-1.7605191482441027,5896.295346959241
0.044,-1.7513616659064415,5896.512828435125
0.048,-1.7284378593025151,5905.90181443169
0.052,-1.6976673775049358,5895.8830926389055
0.056,-1.66582174439076,5907.867393387257
0.06,-1.6386064710887973,5900.61555343079
0.064,-1.6192979322026197,5900.241955358668
0.068,-1.6082204998159828,5903.789034823859
0.072,-1.603155847069229,5894.29666375591
0.076,-1.6004810187396867,5900.20282377776
0.08,-1.5965632569967398,5893.857927646411
0.084,-1.5889347634665005,5903.033820102227
0.088,-1.5770065325487976,5903.255608621645
0.092,-1.5622815727274795,5899.5869534991125
0.096,-1.5480439716552894,5889.949052101821
0.1,-1.5384832848040504,5899.244132233949
0.104,-1.537376656262172,5909.634987340545
0.108,-1.5467573875753218,5902.646786270012
0.112,-1.5661524990705966,5895.160130599185
0.116,-1.5927296038396965,5893.776317650211
0.12,-1.622187605719121,5894.917171239912
0.124,-1.6498873976728987,5906.177288133882
0.128,-1.6718020818498653,5901.660225773127
0.132,-1.6851653352118041,5895.884375337883
0.136,-1.6888473764609468,5894.859449526196
0.14,-1.6834313387722313,5901.470526457835
0.144,-1.6709338143183434,5903.0789196073765
0.148,-1.6542450601463479,5897.210256330008
0.152,-1.636518765676319,5898.792913873561
0.156,-1.6207308851614852,5900.12465204451
0.16,-1.6094466058300392,5907.455926494697
0.164,-1.6046599547659413,5908.535688522693
0.168,-1.6075723072610988,5891.716135913301
0.172,-1.6183316419955176,5905.58031285176
0.176,-1.6358889104008902,5907.514183443791
0.18,-1.6581233006291936,5888.421072305624
0.184,-1.6822653173680053,5900.303529479647
0.188,-1.7054902943093484,5904.16456250712
0.192,-1.7254570839140755,5901.707796049383
0.196,-1.7405971725224292,5896.808272471857
0.2,-1.7501093810980233,5906.740465792527
0.204,-1.7537853496670799,5898.304403867415
0.208,-1.7518744604783567,5896.64019787834
0.212,-1.7451393304007263,5914.942538554448
0.216,-1.7350522056115318,5901.602066103688
0.22,-1.7238505219037448,5905.050775583727
0.224,-1.7141367216178738,5889.815911316868
0.228,-1.7079797716825806,5907.858297933019
0.232,-1.7058702776898809,5901.306252705606
0.236,-1.7061160622469076,5887.612888481838
0.24,-1.7051706365039954,5901.350615898519
0.244,-1.6989450254233096,5890.468946523803
0.248,-1.6845778333438164,5897.258087490107
0.252,-1.6618261968315104,5901.83206282695
0.256,-1.6334099459535425,5908.050826404536
0.26,-1.6041348649912466,5897.462791025296
0.264,-1.5791544067739356,5904.029984436696
0.268,-1.5621159899217252,5899.299232552577
0.272,-1.5540166433162288,5897.022945970045
0.276,-1.5532428387920028,5896.98869024542
0.28,-1.5566386931029594,5900.174262690223
0.284,-1.5609502879226962,5906.352594587233
0.288,-1.563948496149967,5901.486789267291
0.292,-1.5648760630629397,5897.088539615535
0.296,-1.5642824813730032,5892.574404085038
0.3,-1.5635492239659918,5898.9956314824085
0.304,-1.5644027880556066,5894.655215219432
0.308,-1.568533782018624,5903.833319540722
0.312,-1.5772513007887652,5897.00161575533
0.316,-1.5910757494637207,5897.332455514244
0.32,-1.6093198854974426,5910.444836614635
0.324,-1.629858491839551,5894.315829526615
0.328,-1.649305636520681,5902.616834901043
0.332,-1.6637110769362606,5893.891525137508
0.336,-1.6696887724021585,5899.60542264308
0.34,-1.6656391007510234,5904.739675655962
0.344,-1.65256495388741,5898.086166935358
0.348,-1.6340693525976326,5899.196058839473
0.352,-1.615438246493017,5900.570257438865
0.356,-1.6020796191628712,5898.999726598447
0.36,-1.5978475324525268,5907.645044474545
0.364,-1.603854959636682,5899.231975771382
0.368,-1.6182367023949178,5892.496510385668
0.372,-1.6369511369834675,5894.18526824131
0.376,-1.6552344876393625,5895.174979832856
0.38,-1.66903610637174,5897.106470234809
0.384,-1.6758813949595115,5898.232839229369
0.388,-1.6750372610593072,5894.521329322144
0.392,-1.667257475776556,5902.34414542417
0.396,-1.6544567393169514,5902.299915077128
0.4,-1.6394116657074667,5895.389076091441
0.404,-1.6253406911266584,5901.3997358721
0.408,-1.6152407397472501,5899.067019505112
0.412,-1.611084952443531,5897.629219163721
0.416,-1.6131707700657048,5896.752145315194
0.42,-1.6199165158218616,5901.112545951202
0.424,-1.6282546482614457,5904.503566314123
0.428,-1.6345425487082874,5906.2897447849
0.432,-1.6357058512606286,5903.645460849386
0.436,-1.630243434502116,5892.769157223308
0.44,-1.6187889637761774,5902.079584075561
0.444,-1.604065256917764,5902.927534256133
0.448,-1.5902045437244452,5904.234387945306
0.452,-1.5815589761237767,5893.173661784237
0.456,-1.5813209211243662,5896.973391616219
0.46,-1.5904187886446253,5894.804314002323
0.464,-1.6071083715020573,5890.89583614488
0.468,-1.6274296233159344,5899.687195184188
0.472,-1.6463801153745947,5892.296722215689
0.476,-1.6594167663821198,5901.276988960292
0.48,-1.6638138142975953,5893.0624398312
0.484,-1.6594883853425004,5900.482239740221
0.488,-1.6491015029186464,5899.516728925338
0.492,-1.6374409470594384,5896.487087572595
0.496,-1.6302225709198561,5897.587674052154
0.5,-1.6325651751534445,5906.275981977493
0.504,-1.64754514105161,5896.365471082856
0.508,-1.6752875406948005,5899.742732919823
0.512,-1.712868022290301,5897.014472211432
0.516,-1.7549924296613089,5894.333028752677
0.52,-1.795195218675138,5891.033123159573
0.524,-1.8272147694038081,5897.799184414105
0.528,-1.8462235306615356,5906.726937581731
0.532,-1.8496885950100521,5903.52755985882
0.536,-1.8377608119319477,5908.159891481499
0.54,-1.8131516811017792,5900.137898630263
0.544,-1.78046972973249,5901.110721217307
0.548,-1.745074728356283,5903.040183669746
0.552,-1.7117136580665662,5895.435089988928
0.556,-1.683390568858647,5898.742540068844
0.56,-1.6609079787507433,5909.128578248281
0.5640000000000001,-1.643253533495575,5894.457860142801
0.5680000000000001,-1.6286290449483374,5897.6335093423495
0.5720000000000001,-1.6156336600953196,5896.913608400148
0.5760000000000001,-1.6040541406568085,5898.287091110867
0.58,-1.594918701531144,5890.847280687545
0.584,-1.589866554597323,5898.0443758288775
0.588,-1.5902528118336543,5889.700743813984
0.592,-1.5964795833940142,5899.584701621243
0.596,-1.6077814852198495,5887.932369034295
0.6,-1.6223632186210366,5895.726685519622
0.604,-1.6376629812028216,5901.8656535862165
0.608,-1.6506239064725148,5895.882684726551
0.612,-1.6580389885380251,5898.742220704771
0.616,-1.657110798723904,5899.590628100057
0.62,-1.6462232297054555,5900.487771933646
0.624,-1.6256515917375731,5903.354065527827
0.628,-1.5978291197629222,5898.909951113668
0.632,-1.5669830746623268,5902.669006585867
0.636,-1.5382411886253091,5898.476965083565
0.64,-1.5164498192075941,5902.322882579648
0.644,-1.5049827486225056,5902.825629436914
0.648,-1.5048785627978487,5902.225550664315
0.652,-1.514639671639973,5900.296682126182
0.656,-1.530810065864012,5898.853215274213
0.66,-1.5491128392388036,5893.612895214068
0.664,-1.5657217191895694,5905.116698018909
0.668,-1.5782575762421185,5891.265121491389
0.672,-1.586240505252098,5897.306100322913
0.676,-1.5909103388139163,5892.729032290392
0.68,-1.59454636147502,5898.768706053244
0.684,-1.5995999199047686,5909.888130912107
0.6880000000000001,-1.6079824268082368,5898.493739970809
0.6920000000000001,-1.620716600102589,5905.16232371032
0.6960000000000001,-1.637951651323771,5896.395187057049
0.7000000000000001,-1.6591526852212577,5898.385045961971
0.704,-1.6832104152391922,5896.3709211408295
0.708,-1.7083608738234544,5904.642093424733
0.712,-1.7320484816578596,5897.446335461331
0.716,-1.7509933561864328,5907.126501645729
0.72,-1.7616491934021368,5895.053515556871
0.724,-1.7610233712433703,5903.781858603843
0.728,-1.7475904549249004,5897.491636444093
0.732,-1.7219151679211866,5896.606979439436
0.736,-1.6867185427228677,5896.597216919843
0.74,-1.6463963001504345,5899.28911350018
0.744,-1.6062077715127994,5901.924406745575
0.748,-1.5713565315965934,5897.507940746607
0.752,-1.5460879641342553,5900.41335927446
0.756,-1.5329335856131243,5904.902447243255
0.76,-1.5323259928212292,5894.381564334819
0.764,-1.5427756462772593,5893.171934022983
0.768,-1.561547059995594,5899.925952749642
0.772,-1.5854899864657084,5902.110076095925
0.776,-1.611623573884019,5893.077052782893
0.78,-1.637272172572276,5898.093033166072
0.784,-1.659850923421396,5901.571545625592
0.788,-1.6766301599284488,5907.070431880457
0.792,-1.6848529272308777,5897.183947507709
0.796,-1.6823791779095052,5905.481991722587
0.8,-1.6686623871243669,5895.115651379547
0.804,-1.645554166644713,5897.402719089285
0.808,-1.6174042011386298,5900.006450428163
0.812,-1.590239301423206,5901.956415122646
0.8160000000000001,-1.5702871273055006,5904.477233985373
0.8200000000000001,-1.5624249061976858,5897.054906219447
0.8240000000000001,-1.5690815971452485,5898.51427573974
0.8280000000000001,-1.5898210981355756,5901.942600054214
0.8320000000000001,-1.6215542662771443,5904.482679511131
0.836,-1.6592143325666582,5895.998353570462
0.84,-1.696736211238181,5903.106124566707
0.844,-1.7281858389959843,5901.812884707973
0.848,-1.7488447102042532,5899.901228201265
0.852,-1.756034976357167,5901.317884362122
0.856,-1.749538422724355,5901.405608626102
0.86,-1.7315642439484775,5900.601125470582
0.864,-1.7062739616744027,5896.693820350892
0.868,-1.678919163267129,5913.404406297088
0.872,-1.6547589328876913,5902.762598269014
0.876,-1.638032522246658,5900.275489248818
0.88,-1.6312523681478477,5900.87665836234
0.884,-1.6349517027108749,5896.705579454315
0.888,-1.6478722211848196,5911.550368482742
0.892,-1.6674826394347106,5899.103549779064
0.896,-1.6906454179964345,5898.96104598253
0.9,-1.7141780734461887,5902.394491887967
0.904,-1.735105087812249,5894.217629129791
0.908,-1.7506382638084805,5897.981246767064
0.912,-1.7581743818629894,5897.193696766685
0.916,-1.7556006097714647,5891.399039489192
0.92,-1.7419308523408665,5907.484960567278
0.924,-1.7179923606463245,5900.509920875319
0.928,-1.6867693218600865,5901.507331054934
0.932,-1.6531261015249847,5903.029493065415
0.936,-1.6228836308209227,5910.145695780746
0.94,-1.6014985453894035,5893.570140535247
0.944,-1.5927776284446322,5889.35103270046
0.948,-1.5980526279436655,5896.841006074965
0.952,-1.6160486083178178,5904.425614958374
0.956,-1.6433992507040582,5898.311150192752
0.96,-1.6755149349018414,5906.083736216381
0.964,-1.7074168814686375,5905.074599270164
0.968,-1.734286330609577,5899.229327416245
0.972,-1.7517633442961538,5900.27788792011
0.976,-1.756245875931327,5903.11285116302
0.98,-1.7454031719069378,5899.926733830121
0.984,-1.718857660735178,5902.854197486457
0.988,-1.678737998224297,5894.164925648839
0.992,-1.6297855654378384,5895.3972227030135
0.996,-1.5788991539783548,5892.720712999688
1.0,-1.5342099574239798,5898.695706312684
1.004,-1.5038277637271786,5891.377182025166
1.008,-1.4943628960319528,5898.825859704578
1.012,-1.5093880299719196,5896.706846976576
1.016,-1.5481901812628753,5905.195064691886
1.02,-1.6053022591954202,5901.4497663251295
1.024,-1.6712047913713117,5897.4474117338805
1.028,-1.7342307545191253,5887.100089716613
1.032,-1.7832481326223335,5896.803896659646
1.036,-1.8103513833617881,5897.739007581457
1.04,-1.8127285763540812,5896.0852451835135
1.044,-1.7931336952812291,5893.422412607321
1.048,-1.7588710855176153,5902.738252169647
1.052,-1.7196682672081545,5904.668931378128
1.056,-1.685080188096623,5895.232241114004
1.06,-1.6620806322926869,5903.266283728785
1.064,-1.6533643480680371,5887.578410569953
1.068,-1.6567424873108396,5905.6224771723
1.072,-1.6658474800268592,5894.654208287818
1.076,-1.6720580635959366,5901.152492009548
1.08,-1.6671434460685264,5900.4215999035405
1.084,-1.6458476082882667,5902.97919904885
1.088,-1.607700129327885,5892.597577869374
1.092,-1.5576856410951736,5903.28333739418
1.096,-1.5057591840711502,5902.635707940043
1.1,-1.4653542476664172,5894.927450911175
1.104,-1.450998175603832,5894.682871907726
1.108,-1.4750837624464221,5899.028463249593
1.112,-1.5439512216945748,5906.327869746381
1.116,-1.6538112173863955,5908.099533008108
1.12,-1.7875258492797146,5904.12111139809
1.124,-1.9135224438790148,5903.29077760686
1.128,-1.98794041086668,5900.269049001479
1.132,-1.9605505689573783,5905.390293495661
1.136,-1.7841438195749793,5901.898689331871
1.14,-1.426011584828101,5910.366504733152
1.144,-0.8789723634895279,5910.496891660787
1.148,-0.16852052129929743,5903.074524133619
1.152,0.6472881114968916,5894.975908980121
1.156,1.486985150627212,5885.497389320158
1.16,2.2623953409219113,5897.741887964103
1.164,2.8978887696309856,5921.472783605859
1.168,3.345714878645814,5937.117590208987
1.172,3.592807545204658,5949.217084008464
1.176,3.658288029804924,5962.144680152836
1.18,3.584196719918594,5980.805157203078
1.184,3.423312996730649,6000.065988642084
1.188,3.2274964074675245,6009.770516416579
1.192,3.038793167481365,6020.46438501733
1.196,2.8843782877146897,6036.479743993626
1.2,2.775478674819208,6050.679559678256
1.204,2.7096995780803637,6059.766667107393
1.208,2.675635019985781,6068.958395584952
1.212,2.658338369552973,6088.583292827225
1.216,2.644238219489482,6099.722532066397
1.22,2.624429155504424,6107.917618480428
1.224,2.595848636337714,6123.434643540641
1.228,2.5604771221340616,6136.750794112041
1.232,2.5231837602986853,6140.874790246004
1.236,2.4890890915814428,6157.31801833497
1.24,2.4613245867944333,6163.655762854588
1.244,2.439866164903148,6177.809789968018
1.248,2.4217277577347187,6182.589278576551
1.252,2.4022771044393467,6193.081894199408
1.256,2.376979244333098,6201.106828584271
1.26,2.3427834276365918,6203.909621322644
1.264,2.2987310787232476,6234.705931507365
1.268,2.2458646770769497,6233.105241162139
1.272,2.186753437569476,6244.977098357065
1.276,2.124856962322501,6248.146965783321
1.28,2.0638046339108884,6266.426636775151
1.284,2.006690216101064,6258.8705036236615
1.288,1.9555746667818312,6278.5517648901605
1.292,1.9113728084913093,6288.8678358422085
1.296,1.8741415689942411,6299.937479893541
1.3,1.8435779720682774,6310.6167279786605
1.304,1.8193971899023245,6313.914940122259
1.308,1.8013223134237766,6316.466780334186
1.312,1.7886949128719167,6321.996700434816
1.316,1.7800193188210964,6344.853431382746
1.32,1.7728319441893152,6337.751842309944
1.324,1.764079979114135,6348.12908475764
1.328,1.7508747854009745,6351.538585192081
1.332,1.731276706330959,6366.493285909634
1.336,1.7047843952667117,6359.501969657202
1.34,1.672402663184591,6376.132857707373
1.344,1.6363699973503048,6384.184663033372
1.348,1.5996810276740616,6375.834032581345
1.352,1.565488481950674,6399.926501690371
1.356,1.536468380358741,6405.398480233747
1.36,1.5142819432688157,6406.521902358923
1.364,1.4992410546221073,6408.720396567983
1.368,1.4901707852053634,6415.83705376455
1.372,1.484408625492298,6414.940195444021
1.376,1.4779784552202424,6428.3028866899485
1.38,1.4661153043512327,6419.717434186488
1.384,1.4442803187737632,6433.806666510783
1.388,1.4095201016160974,6445.266204333889
1.392,1.361679539023642,6446.819953477702
1.396,1.3038857964328145,6452.407924825324
1.4,1.2420184821759657,6457.546861730019
1.404,1.1833622109513027,6463.29715129841
1.408,1.1349517217692464,6469.768415754231
1.412,1.1021046195384294,6464.610205946089
1.416,1.08742000843984,6473.193382353929
1.42,1.0903338811000818,6469.52842636946
1.424,1.107261354341496,6472.356975019802
1.428,1.1323189405223855,6476.391742228232
1.432,1.1584877521942283,6485.655875635548
1.436,1.1789189283695702,6495.137014551803
1.44,1.1880629219587608,6503.579910155171
1.444,1.1824481418493349,6501.402349927441
1.448,1.161095201156349,6509.246394887015
1.452,1.1255966744489265,6506.93212781679
1.456,1.0798304992487338,6513.9787051967005
1.46,1.0292458985205388,6518.387384985525
1.464,0.9797811444462877,6523.972524370236
1.468,0.9366811521989609,6530.585092400036
1.472,0.9035852748096238,6528.38821042864
1.476,0.8821443284526156,6529.878675681495
1.48,0.872172412226046,6531.2559163470605
1.484,0.8721073308054977,6534.544403846751
1.488,0.8794938506503074,6539.61035130243
1.492,0.891333774977994,6539.718349371263
1.496,0.9043140254127383,6545.547932377327
1.5,0.9150017532846136,6557.020510462228
1.504,0.9201212992039637,6553.425975513764
1.508,0.9170286003598074,6555.277393346976
1.512,0.9043746545640416,6552.561327064805
1.516,0.8827023255708588,6567.577288961621
1.52,0.8545867413035184,6559.8183707950575
1.524,0.8240949328704458,6568.968728347821
1.528,0.7956877793803826,6571.021851295855
1.532,0.7729655150634309,6570.801840251279
1.536,0.7577400068017405,6565.188361167132
1.54,0.7497961714261708,6575.463640278305
1.544,0.7474125965852036,6572.161206187423
1.548,0.7483574348110635,6583.579963148489
1.552,0.7508603443645212,6583.628267060362
1.556,0.7541252162205153,6582.981250351578
1.56,0.7582287256300443,6584.887610945949
1.564,0.7635457681262742,6591.169027404777
1.568,0.7700117434326746,6592.312167403556
1.572,0.776568783854292,6581.3462049091695
1.576,0.7810828346911434,6586.42637362847
1.58,0.7808482282017634,6606.603856536349
1.584,0.7735235985337982,6596.512848411459
1.588,0.7580933828047441,6605.481898956778
1.592,0.735409851717497,6602.78942640987
1.596,0.7080967232031521,6605.842530538483
1.6,0.6799158952070885,6603.379191397524
1.604,0.6548879997701093,6609.626406585923
1.608,0.6364551596471931,6608.659625012812
1.612,0.6268659288287476,6611.701129015356
1.616,0.6268431595417051,6611.44490262656
1.62,0.6355271223270573,6614.310193634252
1.624,0.6506714156715313,6616.75138739002
1.628,0.6690443379403316,6619.263486006005
1.632,0.6869393951739038,6620.486174825254
1.636,0.7007115936674765,6615.064359742249
1.64,0.7073464311139231,6619.320676969806
1.644,0.7050905460720129,6625.573149718735
1.648,0.6940196765926785,6628.835223147518
1.652,0.6762194505873248,6630.405549437705
1.656,0.6552749717971876,6633.549496384103
1.66,0.635107110495106,6630.908447091102
1.664,0.6186163943270786,6627.018208334523
1.668,0.606738315252704,6634.645584700031
1.672,0.5982904951746466,6628.890809647097
1.676,0.5906274504305877,6628.857034134883
1.68,0.5808172578686116,6627.586685999727
1.684,0.566860604089771,6640.998440842378
1.688,0.5484435347392465,6636.136902142283
1.692,0.5269363479074616,6634.4045779634325
1.696,0.5047274262468465,6631.514294378054
1.7,0.4842540511242465,6629.187425495058
1.704,0.46713530594469915,6642.037845232534
1.708,0.4537206484616241,6639.743873819606
1.712,0.4432170847648091,6639.405857009004
1.716,0.4343123533410998,6628.365922282237
1.72,0.4259500393866118,6656.126520473697
1.724,0.4178566989754895,6646.162012408445
1.728,0.4106293971826018,6645.798482677194
1.732,0.4054540334022347,6648.093873435166
1.736,0.4036240903771184,6642.049422541247
1.74,0.4059837519719121,6648.76345448686
1.744,0.4124138010117144,6652.762036213863
1.748,0.42156749196468063,6656.831053784031
1.752,0.43105129595035685,6652.703413615531
1.756,0.4380085855998098,6653.773569390575
1.76,0.43981288776159266,6652.862199271071
1.764,0.43457984635997854,6655.904346831605
1.768,0.42143690154767416,6654.453237833849
1.772,0.4007005141629064,6665.565209200442
1.776,0.3741053763138839,6649.723457017958
1.78,0.3450082476712048,6656.860532062441
1.784,0.3182673545754407,6657.138297057138
1.788,0.29954227169594344,6652.618524581823
1.792,0.29408146857165685,6657.510939951946
1.796,0.3053835427175203,6657.089001929676
1.8,0.33417985927188026,6665.054337000001
1.804,0.3780139481609975,6665.655355685193
1.808,0.4314885326620201,6647.977194795543
1.812,0.48713602119900645,6668.979136541748
1.816,0.5367879317792653,6657.6679553253525
1.82,0.5731991331264511,6653.425686981351
1.824,0.591563536180571,6663.7218840762725
1.828,0.5905222434029425,6659.0740798351335
1.832,0.5723542623911664,6658.616159742815
