时间(s),电压(V),幅值(高频80K)
0.0,-0.9083915448192231,5899.898925334996
0.004,-0.9720980559942042,5904.41647046653
0.008,-1.0255678786061044,5899.107253266352
0.012,-1.0606988774590989,5890.177062898598
0.016,-1.0730649797701495,5895.778889292888
0.02,-1.0627683498176834,5895.077472555223
0.024,-1.0341024868923485,5905.064373003436
0.028,-0.9942096148842919,5897.405631594993
0.032,-0.9512836925579877,5896.831961246547
0.036,-0.9128993157983545,5901.290092427779
0.04,-0.8847554932759142,5905.24184100992
0.044,-0.8698548407121589,5898.847483730219
0.048,-0.8681496895030532,5901.614477391546
0.052,-0.8768083820106776,5899.801887180785
0.056,-0.891159433680949,5896.1175727256
0.06,-0.9060635200963215,5899.775665798677
0.064,-0.917264296243045,5901.593818159089
0.068,-0.9223429467074075,5899.965129003364
0.072,-0.9210843881911835,5899.0217359584
0.076,-0.9152126220585212,5897.49103243445
0.08,-0.9076327336852423,5899.079022611748
0.084,-0.9015303962153582,5905.558449466019
0.088,-0.8997393242402193,5903.799315551793
0.092,-0.9045576714792051,5903.223364009752
0.096,-0.9177924405642514,5899.254039596863
0.1,-0.9405701968364408,5885.212836643038
0.104,-0.9726780528931639,5909.215245987632
0.108,-1.0117839164414038,5891.670284161485
0.112,-1.0532627228104827,5899.407222794558
0.116,-1.0910835538228203,5903.235035371276
0.12,-1.1194937744103177,5902.037622689669
0.124,-1.1346827301479332,5899.707192030071
0.128,-1.1356346585322152,5906.176635158849
0.132,-1.1238975982521544,5888.231425172381
0.136,-1.1025557043440348,5897.046078889306
0.14,-1.074935403669805,5900.074844915899
0.144,-1.0435214497671017,5902.64605340368
0.148,-1.0094248876492138,5893.696774272395
0.152,-0.9726044893954675,5891.842463496219
0.156,-0.9328147668448791,5906.043494611685
0.16,-0.8909285254563938,5898.185451119156
0.164,-0.8500135364699862,5893.434367981132
0.168,-0.815538207693776,5901.172657500613
0.172,-0.7944245924543819,5903.870482633947
0.176,-0.7931915907881929,5909.453921721239
0.18,-0.8158311647234738,5903.069481445976
0.184,-0.862179008889913,5898.192370195892
0.188,-0.9274049789390459,5895.43044515376
0.192,-1.0028737622235901,5894.163860837451
0.196,-1.0780659163655033,5903.370031570362
0.2,-1.1427868963181635,5904.570911989555
0.204,-1.188878869232967,5895.795312170708
0.208,-1.2111081770440444,5892.754647120399
0.212,-1.20744893972072,5893.746180792741
0.216,-1.1791885224108534,5900.76698869405
0.22,-1.1310291791630578,5902.068207735849
0.224,-1.0709314872514515,5894.245764368666
0.228,-1.0092702908930502,5897.211416386358
0.232,-0.9571345937260117,5884.921312325985
0.236,-0.924062345532285,5901.387557214874
0.24,-0.915816834376407,5901.837018506369
0.244,-0.9328851238519316,5902.32363784315
0.248,-0.970258066225671,5899.840704071749
0.252,-1.0187257742167655,5910.370104154575
0.256,-1.0674177723795488,5898.0161588310575
0.26,-1.1068178842968177,5898.174872833756
0.264,-1.1312517783998879,5903.016533470452
0.268,-1.1400380413852849,5895.317093533159
0.272,-1.137012390917146,5894.233863057996
0.276,-1.128694620251361,5894.971530275516
0.28,-1.1217788906398687,5906.373265931868
0.284,-1.1208446677665915,5894.984964395718
0.288,-1.1271073179791609,5900.510911618274
0.292,-1.13856956540541,5896.6734247838185
0.296,-1.1512996194605927,5897.5558804700295
0.3,-1.1611324883569354,5903.3874917985895
0.304,-1.1650718606507766,5896.651691096404
0.308,-1.1619792929264559,5905.991457115941
0.312,-1.1525339986277119,5899.407278765968
0.316,-1.138692657516429,5894.436836246204
0.32,-1.1229189016433527,5893.805066967581
0.324,-1.1074315685749878,5894.258693618435
0.328,-1.09373180237774,5906.222668195117
0.332,-1.0825834634543519,5899.822821965596
0.336,-1.0743451979734742,5901.259347981381
0.34,-1.0693033754252335,5897.446024520803
0.344,-1.0677111231684897,5910.2056404463065
0.348,-1.0695373622190327,5900.830489110722
0.352,-1.0741697511992137,5889.981392812516
0.356,-1.0803307459277436,5903.585371363423
0.36,-1.0863118303126136,5899.036127875923
0.364,-1.0904245237956633,5892.7791308398455
0.368,-1.0914220830673003,5900.547384084523
0.372,-1.0886838541254504,5899.2718707615695
0.376,-1.0821778936231472,5904.598368853625
0.38,-1.0724081939206551,5905.449354633378
0.384,-1.0604746978366293,5908.915846328972
0.388,-1.048098193368308,5905.174140336104
0.392,-1.0373438455110109,5899.091616905009
0.396,-1.0300145632426954,5902.91485212362
0.4,-1.027023199021351,5897.973085846471
0.404,-1.0281135945344149,5899.737711699695
0.408,-1.0320658977180592,5899.671503420935
0.412,-1.0372571655261127,5902.105595193874
0.416,-1.0423182957691444,5899.580665979917
0.42,-1.046607140443233,5898.482991269663
0.424,-1.0502804043493732,5896.735324185017
0.428,-1.0539243376780096,5894.868894419021
0.432,-1.0579310899731666,5897.419100148764
0.436,-1.061918112108527,5903.537454455237
0.44,-1.0644280358232037,5900.714230263141
0.444,-1.063020738685243,5899.886974614412
0.448,-1.0547606806532934,5907.01113177815
0.452,-1.0370100939893612,5900.408591063382
0.456,-1.0083664763003413,5897.6280038857785
0.46,-0.969535550034007,5896.270524715737
0.464,-0.9238805620893392,5903.343629991406
0.468,-0.8773678200802733,5905.39573281876
0.472,-0.8377366781647867,5895.359254578954
0.476,-0.8129684088876035,5898.543800419584
0.48,-0.8094003463987756,5898.00754738285
0.484,-0.8300134764367735,5897.052068488603
0.488,-0.8734230828726361,5900.858766093826
0.492,-0.9338796532630463,5889.332126475979
0.496,-1.00224641816731,5907.077364065412
0.5,-1.0676695298464622,5904.159013043784
0.504,-1.1195810785267428,5901.759692216552
0.508,-1.1496636347815044,5902.236678922272
0.512,-1.153367134904218,5901.982602923559
0.516,-1.1306019598622024,5886.608524377956
0.52,-1.0854671868666628,5891.009953005906
0.524,-1.0252273296634455,5907.894804732034
0.528,-0.958975043986017,5903.59072499838
0.532,-0.8963533910051235,5901.083223886277
0.536,-0.8464281453062307,5893.121780924344
0.54,-0.8165535810531269,5896.6136877253175
0.544,-0.8111278005284892,5901.207156387776
0.548,-0.8304770880292942,5900.176941888984
0.552,-0.8703966100171306,5890.165146020278
0.556,-0.9227787249580645,5892.598998835594
0.56,-0.9773164951876935,5900.924868137855
0.5640000000000001,-1.0237854857846493,5905.460366782514
0.5680000000000001,-1.0541632586925098,5906.293618720075
0.5720000000000001,-1.063959823607027,5892.972401666366
0.5760000000000001,-1.0525283375089927,5904.065865856332
0.58,-1.022555511775455,5899.766175431058
0.584,-0.9791316932118208,5900.274869082255
0.588,-0.9287122800610246,5904.42772521536
0.592,-0.8780909562989613,5893.735771130037
0.596,-0.8334318137899968,5902.168982541366
0.6,-0.799477364149488,5903.91112712478
0.604,-0.7791134548586574,5892.076241136903
0.608,-0.7734068664029201,5896.654409786016
0.612,-0.7820385361838735,5898.288605706508
0.616,-0.8038367189812287,5900.845604239473
0.62,-0.8370413080279602,5892.278006958745
0.624,-0.8791338301904159,5900.200596280603
0.628,-0.9264611008972427,5897.984971093797
0.632,-0.9741534517092713,5887.461776372617
0.636,-1.0167029485432417,5901.954325873715
0.64,-1.049067974031902,5906.964753894266
0.644,-1.0677309937216761,5900.06501342365
0.648,-1.0711714165402735,5905.363055148848
0.652,-1.0596849403920234,5895.301001544141
0.656,-1.0349424155267777,5901.243407632081
0.66,-0.999755424651742,5908.2646183878605
0.664,-0.9581855775530006,5902.341205373788
0.668,-0.9156955169293773,5906.095305077832
0.672,-0.8788605310713572,5897.743308415636
0.676,-0.8543750405016363,5902.678713817458
0.68,-0.8474999268418086,5894.902965498403
0.684,-0.8604332302444998,5897.349911179996
0.6880000000000001,-0.891231949773391,5901.115529275639
0.6920000000000001,-0.9338391010716333,5903.165880366212
0.6960000000000001,-0.979449016636914,5911.305058930985
0.7000000000000001,-1.0189278934114983,5899.185615654642
0.704,-1.0455055819699028,5905.559331099974
0.708,-1.0567328961519902,5899.937685328832
0.712,-1.0549073627029961,5902.580873510953
0.716,-1.0457708886480914,5896.014422795434
0.72,-1.0360379470625545,5903.316411204808
0.724,-1.0308380230872323,5897.760645831235
0.728,-1.0321318695637254,5906.727541766766
0.732,-1.0386191504263316,5894.138280624567
0.736,-1.0469771905036513,5900.325493711185
0.74,-1.0537988506836882,5894.162310144238
0.744,-1.0573835557277769,5897.921424133264
0.748,-1.0585749019580728,5909.159559278989
0.752,-1.060238572073083,5895.173182694471
0.756,-1.0656558463920929,5900.646087832297
0.76,-1.0766477369597536,5904.344801025583
0.764,-1.0922912847435162,5898.923578087781
0.768,-1.1087243355240444,5908.857018039931
0.772,-1.1200689213375927,5907.237196793846
0.776,-1.1201411740682385,5896.28251022052
0.78,-1.1044198507134433,5906.781817209769
0.784,-1.0717149159253485,5903.032029208405
0.788,-1.0250645776183365,5901.355590780042
0.792,-0.9715394387152383,5904.867299226071
0.796,-0.9208543860123939,5902.5948587654
0.8,-0.8830280945833853,5897.5833088943045
0.804,-0.8657267340721174,5893.200604882225
0.808,-0.8721565349507983,5896.36643243973
0.812,-0.9002229179170259,5898.04046232466
0.8160000000000001,-0.9432044417691129,5893.8477945654695
0.8200000000000001,-0.9916739840109924,5904.572572292655
0.8240000000000001,-1.0360599506982062,5900.051903446286
0.8280000000000001,-1.0691060105329937,5890.099853078466
0.8320000000000001,-1.087528725363864,5898.714553863997
0.836,-1.0924040530967485,5909.218113647153
0.84,-1.0882198765221083,5900.32845937909
0.844,-1.080992210039417,5891.359261409186
0.848,-1.0761620622191552,5891.455564260312
0.852,-1.0770077874702961,5899.2830912745285
0.856,-1.0840282286099518,5895.4593667724175
0.86,-1.095336927707953,5897.541319517462
0.864,-1.1077525868700728,5896.866952759491
0.868,-1.118109348408762,5897.679199336978
0.872,-1.124348284320923,5900.172340753331
0.876,-1.1260788634141348,5899.025025258298
0.88,-1.1244448163567,5893.899121920927
0.884,-1.121339501509195,5906.975741481372
0.888,-1.1182972579829835,5899.7977580234665
0.892,-1.1155771997814787,5902.901939879742
0.896,-1.1118884274233185,5899.709764567548
0.9,-1.1049160759665155,5896.076529483383
0.904,-1.0924585446814845,5906.516418574785
0.908,-1.0737041065488524,5903.576733535738
0.912,-1.050060060371724,5894.837571824517
0.916,-1.0250882892485615,5899.020420626037
0.92,-1.0034763710781114,5895.053122301245
0.924,-0.9894258453287037,5893.638243353594
0.928,-0.9851501719653033,5905.782413968944
0.932,-0.9901475535316203,5903.40170218979
0.936,-1.0015162251639147,5902.396759011308
0.94,-1.0150549960922448,5884.243244117565
0.944,-1.0265903503110374,5907.53979044262
0.948,-1.0330294456463458,5905.849393573452
0.952,-1.032905347129228,5905.980156626263
0.956,-1.026439705923711,5901.219396553028
0.96,-1.0152838439948209,5908.265025582147
0.964,-1.002090228519463,5903.567566375267
0.968,-0.9899715949588935,5906.058046266638
0.972,-0.9818455814889605,5901.669887581411
0.976,-0.9797071857207156,5895.469426342044
0.98,-0.983980177730025,5896.853760601692
0.984,-0.9931954952170767,5901.006653934043
0.988,-1.0042458171839939,5898.177680856115
0.992,-1.0132925916105948,5893.344176930693
0.996,-1.0170881446172153,5891.03819362506
1.0,-1.014213060390489,5906.708608520191
1.004,-1.0057179613955907,5900.059861897736
1.008,-0.9949094703129714,5897.76621693017
1.012,-0.9863499192647761,5903.083461552645
1.016,-0.9843800696008963,5905.067474608586
1.02,-0.991601526949152,5899.655380888386
1.024,-1.0077959832190648,5893.223406463889
1.028,-1.0296777298867819,5890.274968538901
1.032,-1.0516371652944725,5899.5255186534005
1.036,-1.0672820844798527,5894.855856017
1.04,-1.0712621747151456,5911.857199555892
1.044,-1.0607529483194955,5909.733911858474
1.048,-1.0361600690050414,5900.593953146251
1.052,-1.0009554958818605,5898.101984280982
1.056,-0.9608439629361716,5899.738878833628
1.06,-0.9225679314290194,5899.338374473291
1.064,-0.8926305796404712,5897.637387480343
1.068,-0.8761298022466597,5898.768390267936
1.072,-0.8758305229296757,5895.150103180318
1.076,-0.8916219587980745,5905.0793284144565
1.08,-0.9205713142009024,5901.163169372957
1.084,-0.9577368323414037,5905.743191957513
1.088,-0.997632186589562,5894.459411253119
1.092,-1.0358552070320413,5893.715343642414
1.096,-1.0701797814940404,5898.745234192473
1.1,-1.100559124042842,5904.962171357412
1.104,-1.1279823746373712,5897.311278721193
1.108,-1.152724825250614,5902.274135325493
1.112,-1.1728911548103633,5892.063912390962
1.116,-1.1840547654287135,5900.305471083653
1.12,-1.1802976678615038,5901.729117841073
1.124,-1.1563047340158703,5892.223176041946
1.128,-1.1096804982536501,5904.007501882596
1.132,-1.0425734656758785,5908.790565704227
1.136,-0.9619972648930482,5909.607873214832
1.14,-0.8787043033936253,5900.047729721471
1.144,-0.804921800338851,5907.275745464423
1.148,-0.7516305794363161,5893.063154036455
1.152,-0.7262243457319744,5899.560123663074
1.156,-0.7312178912234231,5904.030765041938
1.16,-0.7642562728166057,5893.316808654993
1.164,-0.8191973777540751,5902.857324460133
1.168,-0.8876749679087884,5895.744175386017
1.172,-0.9605008903783407,5897.363574590136
1.176,-1.0286126879460638,5902.8809825533
1.18,-1.0837486081290066,5889.394183629632
1.184,-1.1192101067920626,5903.606098072852
1.188,-1.1308276757745062,5904.718088661281
1.192,-1.1178736980498998,5904.338535092864
1.196,-1.083514106542227,5896.231433282978
1.2,-1.0345083187989044,5899.835736971857
1.204,-0.9801006696770658,5901.416782676412
1.208,-0.9303100769710976,5895.677033006103
1.212,-0.8940504178644353,5898.742999308459
1.216,-0.8775337468766704,5898.888710239538
1.22,-0.8831937568750818,5891.938054174639
1.224,-0.9091858954573748,5906.106998168287
1.228,-0.9495632941306408,5906.453588846859
1.232,-0.995300416994347,5891.218163107777
1.236,-1.036168908880272,5899.314762427583
1.24,-1.0631079607733795,5905.451719760862
1.244,-1.070440785789731,5896.628876162526
1.248,-1.0572662833847106,5900.309507237275
1.252,-1.02762209678062,5890.72300132554
1.256,-0.9894098668929584,5906.6921763509135
1.26,-0.9523604679583099,5906.778970242676
1.264,-0.9254640489609836,5898.849792257846
1.268,-0.9144732357828096,5905.65037900817
1.272,-0.9202937910416158,5903.114053207963
1.276,-0.9389806932373134,5908.63165007051
1.28,-0.9634682143310851,5904.434757130938
1.284,-0.9863549021437581,5899.034201439503
1.288,-1.0025535210049161,5899.621095123511
1.292,-1.0107271409767071,5899.479264164826
1.296,-1.0130821919711515,5903.066408162636
1.3,-1.0138703490466061,5907.184908458789
1.304,-1.0174267858652872,5897.501767423821
1.308,-1.0265596269710482,5895.99990166549
1.312,-1.0417450303669975,5893.394517659097
1.316,-1.061167028738498,5901.094055023509
1.32,-1.0813766171080113,5898.052227665416
1.324,-1.0982669518085788,5900.659751804319
1.328,-1.108104937940796,5900.828625976521
1.332,-1.1084308175130018,5903.804933157953
1.336,-1.098687371865989,5897.981941940618
1.34,-1.0804846720952774,5903.401193269219
1.344,-1.0574454310699717,5898.670574386609
1.348,-1.034583767723749,5899.145905198686
1.352,-1.0172069578892358,5895.711106944365
1.356,-1.0095082922755212,5895.895236641927
1.36,-1.0132841578332417,5893.701863256533
1.364,-1.0273157337522156,5900.341200228221
1.368,-1.0477512550161014,5904.590961635807
1.372,-1.0694074776341036,5902.715795640288
1.376,-1.0874913995511133,5895.232047102971
1.38,-1.0990212600041067,5887.890706180713
1.384,-1.1033618664997928,5895.892205796366
1.388,-1.1017716793193222,5900.911027624932
1.392,-1.0963731483044823,5899.727073340369
1.396,-1.0891354902827228,5893.344480997366
1.4,-1.0812620850680108,5911.557630663396
1.404,-1.0730733314809466,5901.721190338093
1.408,-1.064294271516909,5906.633813535653
1.412,-1.0545813586748107,5899.009475716459
1.416,-1.0440547930006838,5905.685129287829
1.42,-1.0335706515439256,5899.414255964858
1.424,-1.024580709762582,5909.390232348187
1.428,-1.0186483491180263,5897.573692198001
1.432,-1.016838308564443,5904.361244799625
1.436,-1.0192208565436724,5903.675287260555
1.44,-1.0247039535477824,5893.741275187875
1.444,-1.0313135473170076,5902.621244999811
1.448,-1.0368347024605225,5900.371077150245
1.452,-1.0395354607186182,5904.265852413073
1.456,-1.0386847725173043,5898.17864712357
1.46,-1.0347032332865183,5895.728398414919
1.464,-1.0289226279664268,5890.484949789403
1.468,-1.0230535110693513,5902.934813174091
1.472,-1.0185667739785687,5907.862806053597
1.476,-1.0162180491503434,5891.803115597113
1.48,-1.0158594037893134,5904.239420890734
1.484,-1.0165555395218373,5891.214683182411
1.488,-1.016907238732628,5907.716184006977
1.492,-1.0154210991605832,5905.645922536612
1.496,-1.0108062644918119,5910.729144722183
1.5,-1.0022039442713706,5891.096803137506
1.504,-0.989422104432377,5905.725860956704
1.508,-0.9731673649544204,5902.151887913336
1.512,-0.9551413051019858,5895.824993110569
1.516,-0.9378508780645857,5896.04964469473
1.52,-0.9240842189646096,5901.250271827742
1.524,-0.9161482787410749,5894.999657501749
1.528,-0.9151067004529353,5895.991755664323
1.532,-0.9203332649024558,5890.886832663179
1.536,-0.9296243394307939,5905.249960364376
1.54,-0.9399029119189978,5902.60896265511
1.544,-0.9482913068785132,5902.304519226155
1.548,-0.953130519304105,5896.634725854403
1.552,-0.9545132648054142,5902.986697172401
1.556,-0.954143592133235,5902.2190420185
1.56,-0.9546577789779035,5895.51807760379
1.564,-0.958673782190641,5899.020231876346
1.568,-0.9677899191370025,5900.522378463192
1.572,-0.9817524147329865,5905.052457982469
1.576,-0.9981040372870748,5898.522139901513
1.58,-1.012609812286008,5899.783622913814
1.584,-1.020490739452957,5893.0519497098485
1.588,-1.0181005268499206,5902.451573725504
1.592,-1.0043955007044592,5897.160339358316
1.596,-0.9815424588245801,5884.891259254358
1.6,-0.9543269602152505,5909.040371534692
1.604,-0.9285594536363606,5899.962880667543
1.608,-0.9091408940266441,5899.499698149861
1.612,-0.8985539719132078,5906.773342605298
1.616,-0.8962840003026231,5902.949742030033
1.62,-0.8992847825404369,5902.392638602235
1.624,-0.9032741199301889,5908.716216456556
1.628,-0.9043916557091772,5893.782967938452
1.632,-0.9006110843734888,5893.579222648659
1.636,-0.8923939626015088,5904.103759079643
1.64,-0.882416987951828,5896.000919184214
1.644,-0.8745885963304598,5902.2599590131895
1.648,-0.8727826569773431,5901.432657914229
1.652,-0.8797257143560223,5895.955148735344
1.656,-0.8963421532922914,5893.232260367286
1.66,-0.9216608184164946,5899.653966991616
1.664,-0.9531976547891952,5900.575118779733
1.668,-0.9875967219885818,5885.796942948407
1.672,-1.0212536615619028,5907.808734138558
1.676,-1.0507169959024103,5899.920327810778
1.68,-1.0728731784821488,5906.890975580628
1.684,-1.085119182286267,5910.221416969523
1.688,-1.0857407113057531,5897.639772953417
1.692,-1.0745505110700444,5899.255166072663
1.696,-1.0536011473620817,5896.332694620176
1.7,-1.0275492838489564,5887.598885379422
1.704,-1.0031650465197228,5907.57438034078
1.708,-0.9877494665893902,5901.725125087337
1.712,-0.9868079592196823,5901.293197029214
1.716,-1.0018582803720801,5895.380578562239
1.72,-1.029331039695974,5903.027563130859
1.724,-1.0610855478774772,5896.321804495485
1.728,-1.0864001272185364,5895.244907063133
1.732,-1.0947582407761929,5907.53691836931
1.736,-1.0785520727899558,5896.000088220984
1.74,-1.035007638554663,5893.64987908014
1.744,-0.9670508218639413,5894.041494244994
1.748,-0.8831901871048493,5901.105828034709
1.752,-0.7966048138188262,5896.553544427718
1.756,-0.7235588792578808,5902.547463589802
1.76,-0.6811660678782986,5889.809643229356
1.764,-0.6844841151954818,5899.826499439724
1.768,-0.7430254130330484,5900.3163288905935
1.772,-0.8570666855632573,5898.036762785822
1.776,-1.014470709287832,5895.051530833185
1.78,-1.1888829915254893,5895.861642311524
1.784,-1.3401339914345438,5908.808251384264
1.788,-1.4175569226286626,5908.416153530169
1.792,-1.3666365109657472,5901.0155671089005
1.796,-1.1387430073713791,5902.212646827622
1.8,-0.7026623421800926,5901.405274400967
1.804,-0.05545593238344431,5896.678721762131
1.808,0.7707027513848848,5903.597131808085
1.812,1.7090990743200574,5910.9243492802325
1.816,2.668358370126442,5907.173107536607
