时间(s),电压(V),幅值(高频80K)
0.0,-1.3741934280183412,5901.521954974142
0.004,-1.40679258925706,5901.971727657116
0.008,-1.43651577644874,5892.04017344912
0.012,-1.4597827475654646,5902.181612546704
0.016,-1.472855097838276,5904.705643330685
0.02,-1.4727465747742041,5907.9253342330585
0.024,-1.458226994284219,5895.6327350088
0.028,-1.430360514294407,5895.103869674844
0.032,-1.3924623353179773,5895.424907214519
0.036,-1.34967809440432,5905.771724507801
0.04,-1.308306495642724,5899.257771390423
0.044,-1.2748046225688419,5892.569329043714
0.048,-1.2545059292863359,5903.375989797397
0.052,-1.2503583212351126,5889.892896957087
0.056,-1.2621199916290993,5900.174895940455
0.06,-1.2863195243356567,5900.009505386078
0.064,-1.3170390739887603,5898.296456816194
0.068,-1.347356502238801,5900.227394653249
0.072,-1.3710957011267897,5888.0542004563495
0.076,-1.3843612491765025,5896.794760309779
0.08,-1.386285456596216,5899.626746556256
0.084,-1.3786999250273355,5899.39367634577
0.088,-1.3650160115734837,5901.399744586773
0.092,-1.3490141336048176,5903.63293084487
0.096,-1.3341070778556494,5894.29140491391
0.1,-1.3231159409954945,5902.000053784288
0.104,-1.3182145274359667,5897.0334071078405
0.108,-1.3207554598377054,5901.630353337002
0.112,-1.3309884943612613,5905.312064316691
0.116,-1.3478492997491338,5906.875928176886
0.12,-1.3689241727457273,5900.374544924712
0.124,-1.3905877746624433,5898.717797723212
0.128,-1.408348761593053,5903.784725771012
0.132,-1.417496148470009,5900.971698083225
0.136,-1.4140179534859822,5891.793002985068
0.14,-1.3955693389929977,5895.30438781571
0.144,-1.3622398569598253,5905.035597124234
0.148,-1.3169681459241405,5898.184758923167
0.152,-1.2654666153072585,5895.78468525385
0.156,-1.2154741323478382,5893.0267969754
0.16,-1.175273296114786,5906.40437442075
0.164,-1.151738129954026,5890.2362234548
0.168,-1.1485112757007616,5902.756825075465
0.172,-1.1649927160982494,5902.974306867195
0.176,-1.196542199158348,5897.710127637387
0.18,-1.2357991243069728,5908.788166297014
0.184,-1.2746233145089398,5893.945953040206
0.188,-1.306044197763552,5899.234965581347
0.192,-1.3256979742766497,5891.180847280261
0.196,-1.3324017763560136,5901.948206569431
0.2,-1.327758853539181,5908.161167437537
0.204,-1.3150226300820054,5903.259362107702
0.208,-1.2977318700128828,5893.434734896203
0.212,-1.2786717517914326,5896.433931888714
0.216,-1.2594745382757897,5901.820658697639
0.22,-1.2407894616002795,5906.85270753599
0.224,-1.222675179566342,5897.133066390792
0.228,-1.2049123947907574,5896.690959437421
0.232,-1.1872174798596842,5894.979832150552
0.236,-1.1695016859061609,5900.687410126569
0.24,-1.1521862983714466,5895.369324228288
0.244,-1.1363879955098888,5891.761033832729
0.248,-1.1238047632181731,5905.534435518088
0.252,-1.1163330878701607,5907.801786541303
0.256,-1.115640212439069,5903.329189984635
0.26,-1.122937686863447,5904.185877234316
0.264,-1.1389907705431734,5895.526584842058
0.268,-1.164128146520044,5891.020487005894
0.272,-1.198001985323507,5900.261126068528
0.276,-1.2391149394870302,5901.101009245944
0.28,-1.2843777314767264,5896.471625964477
0.284,-1.3290203959678204,5900.133508259057
0.288,-1.3671152988812523,5897.657058805031
0.292,-1.392768004003745,5895.39336926761
0.296,-1.4016684276738582,5899.588843758252
0.3,-1.3923995974792551,5902.724948969939
0.304,-1.3669526180876048,5904.1914777741
0.308,-1.3302651769943437,5901.474790661741
0.312,-1.289015299520099,5903.390649262367
0.316,-1.25012266430138,5901.108911964902
0.32,-1.219371915646121,5899.413695383263
0.324,-1.2003924883517254,5894.5903414499735
0.328,-1.194100689090937,5893.443885551535
0.332,-1.1987022302445018,5900.9873483528645
0.336,-1.2103341187782435,5904.476124380395
0.34,-1.2242536643604343,5898.694087977756
0.344,-1.2362209069527907,5894.38825057594
0.348,-1.243572762853419,5911.502085608996
0.352,-1.2456042013229323,5901.535729831609
0.356,-1.2432273861351406,5897.749207450758
0.36,-1.2382550139577582,5898.705955523708
0.364,-1.2327730673597783,5895.59725814217
0.368,-1.228843688833199,5897.645598489588
0.372,-1.2284344011305408,5905.5154323397655
0.376,-1.2333196170536604,5898.159891387444
0.38,-1.2448031369490673,5901.695064412682
0.384,-1.2632956556384873,5898.079171119681
0.388,-1.2879407738037787,5899.549207923294
0.392,-1.316569322792494,5909.254930742072
0.396,-1.3461450320265826,5895.5150605061735
0.4,-1.3735272246656596,5903.967682520978
0.404,-1.3961117595652495,5899.729392903412
0.408,-1.4120176773325606,5906.479229012703
0.412,-1.4198600081282258,5901.298204517196
0.416,-1.4184237281495804,5899.794747332727
0.42,-1.4065510539673487,5892.819423334145
0.424,-1.3833693293053992,5899.936142832128
0.428,-1.3487690443249003,5900.39103640846
0.432,-1.3039057064700499,5908.230545416101
0.436,-1.2514989390176272,5893.913784138238
0.44,-1.195779011642779,5910.334434267539
0.444,-1.1420257739089643,5906.367118147672
0.448,-1.095777399888214,5899.93536387618
0.452,-1.0619186764448212,5907.992276078114
0.456,-1.0438784630166982,5902.123159172455
0.46,-1.043075843442596,5901.864926602674
0.464,-1.058684838287513,5906.273318011244
0.468,-1.0877825537727603,5898.840793260165
0.472,-1.1259009021224162,5899.438126193697
0.476,-1.1678626680349198,5898.320041373693
0.48,-1.2086596475714908,5903.626548902497
0.484,-1.244144166216877,5898.55179058605
0.488,-1.2714206203602019,5891.242624437173
0.492,-1.2889359031593972,5884.262841509452
0.496,-1.2963544692685265,5893.694237261051
0.5,-1.2943707821089927,5900.524661852615
0.504,-1.2845918614588554,5904.848665382805
0.508,-1.2694733967539316,5905.426297672149
0.512,-1.2521294853997476,5900.407186109277
0.516,-1.2358552522153712,5907.934902883978
0.52,-1.2234401456436261,5900.492422318456
0.524,-1.2165795300719036,5893.617196682622
0.528,-1.2156685827410647,5905.046385627747
0.532,-1.2200297529734443,5898.988631512115
0.536,-1.228435653346127,5898.574205681061
0.54,-1.2397595475644623,5897.461035929461
0.544,-1.253589542910578,5908.69377512518
0.548,-1.2705758025286933,5898.454723771573
0.552,-1.2922677387446044,5900.782696260337
0.556,-1.3203933310102811,5900.488922233089
0.56,-1.355831162860325,5905.645391913779
0.5640000000000001,-1.3976950060767184,5898.986733083454
0.5680000000000001,-1.4429258521958312,5906.46464244963
0.5720000000000001,-1.4866279534561069,5909.741886625998
0.5760000000000001,-1.5231188297109264,5907.664604702941
0.58,-1.5473548601336953,5896.722847309739
0.584,-1.5562213523076234,5897.408649852005
0.588,-1.5492613201020313,5901.215042062279
0.592,-1.5286715020549901,5901.6004012146
0.596,-1.4986253736772988,5900.17440225682
0.6,-1.4641265084776374,5898.787157846453
0.604,-1.4297179265332776,5902.290864904386
0.608,-1.3984627034651536,5903.826297780207
0.612,-1.3715451709940971,5895.429535573795
0.616,-1.348599297976945,5891.990584108449
0.62,-1.3285932646590979,5902.045568319321
0.624,-1.310895637005408,5903.782064755547
0.628,-1.2960542864005211,5904.635580204676
0.632,-1.2859188545824696,5892.946537158535
0.636,-1.2830466807212926,5895.7879697447215
0.64,-1.2896588036195635,5895.217194226094
0.644,-1.3065674937121288,5905.068915321588
0.648,-1.3324787926143022,5901.7384526667
0.652,-1.3639402519810429,5890.220908324899
0.656,-1.3959745448396976,5900.709796144304
0.66,-1.423190842853251,5899.032572016349
0.664,-1.441025881186612,5892.941222487394
0.668,-1.4467657499060766,5901.786701708264
0.672,-1.4400752146624398,5913.7841308428615
0.676,-1.42289515647876,5889.5483470364
0.68,-1.39877097758419,5893.983145583107
0.684,-1.3718683343510245,5901.602693417571
0.6880000000000001,-1.345990090351635,5901.675822433365
0.6920000000000001,-1.3238153583031065,5901.027073924767
0.6960000000000001,-1.306462562925978,5899.957199434818
0.7000000000000001,-1.2934290811487115,5905.652766417292
0.704,-1.2829409354102228,5896.961248636809
0.708,-1.2726821074526917,5890.231411786044
0.712,-1.260756156225427,5892.062788987465
0.716,-1.2466034198440887,5899.3516877694565
0.72,-1.2315245074239987,5899.184333367862
0.724,-1.2185346216453796,5906.056404871661
0.728,-1.2115207280865288,5893.913802621804
0.732,-1.213974210564516,5898.310709484622
0.736,-1.2277207549550762,5904.180719330667
0.74,-1.2520041014449552,5894.822758477149
0.744,-1.2831653372863243,5906.0469855188685
0.748,-1.3151051306873427,5890.807816689778
0.752,-1.3405800205466383,5900.899567257245
0.756,-1.353054866710514,5896.970344203412
0.76,-1.348523288998262,5899.06758632093
0.764,-1.3267147154951335,5891.320633784702
0.768,-1.2914017364595232,5898.589673453264
0.772,-1.2498062654382807,5901.406937959892
0.776,-1.2112336630133635,5900.176655628122
0.78,-1.185163560639098,5903.251231548239
0.784,-1.1791845592281265,5895.266428137051
0.788,-1.1972706276904594,5904.235597579926
0.792,-1.2388305068401606,5906.495228904082
0.796,-1.2987396201344397,5898.146613739207
0.8,-1.3683042650985615,5889.055327262635
0.804,-1.436900437907183,5895.053177333561
0.808,-1.4939293307670098,5894.608312873028
0.812,-1.5307491680597614,5894.70216465768
0.8160000000000001,-1.5422905802990798,5893.265919504016
0.8200000000000001,-1.5280501872583188,5903.915934426678
0.8240000000000001,-1.492152490094042,5904.413941969917
0.8280000000000001,-1.4423253345227602,5905.053831584846
0.8320000000000001,-1.3879815249580443,5891.819677688428
0.836,-1.3379779625390424,5905.018399344731
0.84,-1.2987744374205452,5899.655184155779
0.844,-1.2735078513191234,5904.506886598723
0.848,-1.262079485158902,5900.004448388615
0.852,-1.261977634581294,5899.592154871383
0.856,-1.2693732424673168,5901.969576158479
0.86,-1.2800732595137625,5908.774131224216
0.864,-1.2901629411668971,5895.296483993084
0.868,-1.296457011573082,5900.9639222359
0.872,-1.2969754613259674,5898.505044847793
0.876,-1.2914694340804116,5895.122182633182
0.88,-1.2817462301540608,5895.883200180658
0.884,-1.2714758080246824,5902.319292038968
0.888,-1.265364427481619,5893.069621056367
0.892,-1.2678913222026709,5893.872827894536
0.896,-1.28205045929721,5896.5780217155225
0.9,-1.3085665634194603,5903.242427159464
0.904,-1.3457924132827273,5906.42372189412
0.908,-1.3901546926326307,5895.021736796049
0.912,-1.436897102827867,5902.340026724022
0.916,-1.4809476746647197,5911.671207159813
0.92,-1.5177779652347811,5898.636594698859
0.924,-1.5440753275349481,5889.745245807168
0.928,-1.558051901647752,5898.212661402315
0.932,-1.559345129823444,5898.537036809739
0.936,-1.5486596057520778,5897.914629051478
0.94,-1.5274114871706586,5895.506736739507
0.944,-1.4975605860386705,5899.422936095903
0.948,-1.4616020146071127,5904.884514932559
0.952,-1.422504596134157,5897.196510338166
0.956,-1.3833686138507053,5909.708299310422
0.96,-1.3467650228895613,5905.494652646831
0.964,-1.3140060282945938,5901.963339750101
0.968,-1.284764048147755,5898.643264033919
0.972,-1.2573484591330528,5902.163431504687
0.976,-1.2296441631117019,5894.185713878343
0.98,-1.2004144844963627,5901.998334094865
0.984,-1.1704814228374387,5902.477448129998
0.988,-1.143247408894037,5900.101412966444
0.992,-1.1241831805067792,5895.10155789536
0.996,-1.1192963443314181,5905.639611109232
1.0,-1.133047370081343,5894.798389341323
1.004,-1.1664508693219082,5901.322253823818
1.008,-1.2160762115543033,5898.12447995716
1.012,-1.2743767151513117,5898.863602741435
1.016,-1.3313275373253983,5904.626984423246
1.02,-1.376886541726935,5905.3579942229335
1.024,-1.4035010536307613,5894.002372190183
1.028,-1.407900992976003,5896.110226215063
1.032,-1.3917082790893933,5898.51599070572
1.036,-1.3607762557124055,5905.323215106911
1.04,-1.3235202376788557,5903.202355729011
1.044,-1.2887896158058183,5907.184594681251
1.048,-1.2639706235676393,5899.097920642489
1.052,-1.2538209438456605,5897.481682316993
1.056,-1.2600878039119046,5907.997231104597
1.06,-1.2816243223383694,5901.220994972573
1.064,-1.3147380568309366,5901.422641739221
1.068,-1.3537282413615606,5906.103025605184
1.072,-1.3917212986061045,5904.496610421334
1.076,-1.4218812029907941,5901.001112861461
1.08,-1.4388650419824605,5905.339580649313
1.084,-1.4401278475269645,5894.995069167188
1.088,-1.4265709465778857,5903.878474944174
1.092,-1.4022302148364336,5897.295830123926
1.096,-1.3731236623748448,5887.652141057073
1.1,-1.3457277763536082,5906.384747689991
1.104,-1.325591181744845,5898.77708912008
1.108,-1.3163732720259609,5900.689708763373
1.112,-1.3193765450255337,5910.167054892846
1.116,-1.3335660774927043,5901.600225502557
1.12,-1.3560287279786933,5898.6979013470445
1.124,-1.382716217938856,5903.046827392176
1.128,-1.409242248647181,5899.673670434526
1.132,-1.431578690499755,5904.669616034577
1.136,-1.4466332915334952,5895.600162264343
1.14,-1.4527200255081107,5905.832523511927
1.144,-1.4498294659210798,5897.694657201729
1.148,-1.4395300119350962,5903.95568841996
1.152,-1.424427626969055,5890.444744418243
1.156,-1.4073303145229459,5892.971979260956
1.16,-1.39042419728127,5906.829133459544
1.164,-1.3747554286149608,5893.997762079196
1.168,-1.3601516943094838,5906.932118699704
1.172,-1.3455354541150022,5899.228092656315
1.176,-1.329495065622146,5894.5883181334575
1.18,-1.3109785119266697,5900.483222922599
1.184,-1.2899459516853926,5892.739370481019
1.188,-1.2677261097908423,5895.817199668008
1.192,-1.2468082243711582,5904.31970703144
1.196,-1.2300141865442225,5905.283106371762
1.2,-1.2193405818054985,5902.398951558267
1.204,-1.2149689575520144,5905.556044321498
1.208,-1.2148855551040907,5894.183721995063
1.212,-1.2153198690291704,5898.008614368801
1.216,-1.2119190013530525,5897.255966097556
1.22,-1.201280280813161,5908.09798427731
1.224,-1.1822803236055879,5900.920172509087
1.228,-1.1567095817526432,5889.755383056739
1.232,-1.12901976956733,5903.05745229732
1.236,-1.105299949135827,5901.852543267635
1.24,-1.091780419888163,5898.208218694956
1.244,-1.0932766119388295,5897.946525845222
1.248,-1.1120345399259213,5906.395024332458
1.252,-1.147296355671763,5898.229348796182
1.256,-1.1955851457701616,5903.143261494446
1.26,-1.2514703203968929,5891.590054843999
1.264,-1.308568735348329,5905.993728359176
1.268,-1.3606031594186496,5889.910898669897
1.272,-1.4023236752082724,5898.297116157027
1.276,-1.4300989718595585,5901.616854017325
1.28,-1.442123382024511,5900.777421295122
1.284,-1.438372609854506,5892.05186208266
1.288,-1.420515885941153,5907.277297877939
1.292,-1.3918954323521726,5908.602216479934
1.296,-1.3574720562846958,5901.68859525779
1.3,-1.3234573436518517,5898.021391517973
1.304,-1.2963848272389416,5900.012841209782
1.308,-1.2816868740385694,5898.394947681423
1.312,-1.2822731530365943,5902.031403439935
1.316,-1.2977808346426394,5903.186282755721
1.32,-1.324859194753085,5886.93279642515
1.324,-1.3582737415322599,5899.911265637943
1.328,-1.3922271757811453,5902.064036596768
1.332,-1.421359205430541,5901.510330660136
1.336,-1.4412801843259897,5896.212944320467
1.34,-1.4488682751000967,5897.329874900479
1.344,-1.4426359226902263,5901.451026457865
1.348,-1.4232234638613959,5903.14322251866
1.352,-1.393732332038465,5907.78798607926
1.356,-1.3594746994891083,5896.57884932368
1.36,-1.3269414048314485,5903.678817589259
1.364,-1.3022224146024242,5907.707771385083
1.368,-1.2894209382014628,5895.881709022149
1.372,-1.289614328543335,5891.112535182201
1.376,-1.3007235811789182,5905.298711299508
1.38,-1.3183445673406118,5906.526494627834
1.384,-1.3372048139640933,5898.095843165857
1.388,-1.352649048905558,5892.833665360853
1.392,-1.3616430235159178,5903.564524417118
1.396,-1.3631007075493429,5901.603294755712
1.4,-1.3576121938767307,5893.547589689672
1.404,-1.346808083872886,5900.723501634825
1.408,-1.3326753671848623,5891.218844328825
1.412,-1.3170886352069444,5898.741279387208
1.416,-1.3016378089848095,5906.70933867368
1.42,-1.2876584560357764,5898.604936256393
1.424,-1.2762978869861896,5898.849727322429
1.428,-1.268459775337003,5904.776629646424
1.432,-1.2645638727652193,5909.151302652469
1.436,-1.2642357917445137,5903.885500283248
1.44,-1.2661813128252675,5904.570634721134
1.444,-1.2684683520923616,5892.24538990254
1.448,-1.2692704096749232,5897.302468657628
1.452,-1.2679399733587904,5901.787782558209
1.456,-1.2661250248690232,5891.919374911292
1.46,-1.2684851013229985,5898.423711457604
1.464,-1.2824332760219255,5895.826348009548
1.468,-1.3163826326075365,5909.626765716355
1.472,-1.3763709797511412,5901.833298590918
1.476,-1.4616415413036143,5893.543848146036
1.48,-1.560464908962341,5912.470119676795
1.484,-1.6478111963898274,5895.968406025152
1.488,-1.6862662567987992,5898.328317249335
1.492,-1.6309293786973804,5899.573289487632
1.496,-1.4380476298492564,5902.1822574503785
1.5,-1.0759619004765555,5903.782672106054
1.504,-0.5358361073986749,5893.515796886793
1.508,0.16104638153532203,5900.589148209367
1.512,0.9625544258947504,5892.487419647706
1.516,1.7933533127512524,5892.59453094176
1.52,2.5699105420656156,5904.649307406301
1.524,3.218549256793487,5934.526189677617
1.528,3.6905914685877645,5939.612489641875
1.532,3.96995478105901,5951.064138407901
1.536,4.071879500347457,5969.193784044502
1.54,4.034647537952634,5981.529974566535
1.544,3.9078293701287863,6000.381070571219
1.548,3.740634869874181,6009.789127170241
1.552,3.5729726197483194,6025.072618547387
1.556,3.4305540527267024,6030.1451909243
1.56,3.324190880106911,6047.3557129997935
1.564,3.2524434963715985,6062.752257956528
1.568,3.2061368669747705,6080.702825516256
1.572,3.173153205250498,6084.188823648406
1.576,3.142310996812703,6089.556282365023
1.58,3.1057571718782007,6106.079753233856
1.584,3.0598179996628097,6115.021125118241
1.588,3.0045665209972774,6130.354721207959
1.592,2.942551682463963,6145.464897769187
1.596,2.8772699503782277,6148.411704110502
1.6,2.811968361005378,6161.769544424781
1.604,2.749118719432352,6171.466409105823
1.608,2.690456931157521,6179.5679216115
1.612,2.637146289870964,6188.73377327715
1.616,2.5896742203605143,6191.707581428202
1.62,2.5474815933249326,6207.856067583922
1.624,2.5087090563460146,6223.300615716986
1.628,2.4704830843157213,6230.473518811468
1.632,2.429805948540885,6232.857341938814
1.636,2.384647156517301,6252.331971411177
1.64,2.3346552248096195,6254.471879388885
1.644,2.281176703855086,6258.767889865847
1.648,2.226729969843853,6264.103293076311
1.652,2.174315722808257,6278.591125019667
1.656,2.1268220533814977,6284.749273459045
1.66,2.0865488216978263,6291.322334296234
1.664,2.0548193566537276,6297.637682522944
1.668,2.0317600427315923,6315.267229827187
1.672,2.016371055798535,6316.338273859483
1.676,2.006862052025177,6326.549226478805
1.68,2.0010501506347502,6327.025251103562
1.684,1.996623086495846,6338.216775676
1.688,1.9912352107599485,6345.621868602402
1.692,1.9825546864818897,6344.738204860906
1.696,1.9684096714153865,6348.412980547769
1.7,1.9470933246238664,6366.99336590331
1.704,1.9177615923786884,6365.280183534276
1.708,1.8807910144776834,6372.819883024948
1.712,1.8379590418278415,6372.271283710745
1.716,1.7923086584822656,6390.716885917158
1.72,1.7476036326268278,6393.976032426452
1.724,1.7074545330743633,6389.105613333272
1.728,1.6744208183941975,6392.944587636614
1.732,1.6494541886346312,6409.815353776424
1.736,1.6318429796961103,6408.6837178544665
1.74,1.619524867131879,6412.186497958649
1.744,1.6095346273897368,6420.249385773247
1.748,1.5984920187824447,6430.958409605066
1.752,1.5831974778115019,6437.016025840642
1.756,1.5613902954801149,6438.241448769
1.76,1.5325273281016927,6442.524740757072
1.764,1.4982237693808973,6447.302473315014
1.768,1.4619841894247687,6449.067752770423
1.772,1.4281413033502166,6456.28490179355
1.776,1.4003598027892774,6450.11193900835
1.78,1.3803498668562753,6464.757198757171
1.784,1.3673647379270217,6467.526253542525
1.788,1.3586675425437793,6475.29596345469
1.792,1.35068245844192,6482.614562112902
1.796,1.3402831990137656,6486.865188966722
1.8,1.3257378869962333,6475.990742007622
1.804,1.3070683283398479,6489.926126020916
1.808,1.2857861161543536,6487.499557587917
1.812,1.2641220377807487,6483.436785118383
1.816,1.2440357275934317,6496.385964884345
1.82,1.2264296705837772,6501.542234684795
1.824,1.210950229998121,6510.382119332408
1.828,1.1964581150847429,6505.44522530839
