时间(s),电压(V),幅值(高频80K)
0.0,-1.2815530776997166,5900.102929709976
0.004,-1.2337316183269968,5905.324902651551
0.008,-1.1933286386652386,5904.835361357668
0.012,-1.1657697627792052,5889.9950344055815
0.016,-1.1533259051699123,5905.917383064805
0.02,-1.1548146186274058,5899.502493469317
0.024,-1.1661627852151701,5906.443951314731
0.028,-1.1815526599119441,5902.945352857988
0.032,-1.1948553331348704,5900.553484499232
0.036,-1.201068024771824,5905.836781527558
0.04,-1.1974256273137647,5899.645684482135
0.044,-1.1838469288632907,5896.731426931642
0.048,-1.1625641837225198,5903.8031805076125
0.052,-1.1371555081072442,5892.853812960261
0.056,-1.1114635834954205,5899.95048484585
0.06,-1.0887891846044155,5900.681194315976
0.064,-1.071437996011863,5901.204272943922
0.068,-1.0605260008495005,5896.171786152778
0.072,-1.0560016725729344,5898.4513050932665
0.076,-1.0569100546958956,5896.739175937947
0.08,-1.0618483165581145,5892.127069198888
0.084,-1.0694399846450067,5902.192828389364
0.088,-1.0786625277096316,5893.872852443561
0.092,-1.0889856331208356,5893.81953507553
0.096,-1.100330847194472,5897.720795519326
0.1,-1.112820018722204,5894.898017794594
0.104,-1.1263437940812986,5899.8104760030765
0.108,-1.140188799167228,5895.75891328531
0.112,-1.1530161843173532,5910.69251028724
0.116,-1.1632101976971314,5900.916925297314
0.12,-1.1692907660020933,5894.852348765666
0.124,-1.1700818163290232,5898.574105979201
0.128,-1.1646350582464802,5899.388190157183
0.132,-1.152183616173184,5902.510262563643
0.136,-1.132381347676906,5901.340368191903
0.14,-1.1058199845418828,5898.1911122619
0.144,-1.0745490847479504,5888.304947927506
0.148,-1.0422600625309901,5904.56419792251
0.152,-1.0139405687140752,5894.650057346375
0.156,-0.994992824762633,5901.565193621721
0.16,-0.9899481330043146,5900.498653148264
0.164,-1.001087555901428,5896.064233818483
0.168,-1.0275000643795253,5888.949701392077
0.172,-1.0651203846922372,5901.371810968166
0.176,-1.1078804368935433,5898.880422333138
0.18,-1.1494956313846107,5908.414091569711
0.184,-1.1850837628468613,5895.342000779482
0.188,-1.2120090885579642,5899.504457907256
0.192,-1.2298181306844744,5904.796992756109
0.196,-1.2395399079624079,5901.619169262001
0.2,-1.2428121087695214,5905.414849412186
0.204,-1.241243144471028,5893.661057398723
0.208,-1.2361701418167632,5901.271442001503
0.212,-1.2286983542218513,5894.756690026972
0.216,-1.2198082644784753,5905.712843831103
0.22,-1.2103985765499536,5909.4232818961655
0.224,-1.201240955977939,5894.080267853569
0.228,-1.1928708732051991,5904.797632101858
0.232,-1.1854558247963813,5896.674325270443
0.236,-1.1786927934304399,5899.920185074177
0.24,-1.1718015139690858,5902.252096339224
0.244,-1.1636960242594498,5900.69763928121
0.248,-1.153373992157103,5897.183845872323
0.252,-1.1404236548368771,5900.77684264419
0.256,-1.1254075459615591,5896.4939960452775
0.26,-1.10988674191525,5900.03885654636
0.264,-1.0960331447326166,5900.080691534428
0.268,-1.0860331289113583,5897.713245845106
0.272,-1.0816282129393195,5897.528279414091
0.276,-1.084011051348384,5905.134833734167
0.28,-1.0939572903940187,5893.520715545763
0.284,-1.1118442986724344,5888.266646713898
0.288,-1.1373479926897334,5904.88638323979
0.292,-1.168984071400267,5892.741727751953
0.296,-1.2038794562625117,5897.864543301075
0.3,-1.23804239735292,5903.072862059144
0.304,-1.2671203038422956,5897.381407770377
0.308,-1.2874203025903734,5896.7430885990025
0.312,-1.2968642705415925,5895.581185563868
0.316,-1.2955207140115688,5897.82935541292
0.32,-1.2854381206942056,5901.822391092605
0.324,-1.2697661798284596,5911.551641920732
0.328,-1.2515261813826188,5898.091212152083
0.332,-1.2326413333862383,5901.6301916854245
0.336,-1.2137293164562328,5897.9733412605165
0.34,-1.194707545531146,5892.209768993423
0.344,-1.1757792779271345,5896.79638444307
0.348,-1.1582015087888176,5901.169636137984
0.352,-1.1444378084945273,5898.916237181655
0.356,-1.1376537854034792,5900.230186414176
0.36,-1.1407972332973284,5892.178287995741
0.364,-1.1556190722561432,5893.997580083818
0.368,-1.18193501435744,5901.743609419006
0.372,-1.217288703122434,5896.601675030094
0.376,-1.25706751095466,5903.34609781197
0.38,-1.2950652907311397,5894.4950339729385
0.384,-1.3244276273525262,5892.937621779704
0.388,-1.3388457950444965,5903.9615758841
0.392,-1.3338191870187819,5897.89783785824
0.396,-1.3077611699368554,5898.809091913467
0.4,-1.2626658732068101,5906.649069942239
0.404,-1.2040731307057995,5891.562451137044
0.408,-1.140231773434705,5896.389663408553
0.412,-1.080588362006678,5900.555074754356
0.416,-1.0339181325926672,5904.934959725146
0.42,-1.0065404560760984,5895.181254546535
0.424,-1.0010847373161185,5895.158990782058
0.428,-1.016138740754896,5896.314773217693
0.432,-1.0468509076551284,5898.253567064121
0.436,-1.0862757403695826,5899.170097496029
0.44,-1.1270364696974937,5896.680788207822
0.444,-1.1628105093529693,5893.971635613991
0.448,-1.189279435706164,5902.381256427351
0.452,-1.204461129654382,5903.400654865701
0.456,-1.208562522833043,5899.27213549572
0.46,-1.2035220427238285,5899.714543276588
0.464,-1.1923286447667893,5905.665973442485
0.468,-1.178190830216754,5894.057503686292
0.472,-1.1637301171408414,5903.418656713122
0.476,-1.150458933469094,5898.230252916275
0.48,-1.138747315985488,5900.326675544035
0.484,-1.1282787096912075,5899.534442132934
0.488,-1.1187394800696222,5898.735008584664
0.492,-1.110346949259044,5898.247093001698
0.496,-1.103917456136524,5898.360567587516
0.5,-1.1004432254138787,5886.105181385177
0.504,-1.100409074781517,5903.975292668157
0.508,-1.1032272398421294,5899.090637178864
0.512,-1.1071472127733049,5904.472717630443
0.516,-1.109773378067463,5903.198337220662
0.52,-1.1089929386408142,5896.965029598328
0.524,-1.103896503313965,5905.758372304718
0.528,-1.0952904534870553,5891.788491240416
0.532,-1.0856054265838,5901.594461424067
0.536,-1.0782687496045678,5897.472695658434
0.54,-1.0767962523220673,5907.316235719076
0.544,-1.0838982014445218,5907.324932193965
0.548,-1.1008307509462094,5899.732911430374
0.552,-1.1271385172859172,5899.508696882627
0.556,-1.160826468049489,5900.496869816911
0.56,-1.198859538498198,5904.484499967192
0.5640000000000001,-1.237792374666285,5898.73603447561
0.5680000000000001,-1.2743536288186776,5902.758044868401
0.5720000000000001,-1.305901340628591,5903.125517223601
0.5760000000000001,-1.3307159907497925,5891.726919454433
0.58,-1.3480632718270558,5902.907195761881
0.584,-1.3579069282583907,5903.2254934707935
0.588,-1.3602214834161082,5900.209401119825
0.592,-1.3541308072159075,5894.719938330431
0.596,-1.3374254966659789,5910.979109788187
0.6,-1.3070328545009948,5903.792316661323
0.604,-1.2605497990207821,5898.889201456477
0.608,-1.1982596093427107,5891.721787083257
0.612,-1.12461521125215,5897.468152764799
0.616,-1.0482869141996913,5897.9756525876455
0.62,-0.9804979796217915,5910.290654291105
0.624,-0.9321840131538943,5900.827005673045
0.628,-0.9110712419502284,5903.342875870921
0.632,-0.9197534350323333,5899.5237275082345
0.636,-0.9553029465900954,5903.373169466221
0.64,-1.0102737648487479,5906.08022472782
0.644,-1.0745345862767899,5894.434639162495
0.648,-1.1373085658279738,5903.163691467114
0.652,-1.1889722449388929,5903.700962253009
0.656,-1.2224188265997846,5904.527983316159
0.66,-1.2339818386009707,5896.511433299107
0.664,-1.2239447546697806,5889.259347653565
0.668,-1.1965385674983706,5892.792677437983
0.672,-1.1592148494227432,5897.382807621013
0.676,-1.1210878260766381,5898.606717774985
0.68,-1.090799982336129,5901.890163367088
0.684,-1.074448710296238,5900.511909033119
0.6880000000000001,-1.074310356497484,5889.070215333449
0.6920000000000001,-1.0887900659371348,5896.5195911909495
0.6960000000000001,-1.1134602820523956,5900.632946775885
0.7000000000000001,-1.1425812228440164,5910.743254181447
0.704,-1.1704425390902031,5904.57006781624
0.708,-1.1922053622459565,5907.7853317768
0.712,-1.2043132367686185,5898.920219387299
0.716,-1.2046925248510425,5894.897829530946
0.72,-1.1928869245676623,5896.726666445099
0.724,-1.1701272396905469,5900.85272926181
0.728,-1.139241410829307,5898.796252008776
0.732,-1.104311367766766,5896.643691085293
0.736,-1.0700841243667758,5896.771013929641
0.74,-1.0412716649271074,5904.898008846263
0.744,-1.021917721199477,5896.735109006432
0.748,-1.0149220642763832,5901.815953559511
0.752,-1.0216698724339275,5895.3666728387925
0.756,-1.0416787262954532,5894.213714281641
0.76,-1.0723378633678178,5901.972928930193
0.764,-1.1090174454759343,5900.730456756432
0.768,-1.1457846143447203,5906.70383618922
0.772,-1.1766318811436207,5893.512456685166
0.776,-1.1967998631850212,5894.077926537881
0.78,-1.2037393186852565,5903.93458378979
0.784,-1.1974612653803995,5902.103133582697
0.788,-1.1802670139104132,5906.336323542906
0.792,-1.1560414959741,5896.700144780451
0.796,-1.1294039946228915,5904.491501336409
0.8,-1.1049730866990541,5895.868814339331
0.804,-1.08682770333005,5888.547202918189
0.808,-1.0780842608404568,5895.553189424223
0.812,-1.0805011443271877,5900.910499064194
0.8160000000000001,-1.094156854163517,5902.499749451072
0.8200000000000001,-1.1173795768947117,5896.512707209671
0.8240000000000001,-1.1470779616744387,5902.318071215793
0.8280000000000001,-1.1794379739877825,5900.736936968801
0.8320000000000001,-1.2107799460428026,5901.021033848105
0.836,-1.2383325830587513,5896.4532080924255
0.84,-1.2607119052607798,5891.412575862346
0.844,-1.2779182461974847,5894.784690738058
0.848,-1.2907679193457853,5898.14725531283
0.852,-1.2999516044271857,5894.007519691147
0.856,-1.3052083929991452,5899.876708142033
0.86,-1.3051149104960382,5906.770576616507
0.864,-1.29763954992979,5895.077865909231
0.868,-1.2811860804148485,5898.653503284354
0.872,-1.2556430052788692,5894.9805819079
0.876,-1.222983854100419,5907.512330748643
0.88,-1.1871089380085837,5904.518416298288
0.884,-1.152868186456326,5901.841354630088
0.888,-1.1245904165919822,5902.096665755972
0.892,-1.1047945290959718,5901.078809419269
0.896,-1.093741518700849,5895.9053588648485
0.9,-1.090007559389728,5900.9488819354265
0.904,-1.0916529375005648,5901.678740132105
0.908,-1.0972746016716979,5892.810384301463
0.912,-1.1063909180118319,5889.225940623358
0.916,-1.1190245888624786,5893.182047418673
0.92,-1.1347958389085846,5900.013654051296
0.924,-1.1521376756929487,5897.045249996261
0.928,-1.168215815161048,5895.6893400819
0.932,-1.1797219654137945,5897.984757128467
0.936,-1.184156983150048,5899.840597528369
0.94,-1.1809279407832851,5907.310538069261
0.944,-1.1717310662443985,5899.690435243448
0.948,-1.160101209490296,5900.9537621072
0.952,-1.150371943872333,5901.541776300216
0.956,-1.1464532344415848,5900.513923041134
0.96,-1.1508117138365423,5897.019761642872
0.964,-1.1639140345258145,5896.700909728665
0.968,-1.1842479959667485,5902.781228744546
0.972,-1.2088811620733475,5901.902741179446
0.976,-1.2343182138272235,5899.8713635670565
0.98,-1.2572582598673623,5897.954039772859
0.984,-1.2749213476573305,5901.49932762398
0.988,-1.2849412995408633,5895.97682022544
0.992,-1.2851680165062151,5892.62277461577
0.996,-1.2737939882410934,5902.259548000501
1.0,-1.2499476852520641,5903.427684393932
1.004,-1.2144880153105875,5895.993265328943
1.008,-1.1704981954549631,5894.793409276988
1.012,-1.1230883571326,5903.667802684532
1.016,-1.0784951346750096,5905.341302554649
1.02,-1.0428400423413628,5909.60972657286
1.024,-1.021006251486363,5896.586202068884
1.028,-1.0158847352629463,5899.365559320137
1.032,-1.02797909220338,5900.017219480691
1.036,-1.055301772686868,5910.655001885976
1.04,-1.0936101786165746,5899.943360220617
1.044,-1.1370747267036045,5895.601009040357
1.048,-1.1793127656590465,5906.630203282921
1.052,-1.2145002049095657,5897.33372083541
1.056,-1.2382281795057666,5904.641865711719
1.06,-1.2479733343928519,5901.502718958523
1.064,-1.243302471419976,5902.390601159856
1.068,-1.2259770233785536,5900.034090706519
1.072,-1.1999265268299317,5902.984590655515
1.076,-1.1708687455975753,5895.842235501033
1.08,-1.145408218199458,5903.015279664312
1.084,-1.1297034893827087,5894.318975947555
1.088,-1.1280395760660649,5899.05624641607
1.092,-1.1417443472778517,5894.960584958401
1.096,-1.1688223759202656,5900.868471608465
1.1,-1.2044633391939263,5902.578893262044
1.104,-1.2422923952567146,5905.294090559377
1.108,-1.2759812714564536,5897.453148021136
1.112,-1.3007088148745867,5897.299586362565
1.116,-1.3140022293455056,5910.082481332402
1.12,-1.3157371928923733,5904.913544166426
1.124,-1.3074584919324326,5901.5178429975
1.128,-1.291497293576985,5901.893203906869
1.132,-1.2703709069114508,5904.797061059742
1.136,-1.2466181374482244,5905.548132864123
1.14,-1.2228282538517363,5896.537677992358
1.144,-1.201526649512264,5904.964918072364
1.148,-1.1848404545778477,5904.241708406312
1.152,-1.1741699561441412,5901.877744206088
1.156,-1.1701173712870083,5897.16283657461
1.16,-1.1726890246328612,5895.574725167591
1.164,-1.1815603340876277,5901.877831445351
1.168,-1.196161834713754,5891.153026885393
1.172,-1.2154822123814368,5905.044955351741
1.176,-1.237689725011915,5898.237024512831
1.18,-1.2598624936212384,5897.697518698358
1.184,-1.2781780335350428,5899.652650055088
1.188,-1.28872113806684,5898.781488281615
1.192,-1.2886678839111798,5906.649838804388
1.196,-1.2772863266557557,5904.166281192811
1.2,-1.2562597308001997,5901.938066798389
1.204,-1.2292348466133571,5896.962837926547
1.208,-1.2008765495593976,5895.966608261421
1.212,-1.175814145907666,5894.885784986052
1.216,-1.1577401410339898,5898.304640099278
1.22,-1.148782168126708,5898.885279183343
1.224,-1.1492267928253006,5894.14608506868
1.228,-1.1576528609704277,5908.138556251772
1.232,-1.1714398432728312,5896.881294224288
1.236,-1.1874841420858502,5901.7856316348025
1.24,-1.202873329416182,5903.410565469714
1.244,-1.2153100959558936,5903.79820756154
1.248,-1.2232457890002577,5894.90328991393
1.252,-1.2258546991596748,5906.751405127993
1.256,-1.2230205758470343,5896.258020969842
1.26,-1.2154120525256702,5891.648075512821
1.264,-1.2045737129809013,5901.641276111218
1.268,-1.1928460870128241,5903.58368753888
1.272,-1.182956430661575,5894.473723365881
1.276,-1.1773305030871526,5897.151468735899
1.28,-1.1774204720180204,5900.651906744893
1.284,-1.1833919697793953,5899.383344746557
1.288,-1.1942949758675525,5903.4460659065335
1.292,-1.2085489759380827,5902.941755288384
1.296,-1.224436773583664,5894.6404118779055
1.3,-1.2403653144446498,5903.120300651916
1.304,-1.2548193132167522,5908.641210682248
1.308,-1.2661290104438752,5905.910614132607
1.312,-1.2723209175282153,5901.781836913064
1.316,-1.2713062264049346,5909.407003017177
1.32,-1.2614663735687057,5895.429748693376
1.324,-1.2424496202831061,5902.148208937168
1.328,-1.2158335890163636,5897.41750106652
1.332,-1.1853000655226826,5896.529481245599
1.336,-1.156133502351764,5896.403856954577
1.34,-1.1341306521030345,5900.142093771263
1.344,-1.124230419625501,5900.983915381235
1.348,-1.1292421301876918,5898.742158186048
1.352,-1.1490132104016046,5896.783728119475
1.356,-1.1802735148438446,5901.588399598842
1.36,-1.217216103286316,5895.661026385581
1.364,-1.2526809607976677,5892.47401173207
1.368,-1.2796808066653838,5897.862239011569
1.372,-1.2929467223610531,5907.741667825462
1.376,-1.2901443118598468,5900.02881511047
1.38,-1.272432937049254,5903.642581245868
1.384,-1.2441529736569792,5904.6407056505805
1.388,-1.2116425888925084,5902.479401402921
1.392,-1.1814602529246312,5893.842470417768
1.396,-1.1585415517393047,5897.5283983971385
1.4,-1.1449424647379534,5902.497600675066
1.404,-1.1396734537492506,5891.036797852536
1.408,-1.1396798095399328,5898.891458023599
1.412,-1.1415082359245439,5904.635495029981
1.416,-1.1429324072248284,5902.648938572803
1.42,-1.143894698407981,5896.698488529895
1.424,-1.1464415633861258,5899.381327136767
1.428,-1.1537290883107654,5898.805111583306
1.432,-1.168536619990117,5901.832631044716
1.436,-1.191916581238411,5907.315326843094
1.44,-1.222501691182942,5888.471404499485
1.444,-1.256647812682536,5899.727192405921
1.448,-1.2892606761340117,5897.328265385598
1.452,-1.314996907586162,5900.584687572202
1.456,-1.329488964830839,5896.936013134712
1.46,-1.3302485392543715,5894.334736086929
1.464,-1.3170013934401954,5889.153356501433
1.468,-1.2914297079363941,5905.836179259126
1.472,-1.2565369074594617,5898.392820662005
1.476,-1.215954144069573,5906.808405449464
1.48,-1.1734289872328842,5895.623709943496
1.484,-1.1325485892054235,5894.986271077037
1.488,-1.0965895495633042,5893.330820144802
1.492,-1.068361934429904,5895.313682980581
1.496,-1.0500030828736138,5897.127131200475
1.5,-1.0427619385445912,5901.229472612613
1.504,-1.0468332809898158,5890.774803596354
1.508,-1.0612806821420002,5897.565716397793
1.512,-1.0840654660505393,5900.96673881682
1.516,-1.1121919236319018,5901.810572505424
1.52,-1.1419808833034635,5900.5914563644255
1.524,-1.1694691671204207,5897.20552383486
1.528,-1.1909038127971299,5904.047130968208
1.532,-1.2032896666774697,5904.379002406533
1.536,-1.2049414112733912,5894.444348144625
1.54,-1.195937744454339,5899.548247479876
1.544,-1.178305109187398,5893.944317857312
1.548,-1.1557694184862632,5902.595464945723
1.552,-1.133045088431266,5903.676255264652
1.556,-1.1148089737825377,5905.174439741105
1.56,-1.1046295658574394,5902.627081679888
1.564,-1.1041437329122936,5902.387335630479
1.568,-1.1127012483539005,5906.545065928407
1.572,-1.127545145838619,5902.39587035622
1.576,-1.144422676065422,5901.6198330685065
1.58,-1.1584498648489452,5906.572395686809
1.584,-1.165109704155233,5903.0573836039375
1.588,-1.1613050807106169,5899.521875540125
1.592,-1.1463084508376837,5901.622357768248
1.596,-1.1223309942386819,5901.9009361661065
1.6,-1.0944036861870523,5905.850362550715
1.604,-1.0693871186511537,5905.875889926929
1.608,-1.054213990214633,5902.953519727615
1.612,-1.0538280357507475,5903.9505232730535
1.616,-1.069525348478946,5886.142788520511
1.62,-1.09836459619692,5899.1748974245
1.624,-1.1339542624770214,5906.949945199895
1.628,-1.1683609644483832,5902.445998538125
1.632,-1.1943862105246288,5899.092731922347
1.636,-1.2073380720174522,5906.059310835566
1.64,-1.2057558815200493,5890.213366101466
1.644,-1.1910900394027257,5893.700911279802
1.648,-1.1667536605787538,5895.189225536056
1.652,-1.1370490690013364,5897.346870369358
1.656,-1.1062765828787695,5898.427814387776
1.66,-1.0780893016139,5894.612421142144
1.664,-1.0550634910221646,5900.146545687919
1.668,-1.0385038788588525,5895.505365436989
1.672,-1.0285662639813644,5911.373586149349
1.676,-1.0247523796717204,5905.893388405203
1.68,-1.026689866085593,5892.63065977198
1.684,-1.034911629534664,5906.875713173625
1.688,-1.0512161859334848,5898.86406221674
1.692,-1.0782619068897885,5892.659608186381
1.696,-1.1183829010338877,5897.124771300563
1.7,-1.1720672058157227,5900.633196565937
1.704,-1.2367883869151384,5895.320040786487
1.708,-1.306736928096339,5910.077507692588
1.712,-1.3736100892587644,5912.42259357142
1.716,-1.4282554964979437,5895.837821841064
1.72,-1.462715884307713,5892.593605740461
1.724,-1.472104515815652,5898.476427772643
1.728,-1.4558099386447634,5895.511931404455
1.732,-1.4177348024686411,5897.084135695799
1.736,-1.3654781085842682,5904.390308220114
1.74,-1.3085851303139675,5900.916942735444
1.744,-1.256302308413971,5902.39431896277
1.748,-1.2155520947216802,5899.706207075835
1.752,-1.1897965825133852,5901.913731024235
1.756,-1.1790331816059645,5901.657053266881
1.76,-1.1806612061514596,5904.626860755381
1.764,-1.1907145176324738,5893.463415317066
1.768,-1.205017579991735,5900.853284888616
1.772,-1.2199962418509362,5894.727258575813
1.776,-1.2330354984468759,5899.866013806477
1.78,-1.2424550070922464,5897.607734674004
1.784,-1.2473338272803722,5893.549059351155
1.788,-1.2474014867419287,5902.87183669869
1.792,-1.2430075886325407,5906.006279141117
1.796,-1.2350099916064388,5894.363292350084
1.8,-1.2244724098288158,5895.847734773974
1.804,-1.2122717706797859,5909.901040986405
1.808,-1.198860546221633,5904.298467683368
1.812,-1.1843664169452135,5907.905826541676
1.816,-1.1690119383325333,5892.356843644153
1.82,-1.1536709042584288,5893.997834649802
