时间(s),电压(V),幅值(高频80K)
0.0,-0.9357869757990502,5899.183600844914
0.004,-1.0562221492546664,5899.778420561635
0.008,-1.16047397821539,5900.865009194302
0.012,-1.2363434465242538,5903.604261026488
0.016,-1.2784214659230133,5903.664881983443
0.02,-1.288923266486417,5887.95260160738
0.024,-1.27627682115519,5891.833636094323
0.028,-1.25204174134499,5893.759991043376
0.032,-1.2273421648151437,5909.811702521212
0.036,-1.209981086708824,5898.735435429364
0.04,-1.2029055858018307,5898.83534458496
0.044,-1.2041715859285635,5893.928036784831
0.048,-1.2082397492578305,5903.036421392414
0.052,-1.2081994002165672,5890.723785360384
0.056,-1.198244785999995,5904.582974799094
0.06,-1.175568567972643,5899.311153559818
0.064,-1.1410556408500376,5897.925714454545
0.068,-1.0987424264081957,5905.24466575575
0.072,-1.0545529218865548,5906.292708106804
0.076,-1.0149310226084767,5902.843290980309
0.08,-0.9856836761147247,5893.051853380502
0.084,-0.9710251131639182,5901.363655916217
0.088,-0.9727785461680251,5903.346886658866
0.092,-0.9898705837252064,5901.154910759968
0.096,-1.0183521198303345,5902.795040688166
0.1,-1.0520691664546091,5897.739996872009
0.104,-1.0839041482682448,5921.395210907776
0.108,-1.1073394427503103,5899.702124454549
0.112,-1.11797485040027,5899.85236494925
0.116,-1.1145661989624542,5904.655365376599
0.12,-1.099219192072277,5901.474922070962
0.124,-1.076633276356424,5896.944715578488
0.128,-1.0526626823471306,5898.637025532601
0.132,-1.0327257170036108,5902.533431426316
0.136,-1.0205818483234324,5900.415143335791
0.14,-1.017751160603004,5894.885247578916
0.144,-1.0235670305818925,5905.498363878164
0.148,-1.0357004171064135,5907.624455697332
0.152,-1.0509814665252795,5896.904870784156
0.156,-1.0663494222079257,5906.00343297978
0.16,-1.0797063347830467,5901.714938047092
0.164,-1.0903969145104622,5908.16692814088
0.168,-1.099114044475095,5896.597376572846
0.172,-1.1072629474199789,5911.601549073931
0.176,-1.116060049161915,5891.412594643649
0.18,-1.1257414998725994,5904.405623400404
0.184,-1.1352104060682398,5905.415422099918
0.188,-1.1423127296023596,5903.557143897975
0.192,-1.144703091009858,5903.479771133805
0.196,-1.1409868879118157,5910.200491825941
0.2,-1.1316352896470883,5901.019757055302
0.204,-1.1192126938901952,5904.357733327815
0.208,-1.1077761842243363,5893.444507401461
0.212,-1.1017118314283667,5883.73290869227
0.216,-1.1044577587740987,5893.9511927938565
0.22,-1.117473937926572,5907.564230407143
0.224,-1.1396775362390297,5907.39636494154
0.228,-1.1675009999352857,5908.951662642469
0.232,-1.1956439908260574,5909.330417378103
0.236,-1.2183739037554382,5902.175650230032
0.24,-1.230965049997646,5905.077612746271
0.244,-1.2307624210072514,5894.643568906466
0.248,-1.2175436253405445,5896.24354883629
0.252,-1.1932344195790285,5894.702257101202
0.256,-1.161326411375294,5892.843909443401
0.26,-1.126325089887461,5895.221080173699
0.264,-1.0932912497123035,5899.52611028994
0.268,-1.067317065141666,5886.54891390262
0.272,-1.0527875095992438,5897.23224586699
0.276,-1.0524712450284546,5901.318565712213
0.28,-1.0667042872512107,5895.563029501158
0.284,-1.0930195090559531,5897.538358797007
0.288,-1.1264561314820765,5897.021142137331
0.292,-1.1605241860712956,5900.450607596271
0.296,-1.188560302642074,5893.405842723867
0.3,-1.2051041926248809,5898.482359961502
0.304,-1.2069676331291133,5885.2451572367245
0.308,-1.1938202461030736,5903.998035082169
0.312,-1.1682806760616138,5903.1379642133925
0.316,-1.1355497309662408,5898.537426954633
0.32,-1.102551624657254,5900.058021861821
0.324,-1.0765546832481072,5900.559904057936
0.328,-1.0634612417461977,5896.700074981517
0.332,-1.066221432787104,5901.255225195629
0.336,-1.0838794684297604,5901.66784746828
0.34,-1.1115994447598112,5902.002766043597
0.344,-1.1417831116805564,5894.20507924961
0.348,-1.1660982672249807,5899.930567394672
0.352,-1.177877995309663,5905.180129680217
0.356,-1.1741149046599666,5899.050199679987
0.36,-1.1563801523677664,5896.02529861743
0.364,-1.1304128108268892,5894.94517874333
0.368,-1.1045905228935269,5897.660046802123
0.372,-1.0877779710249895,5897.189183639925
0.376,-1.087111621717859,5891.661833680989
0.38,-1.1061925081502504,5902.050545852205
0.384,-1.144020420550399,5902.7381059114
0.388,-1.1948883327698105,5899.9317941959935
0.392,-1.249353124019124,5899.340595070669
0.396,-1.2962118004772225,5901.129942649566
0.4,-1.325112302289546,5906.799169567084
0.404,-1.3291477076973592,5896.830251770963
0.408,-1.3067046334036472,5888.364624164405
0.412,-1.2620225320206593,5899.145697047276
0.416,-1.2042860909277864,5892.400832613541
0.42,-1.145484474035063,5898.492353356813
0.424,-1.0976148677527402,5891.113884664965
0.428,-1.069983765467301,5901.843182137956
0.432,-1.067285642567909,5900.428720728777
0.436,-1.0888330659644099,5898.116203287899
0.44,-1.128945308648376,5905.539810902142
0.444,-1.1782667642404736,5903.48771606551
0.448,-1.2257172746301197,5897.252629453263
0.452,-1.2607680028492947,5890.529732769252
0.456,-1.2756839315161037,5903.506023674324
0.46,-1.2672683586569398,5895.172329693822
0.464,-1.2376003515665366,5895.1206091273725
0.468,-1.193430896489297,5908.613032895249
0.472,-1.14431530858805,5902.052703458868
0.476,-1.100014509216609,5902.866643349391
0.48,-1.0679551010022137,5899.227136285143
0.484,-1.051501480563384,5896.485421842604
0.488,-1.0495148738375581,5898.015499277271
0.492,-1.0572657385418716,5899.766569244747
0.496,-1.0683513528672548,5899.11309542437
0.5,-1.0769614789141195,5910.62320774479
0.504,-1.0797340254660202,5906.741008418989
0.508,-1.0766260389073625,5900.421297614031
0.512,-1.0706353492642338,5894.900770232121
0.516,-1.066622601104756,5905.346138103248
0.52,-1.069695199288104,5895.46238693289
0.524,-1.0836050890971218,5890.622010009027
0.528,-1.1095133745610237,5893.9982148705285
0.532,-1.145399628169367,5894.241417667081
0.536,-1.1863181234940465,5896.874507255636
0.54,-1.2255216518558678,5898.740867800077
0.544,-1.256178619421641,5898.837540952547
0.548,-1.2731571377096071,5902.585771678001
0.552,-1.274309461404666,5901.850211871047
0.556,-1.260885062152129,5908.554288795375
0.56,-1.2370167050067553,5895.238969354339
0.5640000000000001,-1.2085089945025622,5902.270380520287
0.5680000000000001,-1.1813201141573795,5906.283353936755
0.5720000000000001,-1.1601637049076658,5902.349385939054
0.5760000000000001,-1.1475982092897035,5895.062558888495
0.58,-1.1438182613312855,5899.418382667734
0.584,-1.1471249666087233,5896.614752323093
0.588,-1.1547976881408384,5895.844807818089
0.592,-1.163950118870284,5899.854889877109
0.596,-1.172053110736889,5900.356937320218
0.6,-1.177116879789922,5903.851866159011
0.604,-1.177784238864842,5897.831640478366
0.608,-1.1735358595284278,5900.829378720715
0.612,-1.1649256832820782,5905.28755679203
0.616,-1.1535852004484417,5891.069389943622
0.62,-1.1418535030942776,5898.427205991155
0.624,-1.1321706934592424,5897.546875397607
0.628,-1.126530766504133,5898.508028001716
0.632,-1.1261850992778117,5905.047651963228
0.636,-1.1315449026141475,5904.530373715259
0.64,-1.1421007060117723,5895.508042287228
0.644,-1.1562864647267668,5905.933553068853
0.648,-1.171452313944055,5899.839884229762
0.652,-1.1842162859801044,5899.727370825623
0.656,-1.1912851859094578,5900.942171981331
0.66,-1.1905037080337353,5893.169805933874
0.664,-1.1817089521800541,5898.194186576965
0.668,-1.1670575987112504,5893.943341943377
0.672,-1.1507112332498346,5896.111307842887
0.676,-1.1379403627562865,5894.473116937236
0.68,-1.1338150801822873,5899.659441213601
0.684,-1.1417524883118044,5898.251822318248
0.6880000000000001,-1.1623011044432665,5898.4268239603125
0.6920000000000001,-1.1925820219483914,5902.1387164044045
0.6960000000000001,-1.2266886997873137,5900.148337398759
0.7000000000000001,-1.2570671353604552,5895.941023189632
0.704,-1.2765418572327454,5892.959979891473
0.708,-1.28036251401259,5907.352778984546
0.712,-1.2675662217893864,5903.1221592095135
0.716,-1.2411536133151442,5891.993254490985
0.72,-1.206998418328111,5895.965107338669
0.724,-1.1718737887163355,5897.953030647438
0.728,-1.1412962294897258,5901.780309457864
0.732,-1.1179501856664167,5907.725207380378
0.736,-1.1012329691040015,5906.369672840909
0.74,-1.0880165907591017,5902.224152993719
0.744,-1.0742573488830724,5895.472931272562
0.748,-1.0568137967105011,5902.719150827532
0.752,-1.0348239577882996,5903.103461715388
0.756,-1.0101778664914929,5897.276723572561
0.76,-0.9869432791260623,5900.345057958291
0.764,-0.9699998817962556,5901.468287632402
0.768,-0.9634572025696666,5899.82006878199
0.772,-0.9694852905681035,5901.6608952433
0.776,-0.9879269925234557,5906.904856512677
0.78,-1.0166472645277131,5904.782524867764
0.784,-1.0522507381110917,5906.200451174294
0.788,-1.0907365104230642,5895.174644244162
0.792,-1.127897179945702,5904.923142625086
0.796,-1.1596303828422319,5907.025404279655
0.8,-1.1824613929532395,5895.390119817874
0.804,-1.1943063770083695,5901.257440327564
0.808,-1.195123198019398,5896.729350726391
0.812,-1.187024538811357,5902.897080535281
0.8160000000000001,-1.1737271878193243,5898.620067065199
0.8200000000000001,-1.1595741506773298,5907.333317321789
0.8240000000000001,-1.148515933830197,5895.539033144294
0.8280000000000001,-1.1433504847320852,5895.96504738237
0.8320000000000001,-1.1453331632508634,5911.032217083412
0.836,-1.1541199214956352,5899.156512168266
0.84,-1.1679607994066974,5903.986337931394
0.844,-1.184087491870162,5893.649809393304
0.848,-1.1992679823770362,5899.917284024877
0.852,-1.2104706333855628,5899.526817391767
0.856,-1.2154886168727266,5902.308264253394
0.86,-1.2133267193840724,5896.1852985716605
0.864,-1.2042450749390567,5893.24726544872
0.868,-1.1895249852487264,5905.369401443892
0.872,-1.171116349554809,5898.474924800586
0.876,-1.151294029725773,5900.178212719973
0.88,-1.132370231690297,5898.270672926522
0.884,-1.1164601951363649,5906.670613363068
0.888,-1.1052796953282196,5898.830258536888
0.892,-1.0999335883959758,5904.800996717338
0.896,-1.1006526759036555,5907.483214533511
0.9,-1.106512235221528,5903.649992579517
0.904,-1.1153073632754409,5894.305538778135
0.908,-1.1238187794819698,5901.038194161039
0.912,-1.128544352464975,5898.77781095179
0.916,-1.1266810450500069,5898.290579508919
0.92,-1.1169622147376002,5911.928168324149
0.924,-1.100028231367522,5907.092219841184
0.928,-1.078257929545936,5904.864147296878
0.932,-1.0552302530259832,5897.549308822239
0.936,-1.0350721707733843,5905.592618955849
0.94,-1.0218461260342946,5896.806898966036
0.944,-1.018954403696579,5905.47965293694
0.948,-1.028496113801684,5891.706752669214
0.952,-1.0506768666343385,5902.635524102512
0.956,-1.0835376972591253,5900.620880859565
0.96,-1.1231972907322096,5900.927170606933
0.964,-1.1645357513638053,5901.2121180188215
0.968,-1.2020450835723742,5898.9392623609865
0.972,-1.2305767471483284,5902.082942626973
0.976,-1.2458766549645315,5905.544851318144
0.98,-1.2450014206436761,5904.857383052089
0.984,-1.2268259531707235,5895.07826004232
0.988,-1.1927175547313469,5907.001076093538
0.992,-1.1470773065081343,5900.456511794362
0.996,-1.097184762271181,5898.046486813426
1.0,-1.0519815027932677,5908.428268034942
1.004,-1.020002436593416,5893.989339775742
1.008,-1.0071723928548175,5896.375649942424
1.012,-1.0153022345424103,5888.346407141558
1.016,-1.0418278547437694,5897.308315112198
1.02,-1.0808228732708667,5915.266709847564
1.024,-1.1248338786794687,5896.479099881091
1.028,-1.1668441865007093,5904.989658150767
1.032,-1.2017374799518479,5908.269007771991
1.036,-1.226934612535746,5901.242202066494
1.04,-1.2422537135577343,5902.344967154648
1.044,-1.2492910646002189,5894.114733603287
1.048,-1.250625424700963,5895.337257079009
1.052,-1.2490258578963,5906.175724047148
1.056,-1.246784924792864,5900.088604707573
1.06,-1.2453053657982653,5904.577465735441
1.064,-1.2450134984487762,5891.573300052586
1.068,-1.2455588913357702,5899.883690481129
1.072,-1.2461928301707694,5894.2799441669695
1.076,-1.2462132366060268,5904.519235608649
1.08,-1.245339993316623,5901.181065749683
1.084,-1.2438274631075834,5901.500641956939
1.088,-1.2421660921294426,5894.158497277214
1.092,-1.2404751723285203,5893.839162184622
1.096,-1.2379715915432359,5903.9499616009525
1.1,-1.232913847036469,5898.049638434804
1.104,-1.2231275785687246,5902.9567510622965
1.108,-1.2068814648167434,5895.125300397933
1.112,-1.183735982619841,5902.436260647844
1.116,-1.1550374815034083,5901.829292814738
1.12,-1.1238722305494862,5897.5552524438335
1.124,-1.0944735647953936,5910.683146357443
1.128,-1.0712478101542433,5908.436916987154
1.132,-1.057683273024555,5906.624512987149
1.136,-1.0554274818620488,5901.56768036208
1.14,-1.063811579544189,5887.8901334725
1.144,-1.0800284068836568,5892.671233946181
1.148,-1.0999491476122154,5901.008583709278
1.152,-1.1192779367523975,5904.74921383384
1.156,-1.1346181012830203,5899.080356956718
1.16,-1.1441459385930288,5899.502501027544
1.164,-1.1478181985397222,5904.944917128004
1.168,-1.1471875086490364,5895.884983874704
1.172,-1.1449094558542439,5906.304991844148
1.176,-1.1439958939280457,5893.694161808165
1.18,-1.1469178017379098,5896.361159629946
1.184,-1.1547667740638963,5894.752908344911
1.188,-1.1667344147514396,5905.89047497675
1.192,-1.1801326352260488,5894.786533672947
1.196,-1.1910941238783705,5904.021361869427
1.2,-1.1959166797443062,5905.937888622522
1.204,-1.1926877336940944,5893.4943923730925
1.208,-1.1824952381570843,5895.443067441658
1.212,-1.1695154755786505,5901.980425437352
1.216,-1.159727330620811,5904.408882877015
1.22,-1.1587190620449592,5898.360650076322
1.224,-1.1695621188701741,5905.956953849521
1.228,-1.191680328876004,5905.359514598221
1.232,-1.2210880143198197,5898.988964086905
1.236,-1.2516876927598382,5906.61311304145
1.24,-1.2769315462589623,5902.962485549281
1.244,-1.291244322893011,5893.937155624426
1.248,-1.2909847459331856,5895.293499394895
1.252,-1.2749954615667478,5897.647181035437
1.256,-1.2447918768476443,5906.003412563147
1.26,-1.2043525749399147,5908.654836240689
1.264,-1.1594855557707269,5896.202099023157
1.268,-1.1168323898072468,5889.691411584422
1.272,-1.0826738019314492,5901.1673597609
1.276,-1.0617893927441369,5913.364519602194
1.28,-1.056613716274274,5894.379702950465
1.284,-1.0667840677542717,5899.351450936674
1.288,-1.0890668449213592,5895.182009137738
1.292,-1.1177376573066033,5909.235995908074
1.296,-1.1456036735802226,5902.946016789002
1.3,-1.1656855697067547,5902.750901364046
1.304,-1.1731437361634283,5900.200251232482
1.308,-1.1667236414376247,5892.288245896708
1.312,-1.1491010438338607,5900.68408066905
1.316,-1.1259474804043206,5900.72315871822
1.32,-1.1040432257314945,5898.594604873847
1.324,-1.0891282217968135,5894.566707807098
1.328,-1.084255166358024,5900.415233259767
1.332,-1.0891480198913224,5904.382244113198
1.336,-1.1006408439275095,5904.069656289593
1.34,-1.113917256701862,5902.156808181786
1.344,-1.1240718312900557,5897.057105137346
1.348,-1.1274721842147672,5896.630265898844
1.352,-1.1225563739374174,5896.905747763505
1.356,-1.1099756287900917,5900.08856248999
1.36,-1.0921812838067972,5903.587090660732
1.364,-1.0726288584903432,5899.30989804766
1.368,-1.0548582416492545,5898.202573361461
1.372,-1.0417636419948901,5902.883557928813
1.376,-1.035244007361051,5899.179409373165
1.38,-1.0361758012934956,5899.261077065578
1.384,-1.0444823782585717,5902.988318491756
1.388,-1.059112625122923,5899.19467391303
1.392,-1.0779360783147292,5897.348127765869
1.396,-1.097736760016613,5892.414840433313
1.4,-1.1144922046606178,5902.797613225859
1.404,-1.123977914445498,5895.539063333095
1.408,-1.1225912131108808,5900.02615131398
1.412,-1.108234455783929,5894.65009515448
1.416,-1.081078990595006,5902.481853191546
1.42,-1.0439715172037767,5896.09196876762
1.424,-1.0022164693511586,5903.050503996597
1.428,-0.962621798520405,5896.888475404313
1.432,-0.9320168651929607,5892.509306879808
1.436,-0.9157213045115585,5908.724404437837
1.44,-0.9164650364593724,5906.30937219962
1.444,-0.9340368648872973,5907.692252071202
1.448,-0.9656438279769367,5890.161996265031
1.452,-1.0067677470900775,5898.36717536253
1.456,-1.0522397259413192,5906.851688048928
1.46,-1.0972398812826674,5900.378685616258
1.464,-1.1379482803274859,5896.324544456734
1.468,-1.1716931389687295,5901.340350306171
1.472,-1.1966709604170238,5902.102026790544
1.476,-1.2115240950646566,5893.497657856146
1.48,-1.2151091983403224,5908.231266108914
1.484,-1.2066459400568124,5901.881123275267
1.488,-1.1861974054235604,5900.484944429948
1.492,-1.1552322129373036,5893.674263316108
1.496,-1.1169432281133658,5902.368680892
1.5,-1.0761002862953686,5893.192854191738
1.504,-1.0384452080208852,5904.604068739037
1.508,-1.0097954420898234,5890.166805545986
1.512,-0.9949861894035872,5905.412743943943
1.516,-0.9967294428229877,5905.347851570155
1.52,-1.0146143886988308,5902.440669598516
1.524,-1.0446979140503363,5894.149056473537
1.528,-1.0801280449663488,5897.852813823369
1.532,-1.1128814996495595,5896.844785429392
1.536,-1.136145651424943,5888.189554709052
1.54,-1.1464578214450272,5903.057022056921
1.544,-1.1446943742262088,5893.474460109757
1.548,-1.1354205368618786,5896.988063483118
1.552,-1.124801074148281,5899.272700660454
1.556,-1.117937989806698,5896.020541702068
1.56,-1.11679396012233,5889.661682672624
1.564,-1.1195657905926684,5898.124471272636
1.568,-1.1216482009108113,5897.302903285221
1.572,-1.1176283440370354,5899.22609003889
1.576,-1.1034458006505514,5893.623397554144
1.58,-1.0779668051767979,5905.974269785197
1.584,-1.0435526304711753,5910.759133884407
1.588,-1.0055727723868435,5896.308366717082
1.592,-0.9711234658506701,5898.220657672539
1.596,-0.9473823562640693,5899.49165118867
1.6,-0.9400308871543115,5897.053395868523
1.604,-0.9520482563786354,5899.70861842892
1.608,-0.9830135204926633,5898.298979025745
1.612,-1.0289488180754995,5899.471941338466
1.616,-1.082733048675942,5909.168121382535
1.62,-1.1351440095861451,5906.413229457426
1.624,-1.1765477577293473,5899.53262434337
1.628,-1.199085516868419,5901.343362548067
1.632,-1.1989546668955577,5904.4292294767365
1.636,-1.1782040585409932,5895.794353183525
1.64,-1.145475086185712,5905.765919472296
1.644,-1.1152507411817165,5895.788642469994
1.648,-1.1053435090462922,5902.651892695547
1.652,-1.1326255096255766,5906.55398539651
1.656,-1.2074867169128434,5892.543701781595
1.66,-1.3281378076563626,5902.811052125989
1.664,-1.4763672911709522,5892.116783905215
1.668,-1.616398669418572,5905.231578126017
1.672,-1.697987319956716,5895.939466258466
1.676,-1.664019540942669,5900.779081747069
1.68,-1.4618282770723063,5900.691531431941
1.684,-1.0563111860521968,5898.487448637586
1.688,-0.4418407012644141,5889.761921101272
1.692,0.350743227920815,5901.0824138223925
1.696,1.2554385698839916,5891.161609557476
1.7,2.182106243687134,5905.616473195301
1.704,3.035130645862518,5916.700075847502
1.708,3.734093926893799,5922.26247236283
1.712,4.2296639693945055,5930.35174051541
1.716,4.5100923738992575,5939.235342816144
1.72,4.597718589899419,5945.669876989497
1.724,4.538250573908424,5957.038395248881
1.728,4.387142558592029,5974.3630320306975
1.732,4.197168083464018,5980.069655962278
1.736,4.009835741932045,5998.356239816817
1.74,3.851455049267418,6006.621208403612
1.744,3.7332707084861845,6019.101637901468
1.748,3.6544312364211944,6032.698585578955
1.752,3.606390910721259,6037.545747861214
1.756,3.577417310032676,6045.408406739218
1.76,3.5561669466902552,6048.417078930896
1.764,3.5337889055264107,6062.441029813007
1.768,3.5045906672041016,6067.876648809784
1.772,3.465731859491709,6087.368594838623
1.776,3.4165192478535196,6091.289543588119
1.78,3.357695694091233,6093.637937405164
1.784,3.290876327536789,6095.355555302723
1.788,3.21816143308141,6101.92405205458
1.792,3.141931344754378,6122.9969338930605
1.796,3.0647940640194666,6119.065616969702
1.8,2.989569255909292,6136.673987435136
1.804,2.9191346382557044,6140.6459522710165
1.808,2.856033111625992,6159.218687988389
1.812,2.8019145031652943,6147.417025485272
1.816,2.757026918885093,6163.060687241868
1.82,2.719991350452152,6164.04342189169
1.824,2.6880082844386397,6178.216658143505
