时间(s),电压(V),幅值(高频80K)
0.0,-1.8265929975987039,5896.849405069845
0.004,-1.7246369922330762,5905.570220072489
0.008,-1.6296744955598832,5896.9242891728445
0.012,-1.548808230218904,5901.009194191833
0.016,-1.4886621261009925,5903.398126698372
0.02,-1.4545574662724696,5894.1516691858205
0.024,-1.4493458449241265,5895.713006778314
0.028,-1.4722766100245794,5900.074203988904
0.032,-1.5184635905960553,5894.399315410598
0.036,-1.5793351672828093,5907.829247715423
0.04,-1.6440219663072084,5897.485499586601
0.044,-1.7012923956400916,5889.771246426833
0.048,-1.741577057622378,5900.554879929967
0.052,-1.7587218562592823,5898.95206847902
0.056,-1.7511721789609755,5904.088377755635
0.06,-1.7222856806922549,5904.962902898362
0.064,-1.6795638564989936,5894.808799532519
0.068,-1.632896617207253,5889.395446464818
0.072,-1.592285236859577,5899.2737029668415
0.076,-1.5656797825428552,5892.298974153701
0.08,-1.5574558133682168,5897.761149426757
0.084,-1.567809780839869,5906.6596717392285
0.088,-1.5931193412584101,5909.080182013051
0.092,-1.6271136487639257,5899.275952165816
0.096,-1.6625167857908278,5900.626060539407
0.1,-1.6927177708282364,5902.435099133834
0.104,-1.7130662845053986,5901.523484581819
0.108,-1.721579651769156,5898.247767261015
0.112,-1.7190197775675835,5901.685583858563
0.116,-1.7083479375105413,5899.648491989383
0.12,-1.6936164214976193,5900.037784987308
0.124,-1.6785952743534334,5890.263465748069
0.128,-1.665709930966673,5903.353880453353
0.132,-1.6557728804986191,5894.975077505732
0.136,-1.6484744621654825,5902.632038949124
0.14,-1.6431345272699682,5894.236461875415
0.144,-1.6392057352978338,5899.983479649784
0.148,-1.6363434379405042,5904.0416255607
0.152,-1.6341932791601965,5900.825533366116
0.156,-1.6322124865064822,5902.357506314353
0.16,-1.6297745181488714,5905.820314426605
0.164,-1.6265646694085887,5903.252067354654
0.168,-1.6230374177834512,5882.690601958357
0.172,-1.6206234032449536,5897.814159167946
0.176,-1.6214708605475983,5906.0252613829
0.18,-1.6277344130481297,5905.132324455786
0.184,-1.6406630120888592,5904.00321873936
0.188,-1.6598538069368223,5903.4932514711
0.192,-1.683005418615454,5889.025962608981
0.196,-1.706360377587168,5907.517900599993
0.2,-1.7257716648127324,5901.049805120692
0.204,-1.738015959931226,5908.147311601606
0.208,-1.7417977307931436,5897.218723965587
0.212,-1.7380087096342294,5905.422361362338
0.216,-1.7291645862008975,5898.858383660204
0.22,-1.7183093264633735,5897.345027221768
0.224,-1.7078825797183088,5913.5774525257975
0.228,-1.6990242667497133,5910.276977963537
0.232,-1.6915462397945369,5909.02625729348
0.236,-1.6844454027697053,5901.965610781981
0.24,-1.6765858282968973,5904.81164824436
0.244,-1.6671899855802954,5896.596569773045
0.248,-1.65599030117506,5896.634837098416
0.252,-1.643121666431062,5894.4944110956985
0.256,-1.6289580696007095,5905.502700542275
0.26,-1.6140753091429187,5901.495144132116
0.264,-1.59936949170495,5900.858976069079
0.268,-1.586175101774463,5904.31247603967
0.272,-1.5761751332213623,5895.5599904266965
0.276,-1.571045490445327,5893.30692030901
0.28,-1.5719802810818575,5902.733047266782
0.284,-1.5793105586114489,5902.201537466839
0.288,-1.592347651191243,5905.734552725405
0.292,-1.6094751630084185,5899.212899600531
0.296,-1.6284242935831774,5904.485968355486
0.3,-1.646585341732087,5897.347774443973
0.304,-1.661215427979324,5903.099684400649
0.308,-1.66956818520963,5905.164725188749
0.312,-1.6691618020222823,5895.024103340253
0.316,-1.6583753129218692,5899.162996743705
0.32,-1.6372661607191648,5896.85378606512
0.324,-1.6081903297121962,5899.386559570571
0.328,-1.5757980820149229,5899.185805760319
0.332,-1.5462919235575667,5888.513453309283
0.336,-1.5261738358242511,5894.00141419192
0.34,-1.520827713012352,5904.462094020741
0.344,-1.5332278702940423,5891.1065558454175
0.348,-1.5630276170290458,5886.70239739176
0.352,-1.606295865152755,5897.519513608415
0.356,-1.6560796688278376,5908.70103852938
0.36,-1.7037085566231809,5898.499137978321
0.364,-1.7404832921697582,5893.910368986211
0.368,-1.7593082923558594,5896.47022283184
0.372,-1.7559544916891277,5890.538482602427
0.376,-1.729819392554125,5915.0335377410665
0.38,-1.6841276412581783,5900.033739694423
0.384,-1.6255068277760576,5898.872130638757
0.388,-1.5629156819582317,5906.0996134743045
0.392,-1.5060381413247508,5897.256704879085
0.396,-1.4634057390514625,5897.9154969358615
0.4,-1.4406311659135898,5896.315713931993
0.404,-1.4392274777530574,5894.788248380608
0.408,-1.4564442129455843,5899.211790902148
0.412,-1.4862506004507665,5897.049706788921
0.416,-1.5211406781573769,5909.8152185087065
0.42,-1.554116574337753,5908.415060632593
0.424,-1.5802181981131933,5906.416657597399
0.428,-1.5972568397332154,5900.058717424569
0.432,-1.605760476795349,5894.951875646588
0.436,-1.6083484926790566,5887.134497028507
0.44,-1.6087765964646128,5899.757530158101
0.444,-1.6108353523858416,5896.483635166883
0.448,-1.6172743100262656,5891.818058665161
0.452,-1.6289908007185345,5903.909090658317
0.456,-1.6447789726174695,5888.3596009316025
0.46,-1.6618195564727583,5893.977461886472
0.464,-1.6767524384761727,5889.271703643631
0.468,-1.68683198824848,5896.196405882932
0.472,-1.6906298110400044,5893.632649394014
0.476,-1.6880692678194835,5898.053974827137
0.48,-1.679997142986702,5906.285908056
0.484,-1.6677127232094298,5896.160238668458
0.488,-1.6527463512997649,5892.416518061649
0.492,-1.6368535319981514,5905.245235476718
0.496,-1.6219847986067513,5896.656391601231
0.5,-1.6100674410384925,5909.031733806889
0.504,-1.6026449323257252,5891.254647195238
0.508,-1.6005328841157633,5904.266153181954
0.512,-1.6036125362562945,5895.471989465707
0.516,-1.6107966428946918,5899.059154308663
0.52,-1.6201551425696006,5897.21754769464
0.524,-1.6291821420102592,5901.806516927112
0.528,-1.6351931396909785,5893.158759827323
0.532,-1.6358342077881693,5905.8412138112335
0.536,-1.6296369110590012,5894.495026012643
0.54,-1.6164817374040392,5893.995259675861
0.544,-1.5978074957718007,5897.856360476091
0.548,-1.5764556124544182,5895.181907655783
0.552,-1.5561313253243372,5892.8164658160895
0.556,-1.5405830123495279,5900.416584042833
0.56,-1.5327339881853086,5897.411402143918
0.5640000000000001,-1.5340450082855623,5901.102527956213
0.5680000000000001,-1.5442665436665455,5897.573823737347
0.5720000000000001,-1.561570027844919,5904.711466147748
0.5760000000000001,-1.5829575389828232,5900.758452759461
0.58,-1.604811476242376,5900.973066599869
0.584,-1.623433892927705,5897.344378608364
0.588,-1.6355083489543762,5904.28159069723
0.592,-1.6385519943914868,5893.723052139376
0.596,-1.6314290879159759,5909.392798152608
0.6,-1.6148256738533726,5904.4172194735065
0.604,-1.5914236099886983,5891.823421174768
0.608,-1.565538532895279,5898.802172598318
0.612,-1.5421912022808548,5900.2106349684345
0.616,-1.5258349497074926,5896.258602236298
0.62,-1.5191486667982297,5901.610521179113
0.624,-1.5223517347023414,5905.414206938941
0.628,-1.5333437427659065,5899.5368067648415
0.632,-1.548621192348899,5902.705915893418
0.636,-1.5645437190103273,5904.192695206059
0.64,-1.5783895651313118,5895.639485093107
0.644,-1.5888686720351022,5896.721350584672
0.648,-1.596134532945647,5897.133803418235
0.652,-1.6015172032908054,5893.517844087243
0.656,-1.6070981704269387,5901.890576155511
0.66,-1.6150810851994044,5898.539931821798
0.664,-1.6269386138293211,5898.875601622182
0.668,-1.6425496834333975,5893.462490581759
0.672,-1.6597426359615244,5892.485853783524
0.676,-1.674597268211817,5895.313052502103
0.68,-1.6825413560541895,5895.194802823682
0.684,-1.6799065874756205,5902.532205446765
0.6880000000000001,-1.665388653499625,5905.563518369049
0.6920000000000001,-1.6408705204502745,5898.874389994202
0.6960000000000001,-1.6112679507031895,5911.874026999015
0.7000000000000001,-1.5833442242631182,5906.948920354324
0.704,-1.56376700691572,5896.009812159069
0.708,-1.557001345751141,5898.191616619841
0.712,-1.5638007731227297,5894.929149900034
0.716,-1.5808993248416487,5898.662126056863
0.72,-1.6020410156645741,5896.844279812118
0.724,-1.6199574604861853,5903.266760305326
0.728,-1.6285907829617483,5893.457060469864
0.732,-1.6248611600497935,5901.143805380135
0.736,-1.6095071840824118,5901.460765256305
0.74,-1.5868309748826326,5899.187108357929
0.744,-1.5634793654968855,5905.962789857781
0.748,-1.5466492493084698,5901.421001802342
0.752,-1.5422294522343403,5905.252293248166
0.756,-1.5533220777296255,5902.61838007901
0.76,-1.5794093465745538,5898.570996609753
0.764,-1.6162867741578797,5903.903631828657
0.768,-1.6567973306443435,5894.464152211392
0.772,-1.6922937672298783,5899.452102968076
0.776,-1.714572045141304,5898.723374542075
0.78,-1.7178155015596934,5900.090028876663
0.784,-1.700000325680769,5904.766942290688
0.788,-1.6633350956846937,5901.524096430402
0.792,-1.6136135404700767,5898.249824484248
0.796,-1.5587112273438244,5899.642540671644
0.8,-1.5067153042082484,5902.920403793996
0.804,-1.4642744342174956,5904.073684827433
0.808,-1.435653891173315,5898.354824983774
0.812,-1.4226697072759547,5904.513133971896
0.8160000000000001,-1.4252703591298814,5897.227638969412
0.8200000000000001,-1.4422663765204695,5902.035932949846
0.8240000000000001,-1.4717571270914316,5907.330501476088
0.8280000000000001,-1.5111217609470746,5897.387282432964
0.8320000000000001,-1.5567760356758795,5895.49713995414
0.836,-1.604039056136203,5901.332568633606
0.84,-1.6474011446673564,5901.808758600162
0.844,-1.6813188564441521,5899.094057983162
0.848,-1.7014212514590845,5912.792098150569
0.852,-1.7057567872774615,5895.509047403272
0.856,-1.6955892269702328,5897.695633575795
0.86,-1.6753660181971224,5904.47193683359
0.864,-1.6517735520454566,5897.839471159122
0.868,-1.6321003481601513,5896.5203690689705
0.872,-1.6223471196127972,5890.434591975187
0.876,-1.6256389786877457,5902.261400126964
0.88,-1.6414692200191205,5905.443352022395
0.884,-1.6660458256691093,5901.441483192099
0.888,-1.6935666148300996,5901.426114969289
0.892,-1.7178786939380535,5903.654499271713
0.896,-1.7339220619851778,5900.2445065695965
0.9,-1.7385836183774244,5896.586926113067
0.904,-1.7308787820264941,5900.535732175041
0.908,-1.7115966353676357,5888.444997549922
0.912,-1.6826950127922298,5905.287440599018
0.916,-1.6467923932428155,5895.572570420985
0.92,-1.6069819696844527,5890.612949935073
0.924,-1.5669137597284573,5902.109331552779
0.928,-1.5308576919528447,5901.799215506623
0.932,-1.5034417461170528,5900.091001280357
0.936,-1.4889332909932669,5897.485783459739
0.94,-1.490197434328902,5899.446244570731
0.944,-1.5077206956359528,5904.660396092615
0.948,-1.5391706184786318,5901.413704006168
0.952,-1.5797520850912241,5910.007497089855
0.956,-1.6232467927675875,5907.271010231008
0.96,-1.6633628623961567,5898.444066387457
0.964,-1.694999112056238,5897.031548257609
0.968,-1.7151505247835714,5903.371720012416
0.972,-1.7233204103949753,5907.372505207972
0.976,-1.7214042242272654,5897.918172098285
0.98,-1.713077728264393,5900.0776217488
0.984,-1.702791169138012,5906.764231301463
0.988,-1.6945538831839264,5894.488951879211
0.992,-1.6907759887215612,5906.128506081397
0.996,-1.691489226366928,5901.120730229435
1.0,-1.6942524211284595,5898.530610467358
1.004,-1.6949102385771402,5891.128719411255
1.008,-1.6891115770341816,5900.823668130378
1.012,-1.6741699306738587,5900.356429901463
1.016,-1.6505921205149465,5908.867035944689
1.02,-1.6225739177525256,5901.828004426951
1.024,-1.5970713350187902,5896.41979271884
1.028,-1.5816520814202863,5892.403461152211
1.032,-1.5819267118487927,5900.18778759537
1.036,-1.599575127109994,5890.61887153732
1.04,-1.6316861900691892,5902.475259086434
1.044,-1.6715531143396065,5897.265178949912
1.048,-1.7105560896822425,5901.714599005253
1.052,-1.7404794619781863,5898.756965749668
1.056,-1.7555506035910475,5908.033331252873
1.06,-1.7536300448331206,5893.313370154637
1.064,-1.7363194197950995,5894.024229933046
1.068,-1.7081717755694474,5901.012216811063
1.072,-1.6754278006450993,5895.5348983003
1.076,-1.6446125486400454,5902.585269914811
1.08,-1.621128554728401,5899.683351256216
1.084,-1.6079940098779069,5903.646471470683
1.088,-1.6050447050854695,5901.054635257928
1.092,-1.6089272706777435,5901.019720627799
1.096,-1.6139807120044183,5903.50865357515
1.1,-1.6138346583518333,5891.869188972816
1.104,-1.603384627020769,5899.823533560027
1.108,-1.58073763318594,5903.837908414807
1.112,-1.548720862588823,5894.144728809712
1.116,-1.5155337766628243,5901.491927523871
1.12,-1.4940644002709622,5887.163751542316
1.124,-1.4994317293328279,5896.280304151994
1.128,-1.5446642494004859,5895.964847594749
1.132,-1.6350974824722653,5900.402555151201
1.136,-1.7628411741397865,5898.337048107255
1.14,-1.9031681269626295,5896.105195003878
1.144,-2.0146189267208667,5900.997247393334
1.148,-2.0439342823312425,5903.144603478721
1.152,-1.9357631080488105,5897.535668792151
1.156,-1.6456730302797535,5901.165668829573
1.16,-1.1535640118908954,5903.846917354651
1.164,-0.4735418201504676,5903.623804318791
1.168,0.34372209892222694,5897.599663609629
1.172,1.2184427942796863,5900.315059964054
1.176,2.057878055721065,5912.704285852814
1.18,2.776376286272498,5914.970753148531
1.184,3.3128405881230307,5941.288167394041
1.188,3.640623022144384,5943.288219818316
1.192,3.768228180390227,5950.266766178901
1.196,3.7322839715355687,5964.54095132942
1.2,3.5859216039704767,5972.707127540841
1.204,3.3860545828534905,5977.053603992872
1.208,3.1824732592612683,5986.930984075564
1.212,3.010613376165748,5992.833824339425
1.216,2.888710993931224,6010.87000294203
1.22,2.8190349538826434,6018.738053275532
1.224,2.7920634836945295,6027.784432000702
1.228,2.791981615275414,6042.495604896734
1.232,2.8018961708628494,6041.070868110122
1.236,2.8076663723247934,6056.727896684188
1.24,2.7999392234827893,6056.406449574008
1.244,2.7745387780804345,6066.304865409989
1.248,2.731659569707025,6079.022879472125
1.252,2.6744078737141455,6092.859328322064
1.256,2.6072144485384965,6095.661718721786
1.26,2.5345541756310914,6100.414645326678
1.264,2.4602336795905373,6106.133105240945
1.268,2.3872460606831942,6124.843644641734
1.272,2.317948811989459,6122.751850648897
1.276,2.2542509561675623,6121.784914855417
1.28,2.197624085454838,6130.480517452126
1.284,2.1489393542768433,6141.005960158993
1.288,2.1082524011829133,6148.549785836732
1.292,2.0747063034825897,6146.581292000864
1.296,2.0466979505262635,6162.300338347111
1.3,2.0223140283537067,6162.124617492987
1.304,1.9998494161888583,6165.007395531207
1.308,1.97813092729959,6182.204518809169
1.312,1.9564626612642548,6179.655920839196
1.316,1.9342423021273185,6184.395007936821
1.32,1.9105455871349128,6193.933384164732
1.324,1.884046055886847,6199.097180203713
1.328,1.853418559082228,6198.317415117884
1.332,1.8180231761864558,6209.756428221557
1.336,1.77847078966758,6210.248461446885
1.34,1.7367541184839381,6228.806058047011
1.344,1.6958798698241824,6235.052935652253
1.348,1.6591773044250187,6234.34963812226
1.352,1.6295592585001248,6236.330775971665
1.356,1.608942947026135,6237.8370973048295
1.36,1.5978751428269347,6241.480849234591
1.364,1.595303012377156,6248.269461206648
1.368,1.5984870972533753,6245.400411543534
1.372,1.6031753823747652,6252.494470754188
1.376,1.6041688398815785,6254.789900141906
1.38,1.5962816877875337,6270.512534348349
1.384,1.5755463232397744,6276.541593904065
1.388,1.5403850344001828,6275.706636187149
1.392,1.4923683528327565,6280.132360358833
1.396,1.4361951962086779,6275.613682486155
1.4,1.3787537748489527,6287.366607693165
1.404,1.3274688567969664,6286.9996014879725
1.408,1.2884176898540034,6288.846704561241
1.412,1.2647790396576104,6310.536603949024
1.416,1.2560641046484644,6299.474522144986
1.42,1.2583330309982286,6303.330076466224
1.424,1.2653027506492585,6300.761258852107
1.428,1.2699867526077846,6305.595695748437
1.432,1.2663865951004707,6306.192044165173
1.436,1.2508223833022662,6312.620263342927
1.44,1.2226529366961971,6314.630377241964
1.444,1.18428441375504,6312.844313360281
1.448,1.1404823722528556,6321.733658979805
1.452,1.0971263398339142,6335.192454987758
1.456,1.0597006088590994,6331.469454589763
1.46,1.0319517513268317,6324.975641399292
1.464,1.0151410468854518,6327.43958131265
1.468,1.0081145144336172,6337.125596721821
1.472,1.0080911479324282,6332.110261228602
1.476,1.0117835571818863,6337.529394086077
1.48,1.0163521389923276,6342.791253768058
1.484,1.0198412520382907,6344.828741529406
1.488,1.0210765245048514,6348.430654971864
1.492,1.0192722071372162,6345.745028131776
1.496,1.0136406496963393,6351.574901636811
1.5,1.0031859232339175,6355.37676793204
1.504,0.9867563924804874,6354.023877820149
1.508,0.9633629985225376,6360.890690676149
1.512,0.9326830546199993,6364.630297163276
1.516,0.8955593763284997,6355.237156501854
1.52,0.8542570877422655,6365.1509353579495
1.524,0.8123135540409039,6367.111065802261
1.528,0.7739604514753697,6363.034064140593
1.532,0.743237934522876,6378.425863474339
1.536,0.7230450427092645,6369.615606511268
1.54,0.714442106601242,6371.934498701849
1.544,0.7164402312910615,6378.180374439045
1.548,0.7262745219686243,6371.019209137096
1.552,0.7399510007368005,6384.9467882561
1.556,0.7528813351295598,6378.610388826079
1.56,0.7606175730990248,6376.243159357026
1.564,0.7597753230115812,6384.055243586019
1.568,0.7490128215760866,6388.179894144521
1.572,0.7296317037304921,6390.799487446759
1.576,0.705358572918791,6381.428556888787
1.58,0.6812299224274555,6398.98525778333
1.584,0.6619495597022207,6378.087083303737
1.588,0.6503275834752817,6391.600428011659
1.592,0.6463833979596821,6395.191356794666
1.596,0.6474584779743693,6394.221572973236
1.6,0.649303582312692,6394.845378603779
1.604,0.6477290310778525,6394.29826294881
1.608,0.6402256965537089,6401.070633378038
1.612,0.6270194334457346,6398.275673046524
1.616,0.6112153901015698,6397.31610201283
1.62,0.5979584029911155,6397.3817584814215
1.624,0.5928513000740548,6413.014984429402
1.628,0.6001271303930017,6406.567924451827
1.632,0.6211381591476288,6401.073828289376
1.636,0.6536040064543855,6397.342830834457
1.64,0.691849998259903,6404.687534740398
1.644,0.7280109788977465,6397.044739443655
1.648,0.7538849803401797,6410.228275086974
1.652,0.7629035119975585,6407.974423229369
1.656,0.7516899870662228,6409.835350887607
1.66,0.7208741150177361,6421.02748405061
1.664,0.6750278619574245,6418.070247562588
1.668,0.6217124369376507,6421.367038109092
1.672,0.5697759595614633,6412.778830367078
1.676,0.5272706787769383,6421.29303256131
1.68,0.4995598008389489,6413.135532128781
1.684,0.48819719069439094,6416.890195487302
1.688,0.49092141489682106,6415.321199059676
1.692,0.5027058081737977,6428.0307969054375
1.696,0.5174426860614826,6416.460601753692
1.7,0.5296689066720609,6425.830334158884
1.704,0.5358193639912956,6413.17614458148
1.708,0.5347643196885756,6424.159077974058
1.712,0.5276748066466196,6421.542604390712
1.716,0.5174154431442235,6430.573361113214
1.72,0.5076773317775798,6420.348183032187
1.724,0.5020178430199791,6435.788316300376
1.728,0.5029483805140013,6425.184744955621
1.732,0.511245006735906,6434.481567592094
1.736,0.5256946888647936,6427.288585541664
1.74,0.5434087671890011,6432.539212391584
1.744,0.5606113739072244,6437.869179631756
1.748,0.5735907264892458,6432.95399139652
1.752,0.5794573438858465,6425.298520755419
1.756,0.5765131245148706,6428.506425662229
1.76,0.5642699684548389,6421.4087754688535
1.764,0.5432989486714773,6444.434105877854
1.768,0.5150692291220313,6436.113563868972
1.772,0.48182128103969424,6428.975434853359
1.776,0.446433118393894,6430.802426535591
1.78,0.41222392857824064,6429.260889516188
1.784,0.3826583130202758,6444.079670369734
1.788,0.3609356986525423,6442.709889862622
1.792,0.34948215231122365,6440.745139617704
1.796,0.34941326540765666,6447.523626129022
1.8,0.3600923241719736,6441.94003809718
1.804,0.3789510723363995,6434.185473063641
1.808,0.40174450596222,6432.733613680855
1.812,0.42332707145142584,6446.694103036125
1.816,0.43884190875966167,6443.660213313157
1.82,0.4449736078951866,6437.53673740733
1.824,0.4407906061884926,6445.044617392095
1.828,0.4278417540569741,6443.146922777288
