时间(s),电压(V),幅值(高频80K)
0.0,-1.6575409936616181,5896.394801681245
0.004,-1.6572715720537525,5904.863236947342
0.008,-1.6559491555226082,5899.645852867654
0.012,-1.6533026622655256,5894.761700874971
0.016,-1.650407632139972,5905.256081653481
0.02,-1.6493824574945377,5901.040613197039
0.024,-1.6524377842832754,5897.994451094833
0.028,-1.6608574585385114,5891.660967272363
0.032,-1.6745733023464497,5903.049839560672
0.036,-1.6924711308075262,5895.127037382795
0.04,-1.7129518787764495,5901.759592208869
0.044,-1.7341830849930404,5896.010025686078
0.048,-1.7539427188910182,5898.566965253716
0.052,-1.7694792829699686,5900.156043855559
0.056,-1.7778603691749604,5894.693872349299
0.06,-1.7767849335831094,5897.645723191652
0.064,-1.765315815156013,5896.073871284171
0.068,-1.7440311899788834,5893.606930210591
0.072,-1.7146234483933347,5920.056368374456
0.076,-1.6793740240714423,5900.3428399604245
0.08,-1.640831968188245,5901.720280211164
0.084,-1.601667680379505,5896.776368812523
0.088,-1.5645123399408536,5904.787901008977
0.092,-1.5317269649740957,5896.551845099856
0.096,-1.505182420484742,5900.054893410629
0.1,-1.486069697668124,5892.185540949777
0.104,-1.474675707787587,5906.686265877403
0.108,-1.4701789417014364,5896.51960284537
0.112,-1.4707042415057379,5898.745563530608
0.116,-1.4738217227482124,5905.952076344225
0.12,-1.4773838290975498,5902.5615441546015
0.124,-1.4803614394313918,5902.288548698
0.128,-1.4833218277250768,5899.068174208978
0.132,-1.4882885340454917,5910.621340145437
0.136,-1.4978817118153611,5903.732794010047
0.14,-1.5139487137146297,5900.193352204269
0.144,-1.5363044386348383,5898.248526926946
0.148,-1.5623651917003174,5903.62600929251
0.152,-1.5880728553013688,5894.54459819361
0.156,-1.6097158264011615,5900.371116394304
0.16,-1.6256252220416565,5895.776665461642
0.164,-1.6367650329830976,5904.570662313762
0.168,-1.6459498482155253,5904.212460242715
0.172,-1.656297175210312,5893.648811562583
0.176,-1.6699093194220145,5904.361783819716
0.18,-1.6874325253048565,5907.358724702893
0.184,-1.7084112215523246,5891.633008375942
0.188,-1.7318661895335716,5894.373481485886
0.192,-1.7566000962364154,5898.3572338046415
0.196,-1.7811539460203134,5902.941831100274
0.2,-1.8036640959210206,5898.112935957154
0.204,-1.8219076970492585,5901.357203718535
0.208,-1.8336757109312567,5893.174192059727
0.212,-1.837394853587319,5902.459837858642
0.216,-1.8327054851894307,5895.007155120068
0.22,-1.8206478821981258,5907.645070153617
0.224,-1.8033233643610844,5893.693421663497
0.228,-1.783210238004974,5893.117971976944
0.232,-1.762440662617344,5901.926595240162
0.236,-1.7422395440617924,5897.641536380733
0.24,-1.7226045728736012,5904.574658376974
0.244,-1.702320765758411,5906.043588539812
0.248,-1.6794510255416233,5903.039324299281
0.252,-1.6523257020732676,5898.135631763527
0.256,-1.6207468804489076,5895.188534796872
0.26,-1.5868434561613938,5908.364754018101
0.264,-1.5550334634596632,5900.253328577119
0.268,-1.530953927096433,5898.678010408055
0.272,-1.519759429403363,5907.269657424599
0.276,-1.5244704569799785,5899.302184111109
0.28,-1.5449325421572864,5895.314342949791
0.284,-1.5776493133965286,5901.453003746455
0.288,-1.6165077154225054,5900.489267686523
0.292,-1.6542149665620973,5905.789157798167
0.296,-1.6840463669504309,5902.066898774386
0.3,-1.7013610037650195,5898.544359594137
0.304,-1.704437640643704,5903.322884823107
0.308,-1.6944795193419064,5900.597477485128
0.312,-1.6749248017763128,5894.0442638397535
0.316,-1.6503396790801197,5904.469053665995
0.32,-1.6251938933507273,5906.680245882407
0.324,-1.6028036272612316,5905.316308901342
0.328,-1.5846856735915396,5899.356714096436
0.332,-1.5704704763581543,5906.35830324013
0.336,-1.5583852678950778,5903.252398082535
0.34,-1.5461733678326524,5904.514148706704
0.344,-1.5321558029997766,5901.529317860263
0.348,-1.516024488386173,5896.010182650433
0.352,-1.4990395155448712,5897.324189441348
0.356,-1.4836086063605687,5896.914578262643
0.36,-1.4725275016959127,5902.066878725003
0.364,-1.468237619341287,5894.446200884336
0.368,-1.4723242042743978,5891.743880910281
0.372,-1.4853033488152014,5900.07794141809
0.376,-1.5066512438162816,5897.754703245318
0.38,-1.5349773830600806,5906.586449682043
0.384,-1.5681874443629256,5912.331127702031
0.388,-1.603523711064325,5894.685546348209
0.392,-1.637564852095028,5900.939556504957
0.396,-1.666419834910902,5886.978264021607
0.4,-1.6862737606352558,5894.694656413886
0.404,-1.6942163408218744,5900.107996614273
0.408,-1.6890893852880358,5896.956974315965
0.412,-1.6719864904304513,5899.752380733394
0.416,-1.6460559547872793,5895.155780177799
0.42,-1.6155093127916857,5895.779567383954
0.424,-1.584213420767777,5900.422541817484
0.428,-1.5546181672865522,5901.914505581849
0.432,-1.5276452421309934,5897.956697695477
0.436,-1.5035280644887998,5905.2098113987495
0.44,-1.4829252010420249,5905.058903448231
0.444,-1.4674507982105796,5896.286006585484
0.448,-1.4591858979222552,5899.256649354662
0.452,-1.4594325760857494,5897.4130021414885
0.456,-1.4674837536845762,5905.136993222419
0.46,-1.4802010308558715,5901.1575186498285
0.464,-1.492739720403495,5913.537138341269
0.468,-1.500126477080688,5897.191940154073
0.472,-1.4989606371018545,5899.679121340401
0.476,-1.4885193119472642,5904.0076056169855
0.48,-1.470929395175134,5893.289750973534
0.484,-1.4505169888326708,5904.114738155996
0.488,-1.4326976927724264,5895.598833398066
0.492,-1.4227760505201124,5898.799493087419
0.496,-1.4248648019511412,5894.741892472366
0.5,-1.4409895101843664,5892.34504759879
0.504,-1.4704799306666192,5897.590533820818
0.508,-1.5098912578492336,5895.839217889464
0.512,-1.5536571955798355,5901.715459410647
0.516,-1.5953700189206537,5900.098764571674
0.52,-1.6292817115397706,5896.805624747501
0.524,-1.6515638119611087,5905.675083230853
0.528,-1.6609959868107809,5897.344003671547
0.532,-1.6589207432308306,5907.055072702928
0.536,-1.6484694223788452,5895.751653316515
0.54,-1.6332748898107485,5906.413381193403
0.544,-1.6161154596829164,5896.488696476641
0.548,-1.598042231827604,5890.706377779887
0.552,-1.5784008163135546,5899.724553823346
0.556,-1.5558024660672294,5907.437201686978
0.56,-1.5296650305227848,5897.018935463326
0.5640000000000001,-1.501587680293002,5905.244281067814
0.5680000000000001,-1.4757789309478924,5892.328109596373
0.5720000000000001,-1.4581951378643674,5889.815892067257
0.5760000000000001,-1.4547467125261122,5901.195841388544
0.58,-1.4693815140180475,5904.095703390953
0.584,-1.5027821731253206,5896.363646900068
0.588,-1.5520065385816133,5901.852625031252
0.592,-1.6110219876680185,5897.753082837787
0.596,-1.6719050545765566,5899.555767048942
0.6,-1.7264299258065348,5903.187316462855
0.604,-1.7677368001147387,5906.003281688639
0.608,-1.7917173633478332,5912.288273052818
0.612,-1.7977393595336983,5908.659182371316
0.616,-1.7884568165524237,5901.987815448919
0.62,-1.7687299675152666,5892.061391304819
0.624,-1.7439812828411592,5895.982836034225
0.628,-1.7184955391294099,5905.023465138017
0.632,-1.6941943590970938,5902.46351322508
0.636,-1.6703076543035302,5906.493448294004
0.64,-1.644118130300491,5891.875324009905
0.644,-1.6125734010388648,5891.957346992813
0.648,-1.5741839502784931,5898.006613390724
0.652,-1.5304759951599507,5904.835851190438
0.656,-1.4864405391544757,5905.617769729507
0.66,-1.449794552047877,5903.892293785214
0.664,-1.4292317967796384,5899.0485662191895
0.668,-1.4320693804162752,5906.30918191102
0.672,-1.4618513212917519,5892.095907405822
0.676,-1.5166197577782337,5895.915791758518
0.68,-1.588561085803956,5904.571862955272
0.684,-1.6653614585849572,5898.608203779007
0.6880000000000001,-1.7329530343912485,5895.7782540199305
0.6920000000000001,-1.7788029358788238,5895.809119733165
0.6960000000000001,-1.7947876298986416,5899.115697106275
0.7000000000000001,-1.7789432438173824,5898.567928051161
0.704,-1.735756974648814,5901.1655136662985
0.708,-1.6750248070402332,5893.1437432042085
0.712,-1.6096037033772395,5894.746707621005
0.716,-1.552596003292327,5905.116411972527
0.72,-1.514598106665053,5896.911582729242
0.724,-1.5016468434678842,5901.568954088038
0.728,-1.5143811860087204,5894.8737578243245
0.732,-1.5485985236600257,5904.869434997194
0.736,-1.5968532850910206,5902.261866984349
0.74,-1.650347365902955,5898.1815152877925
0.744,-1.700439078453464,5904.941464567436
0.748,-1.7395829050096583,5901.829275725273
0.752,-1.7619659563204906,5900.357307590607
0.756,-1.7641742257484776,5907.137199714888
0.76,-1.7459254691328339,5897.416757190422
0.764,-1.7105392163160547,5907.790239133237
0.768,-1.6646848597603052,5894.506564487249
0.772,-1.6171766030778125,5898.9628625968735
0.776,-1.5770307945913835,5894.320728846636
0.78,-1.5513768460428063,5901.473042682456
0.784,-1.54389264691277,5903.17842740317
0.788,-1.5542047270002326,5905.112038206373
0.792,-1.5783273765522847,5903.805937229739
0.796,-1.6099094083382335,5900.982701468151
0.8,-1.6418722342910779,5894.283802015505
0.804,-1.6679480749940085,5898.350544381827
0.808,-1.6837267266318494,5907.309884068148
0.812,-1.6871113399226223,5901.315126929706
0.8160000000000001,-1.6783586999711095,5895.156683999751
0.8200000000000001,-1.6599138120448604,5903.523429833065
0.8240000000000001,-1.6360961696049978,5902.453899500303
0.8280000000000001,-1.6125466423254875,5898.166670383893
0.8320000000000001,-1.5953061849687071,5895.763420685704
0.836,-1.5895365036218339,5897.323165189338
0.84,-1.5981919713385209,5896.687753923914
0.844,-1.621183505360276,5894.160124521258
0.848,-1.6554695670152024,5903.464163608954
0.852,-1.6960609377441573,5904.361993591837
0.856,-1.737442545055508,5902.399611098449
0.86,-1.774773367699064,5896.800002319944
0.864,-1.804510624268837,5895.90828412326
0.868,-1.824515803433528,5902.477075130115
0.872,-1.8338880295525506,5897.728448464001
0.876,-1.832696726746383,5895.05576649459
0.88,-1.8216789750822484,5899.272618756544
0.884,-1.8019922062031855,5903.121145456317
0.888,-1.775158124178472,5901.751615149879
0.892,-1.7431938739590678,5903.559573228024
0.896,-1.708681043260956,5906.696067820196
0.9,-1.6745028411347653,5905.648152601151
0.904,-1.6432739911372876,5896.298443146124
0.908,-1.6167665050873379,5902.383815206042
0.912,-1.5956003511361136,5903.555989380541
0.916,-1.579233391944124,5896.157791589065
0.92,-1.5661432449625896,5899.912689336932
0.924,-1.5541278257045776,5900.76184409124
0.928,-1.5407323031717703,5898.795417625455
0.932,-1.5238134719248473,5901.808508831454
0.936,-1.5021634507515933,5899.226162486251
0.94,-1.4760246696371135,5901.966134894582
0.944,-1.4473212292350746,5904.650249666701
0.948,-1.419487062779615,5898.094505091141
0.952,-1.3968691559207056,5900.0948348481625
0.956,-1.3838389986898965,5900.157034122404
0.96,-1.3838607931091964,5893.6669978780665
0.964,-1.3987239746122435,5898.062568671334
0.968,-1.428033765569281,5902.481280898481
0.972,-1.4690315869801596,5900.166196553757
0.976,-1.5168880949291912,5901.59740317789
0.98,-1.565618055193306,5895.178357452516
0.984,-1.6095583705076835,5900.22084272542
0.988,-1.6449713906896068,5897.702463487501
0.992,-1.6710721111257165,5900.065843148554
0.996,-1.6899058328221712,5904.041435110649
1.0,-1.7050039590431234,5896.191233958861
1.004,-1.7193554022851834,5903.832616251295
1.008,-1.7336473169880633,5910.850853184953
1.012,-1.7457142813922388,5896.039681111532
1.016,-1.751587190054556,5895.937177272672
1.02,-1.7476440931828672,5904.583509749687
1.024,-1.732687111466372,5895.486964675893
1.028,-1.7088375689122761,5897.842593096704
1.032,-1.6808943757720811,5903.788513920613
1.036,-1.6546231358907493,5894.253172118256
1.04,-1.6348343602346624,5894.891565021395
1.044,-1.6240166029944139,5888.916651928241
1.048,-1.6219003486556336,5905.616634031792
1.052,-1.6258886833228392,5903.419122964823
1.056,-1.6320126751127286,5903.897587861079
1.06,-1.6359972887676708,5906.916490166067
1.064,-1.6341135213520042,5900.493477271539
1.068,-1.6237251279151268,5900.571045962522
1.072,-1.6036810927308478,5895.931315501869
1.076,-1.574722511998843,5902.390812331605
1.08,-1.5398541396412881,5901.5295887046905
1.084,-1.504428279178219,5900.250557950724
1.088,-1.475659942990779,5907.031672928415
1.092,-1.4613855857210944,5900.988855518984
1.096,-1.4680574537057882,5900.25264343281
1.1,-1.4983022752371185,5906.608200944395
1.104,-1.5488519511758199,5896.892023459451
1.108,-1.6099698546719527,5908.558024172995
1.112,-1.6671908984115225,5901.793343707078
1.116,-1.7051926001480717,5892.932852368325
1.12,-1.7125386660884188,5905.26290158604
1.124,-1.6856584584748522,5903.348695563961
1.128,-1.6308468734831727,5899.689872556095
1.132,-1.5637486287206257,5896.725153941263
1.136,-1.5063007900596947,5897.771080474327
1.14,-1.4814964368132042,5904.158111351865
1.144,-1.5067886878628267,5890.747486738045
1.148,-1.5874482114259278,5904.326330795892
1.152,-1.7115163469325938,5902.728399197222
1.156,-1.8479845179352075,5904.576876383839
1.16,-1.9493931824155402,5897.717847059365
1.164,-1.9591790626912307,5898.367052046974
1.168,-1.8229390007895048,5906.811826506783
1.172,-1.5015824339018577,5903.239830105132
1.176,-0.9833838172444123,5902.778313818256
1.18,-0.2914483519601629,5904.458153456119
1.184,0.5165959032355039,5902.22276750798
1.188,1.358218361034584,5902.464131127316
1.192,2.143266050083394,5904.975288585891
1.196,2.793748225112164,5933.900354344566
1.2,3.259557543173169,5943.378909170791
1.204,3.525499325035379,5949.779664197741
1.208,3.608897507389834,5975.059456278454
1.212,3.550366162785158,5972.902176599307
1.216,3.4016966624534835,5987.339167131737
1.22,3.2143879408875438,6005.147762589869
1.224,3.0310213452783774,6014.658418732071
1.228,2.880316213779551,6023.7984685338815
1.232,2.7757602196187348,6031.092693579709
1.236,2.717200942822984,6035.320970353331
1.24,2.694525062591641,6042.936283668897
1.244,2.6923915787334494,6062.89756207492
1.248,2.694921150942406,6074.205196424608
1.252,2.689390594753018,6078.827197539535
1.256,2.668365736353846,6094.027995169291
1.26,2.6301563284348326,6098.505159006508
1.264,2.577845465675457,6114.753531425167
1.268,2.5174310285280694,6109.398148883034
1.272,2.4557835484599657,6117.424755431626
1.276,2.399049102451178,6128.3021994368855
1.28,2.3517829123488956,6132.043564949863
1.284,2.31667382594362,6148.145981615144
1.288,2.2944918586881413,6157.625037698218
1.292,2.284012301972377,6164.261948199421
1.296,2.282005756373074,6176.393332469527
1.3,2.2835800923234517,6174.248646511261
1.304,2.2829802492395115,6188.6515008417255
1.308,2.274601727711559,6195.073520285932
1.312,2.2538906900937588,6214.524573646689
1.316,2.2180354282028065,6207.490894484085
1.32,2.1665172689661105,6216.789737287861
1.324,2.101491452233252,6224.867112454885
1.328,2.0278135062735565,6227.11938553104
1.332,1.9525058671122646,6234.857445927871
1.336,1.883567130347101,6244.308301881273
1.34,1.8282355460229516,6238.74253887198
1.344,1.7911078673215621,6247.072113123964
1.348,1.7727341486632813,6261.989470323334
1.352,1.7692472823597605,6270.718724615423
1.356,1.7732160996615207,6270.698854853805
1.36,1.775451169153308,6274.722557844947
1.364,1.767189314029851,6284.505262730339
1.368,1.7420257657334774,6283.834164334442
1.372,1.6971291167372418,6282.874505660409
1.376,1.6335973027911264,6304.620277179665
1.38,1.5561293933649085,6300.689699832647
1.384,1.472289530674321,6297.401944870629
1.388,1.3914994473824969,6304.758138053431
1.392,1.3237257472600186,6315.393811504144
1.396,1.2778384109956156,6325.480603362416
1.4,1.2598173151101124,6330.2484392345
1.404,1.271207224765472,6334.0007899006405
1.408,1.3082809191307894,6335.172820788362
1.412,1.3622219983262567,6330.495337058963
1.416,1.420395070707632,6344.527464303151
1.42,1.468534831527851,6343.835337078555
1.424,1.4934829147113478,6350.069340183884
1.428,1.4859467151977628,6356.743400174642
1.432,1.4426632462732853,6359.694697720641
1.436,1.367349581387032,6370.946858789828
1.44,1.2700062162443326,6367.931662192148
1.444,1.1646100128631498,6369.675546376412
1.448,1.0658711781073276,6377.578409942886
1.452,0.9861318775194287,6376.035294171672
1.456,0.9333063067187435,6384.582719150712
1.46,0.9101543156675874,6376.973695744268
1.464,0.9146663640989706,6383.334449344601
1.468,0.9411866011577896,6394.102113887571
1.472,0.9819306542741145,6401.181059515639
1.476,1.0285742755781606,6394.860879602376
1.48,1.0736254136948538,6393.968570733678
1.484,1.1113679880950638,6404.911572339341
1.488,1.1382577762364472,6413.303207948019
1.492,1.1528131738046636,6406.16211677813
1.496,1.1552512842359421,6412.267208547084
1.5,1.147154925008822,6421.07702876058
1.504,1.131222640905416,6417.347273564995
1.508,1.1109139875403047,6421.204431355967
1.512,1.089831653031473,6414.353811566395
1.516,1.0708893572060263,6428.183323730127
1.52,1.0554656981515438,6432.767129435859
1.524,1.0428017276042307,6437.716081367932
1.528,1.029907623633976,6423.279269954539
1.532,1.0121657640477504,6441.951699604567
1.536,0.9846382694350067,6438.645226928453
1.54,0.943839959282573,6446.948339624705
1.544,0.8894612652103625,6433.000612733324
1.548,0.825353311091337,6446.290401930672
1.552,0.7592207615331998,6442.891495670628
1.556,0.7009345722555081,6449.622943761446
1.56,0.6599502778722394,6456.546456039222
1.564,0.6427045773015759,6455.166156282708
1.568,0.6508766974917672,6453.535913960243
1.572,0.6810339382950239,6461.529730397364
1.576,0.7256310557521531,6460.864008498056
1.58,0.7748929749095974,6457.784035799431
1.584,0.8189411629023142,6462.016979629807
1.588,0.8495996547339462,6469.337812028186
1.592,0.8615596725739147,6463.91077907465
1.596,0.8528833831543574,6465.170482067861
1.6,0.8250068875047029,6468.098992359649
1.604,0.7823772856655027,6469.247156691629
1.608,0.7317695890512608,6472.4723106723
1.612,0.6813274622036809,6478.131721873002
1.616,0.6394255684091842,6477.376955448983
1.62,0.6134729357752201,6490.284343050242
1.624,0.6087601304977821,6489.691215929513
1.628,0.6274355866634787,6478.291732330181
1.632,0.6677360745191506,6485.316942495387
1.636,0.7237294910434298,6487.757505506016
1.64,0.7859261295450061,6482.578161207201
1.644,0.8429438659360377,6478.77495975531
1.648,0.883965927415168,6492.888281781494
1.652,0.901309739405081,6481.352844086994
1.656,0.8923104559172343,6486.598273722446
1.66,0.8599306670231528,6498.782377555516
1.664,0.8119059360739963,6495.023371593623
1.668,0.7586722013316975,6494.442966733193
1.672,0.7106411753388836,6496.800585809377
1.676,0.675518524466095,6500.362371032796
1.68,0.6563467775795128,6494.425358826048
1.684,0.6508305410359616,6497.928057403
1.688,0.6522019486117532,6502.726310901858
1.692,0.6514168680406917,6505.335333236294
1.696,0.6400075592978306,6508.251423192599
1.7,0.6126636170675014,6495.971365713302
1.704,0.5687151047247658,6508.40484479695
1.708,0.5121636579566538,6501.475643923332
1.712,0.4505109011725946,6502.737953023047
1.716,0.3929786864636115,6509.892123140741
1.72,0.3486465763801235,6512.119493415274
1.724,0.3247834382448369,6516.926699989184
1.728,0.3255180737071314,6505.120301322084
1.732,0.3510061227909654,6515.607806672757
1.736,0.3972577948574579,6509.260458771379
1.74,0.45671000346373397,6504.370712123096
1.744,0.51948049011852,6514.375182860306
1.748,0.5751004306051439,6517.503022094309
1.752,0.6144469982689916,6514.078150726982
1.756,0.6315575570037215,6516.093934973057
1.76,0.6249322067309093,6515.264284276518
1.764,0.5978885514582155,6511.106617140202
1.768,0.5576864018418998,6529.689846126781
1.772,0.5135277610218284,6517.561512570754
1.776,0.4740159125912095,6523.089667345959
1.78,0.44499381355139656,6512.931506988294
1.784,0.4286137628238249,6519.51232024476
1.788,0.42390151554722444,6514.662899627115
1.792,0.42825769082793097,6513.828542857133
1.796,0.43888621023776075,6523.391533603148
1.8,0.45342568419495194,6524.092611434077
1.804,0.4698135707051413,6522.189658442959
1.808,0.48595492744630686,6523.079251714168
1.812,0.4997003750778869,6530.030358634103
1.816,0.5091885250891024,6520.761475493168
1.82,0.5132605891626909,6525.040752140563
1.824,0.5116451183597225,6520.958274687831
1.828,0.5048334961934499,6525.173224182956
