时间(s),电压(V),幅值(高频80K)
0.0,-1.151242366734293,5890.620354377646
0.004,-1.135161798770318,5903.07161984428
0.008,-1.125312612513435,5898.724175306636
0.012,-1.126105137376282,5903.5363901202445
0.016,-1.139087177345829,5905.583733442745
0.02,-1.163026357526281,5899.344561114624
0.024,-1.1947301242928603,5888.834599218933
0.028,-1.2300655942430014,5902.743802873904
0.032,-1.264855552364929,5900.263719829715
0.036,-1.295543422889402,5902.153661197996
0.04,-1.319555055294299,5892.646670999574
0.044,-1.3353184687511102,5900.2904617140175
0.048,-1.3420906655234373,5899.978000078171
0.052,-1.3398896048481828,5908.65071388307
0.056,-1.3296749237599093,5895.48775842536
0.06,-1.3135817874098967,5899.880191587381
0.064,-1.2948657275402429,5902.435336797623
0.068,-1.2773962901607876,5895.120272442605
0.072,-1.2648167313038765,5896.223732690785
0.076,-1.2596296184876437,5894.466350900581
0.08,-1.262485375911854,5901.942163446343
0.084,-1.2719514360098618,5909.837585613185
0.088,-1.2849743104281335,5903.776432044259
0.092,-1.2979799390403652,5894.804127753789
0.096,-1.3081660754102091,5892.182803519187
0.1,-1.3143487136178325,5894.816402707701
0.104,-1.3169687901607248,5903.098132402551
0.108,-1.317391037988532,5895.459749894794
0.112,-1.3169986706915338,5911.498168742539
0.116,-1.3165407818257624,5902.345611323363
0.12,-1.315890275508608,5898.626271463136
0.124,-1.3141549104679189,5895.971599269414
0.128,-1.310057224791822,5903.231376955983
0.132,-1.3024994683742965,5902.624700909048
0.136,-1.29113253451028,5899.261092289237
0.14,-1.2766680577841485,5888.364052529215
0.144,-1.2607823840650814,5901.848527724688
0.148,-1.2457031186333325,5900.432864575365
0.152,-1.2337108278480973,5896.297112610927
0.156,-1.2267141909950077,5895.573098148925
0.16,-1.2258826780024576,5903.103366129587
0.164,-1.2312516152608282,5895.56347218339
0.168,-1.2413498876418976,5902.780244143797
0.172,-1.253128295043266,5894.730465936485
0.176,-1.2625176969523582,5901.228872188531
0.18,-1.2656535569681215,5904.57439615315
0.184,-1.2603420258660878,5893.378352970598
0.188,-1.2470962340533291,5901.448279647886
0.192,-1.229231234686304,5905.538787273654
0.196,-1.2119144973271465,5899.847153474032
0.2,-1.2004699739656461,5904.555560088052
0.204,-1.1985170648142642,5895.294795986652
0.208,-1.2066581915241843,5901.988295661331
0.212,-1.2223042965781439,5910.01880802342
0.216,-1.2407613253023109,5899.476264956997
0.22,-1.2570681296208563,5893.448222443686
0.224,-1.267697637784536,5901.798621256431
0.228,-1.2713922529544566,5904.069594438111
0.232,-1.2689567876856658,5896.98309582362
0.236,-1.2623680791177019,5899.274136411253
0.24,-1.2537673287377142,5900.161001473534
0.244,-1.2447531239503837,5895.18447888639
0.248,-1.2360940585319935,5909.181954853689
0.252,-1.2277612590987674,5903.920008005554
0.256,-1.2191349212425933,5898.618622863156
0.26,-1.209301622537553,5901.257787018863
0.264,-1.1974099882619031,5894.313663112441
0.268,-1.183046601353376,5903.505249803972
0.272,-1.1665717972997574,5889.8448870669
0.276,-1.1493153688783244,5902.696143138556
0.28,-1.1334666939669198,5900.135151898508
0.284,-1.1215215026101963,5901.87712754755
0.288,-1.115375250387922,5896.55424137
0.292,-1.1154470995452284,5912.734177215721
0.296,-1.1203157717185868,5904.162497551164
0.3,-1.1271441141917915,5903.103275259574
0.304,-1.13279563269483,5890.309093628862
0.308,-1.1352220558673516,5901.847674036909
0.312,-1.1345574708593478,5902.280075300787
0.316,-1.133404188038668,5891.821666011152
0.32,-1.1360319972688548,5898.278482290806
0.324,-1.1466484232612408,5906.948933870598
0.328,-1.1674184812306176,5901.484530156065
0.332,-1.1971828324773566,5897.104092280515
0.336,-1.2315468942291758,5898.218848596461
0.34,-1.264309027874528,5906.3271680551625
0.344,-1.2895375895507293,5899.920466031413
0.348,-1.3033735111743474,5909.889721063119
0.352,-1.3048668579824423,5901.003795333614
0.356,-1.2956815038429454,5900.0212130174095
0.36,-1.2790484869828296,5887.278300383105
0.364,-1.2585761291004651,5893.0798915153255
0.368,-1.2373088623249435,5900.933929187101
0.372,-1.2170870598034935,5897.878890285331
0.376,-1.1981938556032508,5906.956903869137
0.38,-1.1794448485377926,5897.011495553302
0.384,-1.1589222408569955,5892.531449350076
0.388,-1.135274671357666,5898.790724369785
0.392,-1.1090629201939197,5897.713783073634
0.396,-1.0834009624485197,5899.031069397155
0.4,-1.0633849606370045,5891.800273039462
0.404,-1.0544298399263246,5902.459851031115
0.408,-1.0602378142511113,5895.41533705935
0.412,-1.0813103498908634,5895.277072881198
0.416,-1.1146137074619438,5894.512424449691
0.42,-1.1544590340384788,5900.838299774928
0.424,-1.1941675515551595,5900.69337801442
0.428,-1.227877150986278,5895.4693590658535
0.432,-1.251965777306996,5898.97785998751
0.436,-1.2658349523132095,5899.557362643815
0.44,-1.2719472137037104,5904.702782040142
0.444,-1.27504366085715,5899.65692155759
0.448,-1.2806134438099754,5895.750313196983
0.452,-1.2930037264693635,5896.504112487899
0.456,-1.3138188874318018,5893.639785717386
0.46,-1.3412297161564664,5896.476151519901
0.464,-1.3704685316170648,5901.920072285878
0.468,-1.395291883749931,5892.309932110392
0.472,-1.4098175652049914,5898.670944621368
0.476,-1.4100892580426048,5900.181172987741
0.48,-1.3949646484615734,5894.580356051209
0.484,-1.3662514634921548,5899.935893812702
0.488,-1.3282390082270161,5902.60445148994
0.492,-1.286826599756802,5901.271073239465
0.496,-1.2483903467999928,5901.532267522071
0.5,-1.2184977031303745,5890.8385840118735
0.504,-1.2006837421227634,5895.430241872966
0.508,-1.1956604729015707,5898.6822687269305
0.512,-1.2013075942560427,5909.150754061577
0.516,-1.2134869334513034,5908.425510088312
0.52,-1.227339907101517,5897.286947681943
0.524,-1.2385759774421456,5897.270126166294
0.528,-1.2443974216684701,5897.047627457204
0.532,-1.2439202169922536,5902.255782092888
0.536,-1.2380797253552664,5907.324550007999
0.54,-1.2291092413021178,5905.456347786526
0.544,-1.2198138458037078,5906.068792293068
0.548,-1.2129121338213449,5899.26680435092
0.552,-1.210575671506279,5901.71826629723
0.556,-1.2140913303734964,5893.589137791704
0.56,-1.2235252123988418,5897.627138028969
0.5640000000000001,-1.237427138963526,5901.249784093679
0.5680000000000001,-1.2528247506260783,5911.287329258612
0.5720000000000001,-1.26578387185405,5895.253198017651
0.5760000000000001,-1.2725478734056115,5908.320005436224
0.58,-1.270879319855343,5911.072463180072
0.584,-1.2610314359279966,5896.319617274016
0.588,-1.2459269727771425,5903.51653558879
0.592,-1.2304729037640172,5899.104684340468
0.596,-1.2202451614507852,5905.104928868068
0.6,-1.2199286612954212,5898.830216626751
0.604,-1.2319239474386012,5903.99316825122
0.608,-1.2554687949041985,5897.480252202891
0.612,-1.2864915183234853,5903.4018444182
0.616,-1.31827049998152,5909.510314687062
0.62,-1.342853143637654,5904.131943041993
0.624,-1.353018631473205,5904.356993687609
0.628,-1.3443146229870433,5898.270073604613
0.632,-1.3165084463760106,5908.855785874461
0.636,-1.273881262601225,5901.781411889743
0.64,-1.224179436743675,5903.094983271201
0.644,-1.1765325302039213,5897.171941603171
0.648,-1.1390307356872948,5900.3208167534085
0.652,-1.116770143583806,5896.843079253868
0.656,-1.110965869991809,5902.852782684128
0.66,-1.119294373803528,5899.100529466313
0.664,-1.137165719235845,5901.2374825661145
0.668,-1.1593457701288472,5894.352578049621
0.672,-1.1813429022172073,5899.744147281104
0.676,-1.2001994737047326,5898.957653622165
0.68,-1.21464437299089,5903.041380880691
0.684,-1.224812697915425,5901.468078042136
0.6880000000000001,-1.2318140284699384,5896.711878835654
0.6920000000000001,-1.2373371324916582,5895.384515548226
0.6960000000000001,-1.2433338619712841,5903.114172111167
0.7000000000000001,-1.251731961748143,5895.532826574835
0.704,-1.2640948082456727,5901.058542976137
0.708,-1.2811730524620024,5894.275996544449
0.712,-1.3024137450748055,5903.165178021287
0.716,-1.325667713994786,5900.197186098753
0.72,-1.3473947244394497,5892.1047231172615
0.724,-1.3634797461325694,5894.705244191479
0.728,-1.3704442455812251,5893.706533420781
0.732,-1.3666002205296641,5897.407174080625
0.736,-1.3526748007450875,5905.714627498388
0.74,-1.331607397176888,5899.808626999025
0.744,-1.3075524698258547,5899.257709815808
0.748,-1.2845046053482498,5897.200600175074
0.752,-1.2651466842185033,5907.109642690451
0.756,-1.2503481709794553,5897.704572789466
0.76,-1.2393683251693428,5902.149160276853
0.764,-1.2305205314677308,5894.027277561323
0.768,-1.221948862627887,5903.880854747971
0.772,-1.2122528438595404,5898.175320829174
0.776,-1.2008927134232175,5906.325569023745
0.78,-1.1884273267324574,5895.889617578299
0.784,-1.1765532882713332,5893.405530714281
0.788,-1.1677809821504084,5892.606876017115
0.792,-1.1646543431307659,5900.120342871989
0.796,-1.168690240155937,5899.745081436512
0.8,-1.1794469721737404,5896.043445184023
0.804,-1.1941722312386125,5902.130929786289
0.808,-1.2083275770129716,5897.048764052426
0.812,-1.2169747021300803,5895.208819673171
0.8160000000000001,-1.2166013161478353,5901.735473594502
0.8200000000000001,-1.2066356426507836,5907.485917164924
0.8240000000000001,-1.1898976666617045,5904.463442391361
0.8280000000000001,-1.171669998206121,5896.168270225717
0.8320000000000001,-1.1577356294455905,5899.444080423972
0.836,-1.1522392030569073,5892.526302478529
0.84,-1.1563069655365144,5904.094916610019
0.844,-1.1679766361381054,5900.079847720376
0.848,-1.1833469061877488,5905.63727685676
0.852,-1.1982983571005237,5904.667863005133
0.856,-1.2099477347839038,5905.541012761244
0.86,-1.2172547802929177,5893.237577716967
0.864,-1.220733498744182,5900.051881783049
0.868,-1.221677278578313,5905.698484120385
0.872,-1.2214109895722782,5902.364891178536
0.876,-1.2208608688905054,5896.64223331036
0.88,-1.2204418755099102,5902.039062340761
0.884,-1.2201169747667457,5895.943179873501
0.888,-1.2195145724940901,5892.87762569098
0.892,-1.2180876882991585,5895.956177677615
0.896,-1.215329903859915,5899.3147938301845
0.9,-1.2110068884642264,5899.310711824717
0.904,-1.2053113929590342,5900.696126674188
0.908,-1.1988763805040237,5909.031801549478
0.912,-1.1926541048315578,5893.918710780846
0.916,-1.1877075194965645,5895.629410585613
0.92,-1.1849355861367656,5895.305736740578
0.924,-1.1847379448255435,5898.939889168195
0.928,-1.186697366015125,5898.863561452711
0.932,-1.1894627994619134,5900.348438334694
0.936,-1.191005556887351,5898.907688328945
0.94,-1.189254761776099,5896.627906970566
0.944,-1.1829022447181823,5899.529735969201
0.948,-1.1720482031640036,5897.628458790885
0.952,-1.1584242804323304,5903.546680986212
0.956,-1.1451246117734284,5903.132111791023
0.96,-1.1359254050729595,5896.427303526271
0.964,-1.1343134652407894,5896.607819455972
0.968,-1.142404070899701,5903.519914431995
0.972,-1.1600659644849003,5901.769900654959
0.976,-1.1846228437469113,5895.571173614354
0.98,-1.2113564601839917,5894.703123033312
0.984,-1.2347816232264328,5897.362523420374
0.988,-1.2503757654366274,5898.508224298286
0.992,-1.2561837796927104,5901.444100147246
0.996,-1.2536645652636513,5904.856670103281
1.0,-1.2474036393703296,5902.343533097502
1.004,-1.2437155344008974,5899.037336193953
1.008,-1.248516975692853,5895.944400396788
1.012,-1.2651529230782792,5893.201890718239
1.016,-1.2930125165993733,5898.579567714554
1.02,-1.3275557520171442,5899.559473826295
1.024,-1.3617701783372176,5900.374967538503
1.028,-1.388431145148641,5898.884694472842
1.032,-1.4022441808370723,5898.829248394339
1.036,-1.4011207670389287,5890.670162635978
1.04,-1.3862908164838572,5901.3411471559575
1.044,-1.3614092073475565,5904.391440110768
1.048,-1.3311021817487259,5894.305628451988
1.052,-1.2994874358230473,5901.689674288457
1.056,-1.2691169629577042,5899.419021767432
1.06,-1.2405963530112,5899.072683413692
1.064,-1.212912492925415,5901.878429933026
1.068,-1.1843085060126697,5896.566258962597
1.072,-1.1534014317789802,5900.430128258762
1.076,-1.1201775293474856,5892.9693341203465
1.08,-1.0865410824925021,5898.5113892837735
1.084,-1.05620850888188,5899.765358567131
1.088,-1.0339051395610035,5897.869906325664
1.092,-1.0240209029624914,5887.800608360213
1.096,-1.0290796050572744,5899.641432914356
1.1,-1.0485301841097696,5899.377929025098
1.104,-1.0783930951679284,5893.4897131228
1.108,-1.1120828794242015,5906.484733330199
1.112,-1.1422843063024057,5899.102562797735
1.116,-1.1632712630696003,5898.167465482597
1.12,-1.1727955665846412,5902.978611691446
1.124,-1.1728057055793468,5903.6026556042425
1.128,-1.168703767830354,5898.835554547289
1.132,-1.1673749934528617,5906.35628184611
1.136,-1.1746605006966686,5898.410614640608
1.14,-1.1931973496502726,5907.055397924069
1.144,-1.2214721366851669,5899.521048123675
1.148,-1.2544380062207081,5895.51421711298
1.152,-1.2853550152588937,5898.580466866775
1.156,-1.3080519361135352,5902.214538037977
1.16,-1.318777681929089,5910.776023038966
1.164,-1.3170806795992842,5904.611006892188
1.168,-1.3055296362713928,5903.855770590927
1.172,-1.2884700172964656,5900.340826356108
1.176,-1.2703088842975825,5893.296012237355
1.18,-1.253945909575563,5893.50082155669
1.184,-1.2399045813723344,5902.089382115166
1.188,-1.2264841662615273,5900.839001119248
1.192,-1.2108607720447118,5897.051728650104
1.196,-1.1906371304288326,5903.612187033861
1.2,-1.1651348742451522,5900.960898723612
1.204,-1.1358911410244161,5903.252054274803
1.208,-1.1062437593196623,5906.923307543877
1.212,-1.0803027720161624,5904.405979077144
1.216,-1.061782986391104,5898.979302426463
1.22,-1.0530523291288594,5900.091458319558
1.224,-1.0545087320625717,5899.918819565456
1.228,-1.0642856279048385,5898.628179783226
1.232,-1.0783648520584033,5902.698368206719
1.236,-1.0912733774236876,5903.493227686874
1.24,-1.097434114449436,5905.2737065819765
1.244,-1.0928834943647114,5898.943935363864
1.248,-1.0766992332451641,5899.628170654659
1.252,-1.0514533666135812,5895.010058659358
1.256,-1.0224266876714019,5899.064131328085
1.26,-0.9959245118134501,5899.314801066429
1.264,-0.9774216396332367,5889.489938708916
1.268,-0.9702344681658526,5904.4169051099525
1.272,-0.9750735726805448,5898.738155540025
1.276,-0.9904255425465331,5900.292466709665
1.28,-1.0134374549698266,5907.48517864426
1.284,-1.0408888657585822,5904.202306732336
1.288,-1.069915630444552,5891.676094389567
1.292,-1.0983321615723676,5903.676900700289
1.296,-1.1245993355820543,5897.209055630464
1.3,-1.1476299013992357,5902.294758651168
1.304,-1.1666384402767964,5907.530323819841
1.308,-1.1811208694540825,5892.228626044796
1.312,-1.1909224642490222,5895.478622207813
1.316,-1.196335978154421,5900.434615189826
1.32,-1.198180362745771,5897.659010679869
1.324,-1.197745420219671,5899.638642628792
1.328,-1.1964533503799852,5899.343362193064
1.332,-1.1952454230413054,5893.896677301841
1.336,-1.1939917345357676,5899.185967830963
1.34,-1.1913798229905497,5900.425338262649
1.344,-1.185555199375712,5900.409487900459
1.348,-1.175326708757093,5899.350921463291
1.352,-1.1613315672317168,5901.327055728031
1.356,-1.146497914762646,5897.720869688076
1.36,-1.1354837599357441,5901.473501247477
1.364,-1.133260552703829,5904.74240898632
1.368,-1.143372952340411,5903.29894563125
1.372,-1.1665277328062884,5899.668904011984
1.376,-1.200037165584325,5897.082887276985
1.38,-1.2383200745373448,5897.112038235024
1.384,-1.2743049563010125,5901.348020876057
1.388,-1.3013480850304355,5902.814159289713
1.392,-1.3151675592438072,5896.20258310238
1.396,-1.315213189610306,5897.076128980628
1.4,-1.304916070461598,5896.456928613797
1.404,-1.2905681061296939,5898.420956627035
1.408,-1.2791496619742424,5897.178752325102
1.412,-1.275939613144567,5901.464797130482
1.416,-1.2828439830320568,5902.9193664814775
1.42,-1.297999390052717,5903.331304894923
1.424,-1.3166499450657791,5890.148706959652
1.428,-1.332891240411854,5896.0312933971545
1.432,-1.3416663141763978,5912.26154442072
1.436,-1.340320152058909,5904.435224315087
1.44,-1.3291628446120525,5899.373680918781
1.444,-1.3109336276309231,5900.186780684914
1.448,-1.2895772309955078,5892.914594499695
1.452,-1.2689665925647908,5901.387996887151
1.456,-1.2520123381756434,5900.47896190675
1.46,-1.2402497387054978,5906.412722531919
1.464,-1.2338097988849115,5891.552936579895
1.468,-1.2316880557850625,5898.803501864254
1.472,-1.2322346580015147,5901.266427483285
1.476,-1.2337235219220546,5901.035300081361
1.48,-1.234792256608557,5894.03434296424
1.484,-1.23457743262482,5901.192366327977
1.488,-1.2325573817559785,5900.25224804045
1.492,-1.2283515351851637,5897.874847122424
1.496,-1.2217561837346382,5900.474433347338
1.5,-1.2130409848892774,5902.1754274090135
1.504,-1.2032515962190702,5895.630753251326
1.508,-1.1942610150934088,5903.665309584271
1.512,-1.1885554673841354,5890.81885340747
1.516,-1.1889162944407259,5900.261743091104
1.52,-1.198068028765278,5903.439296975848
1.524,-1.2181756650240088,5898.767371618881
1.528,-1.2500961478837866,5911.141018946561
1.532,-1.292546729723488,5904.771941736221
1.536,-1.3415723708446112,5894.24707845922
1.54,-1.3906635447543318,5900.483619363742
1.544,-1.4316573383303808,5898.870474452218
1.548,-1.456311972202373,5897.763083368766
1.552,-1.4582298131982487,5893.638400230548
1.556,-1.4346191650635118,5894.713965970752
1.56,-1.3873299727404937,5899.8928732575405
1.564,-1.3227901294147544,5908.335516017856
1.568,-1.2508317447724542,5903.762589196126
1.572,-1.1827001086347395,5902.274464311497
1.576,-1.128684637372521,5896.423835515639
1.58,-1.0958947186998123,5894.57619471989
1.584,-1.0867460919105756,5902.481943820093
1.588,-1.098591848774937,5897.946438042472
1.592,-1.1245828884631868,5898.781995566294
1.596,-1.1554624203243058,5899.254655481497
1.6,-1.181818819080865,5897.062552657832
1.604,-1.1963730445367227,5891.331302951213
1.608,-1.195985288092717,5896.338271552261
1.612,-1.1830535402266487,5897.695796853775
1.616,-1.1658544018280252,5899.074864432806
1.62,-1.157324506382183,5905.248721984699
1.624,-1.1719798720010566,5892.049882393212
1.628,-1.221162048874849,5901.708228543423
1.632,-1.3074585329349588,5905.242883026649
1.636,-1.4197369358623115,5898.32848523969
1.64,-1.53052601811913,5898.596410260073
1.644,-1.5973045292862005,5899.807745333346
1.648,-1.5685288276523803,5903.783183368138
1.652,-1.3940032257081953,5895.042580299968
1.656,-1.0377521622318813,5895.63166547642
1.66,-0.49028626776526973,5905.747337252788
1.664,0.22355200695263275,5895.2094669886665
1.668,1.0446939199289056,5899.492087759744
1.672,1.889639491759136,5889.102173919244
1.676,2.668297657659791,5902.3096820531855
1.68,3.3045236809783534,5912.13847116754
1.684,3.752356258950465,5917.377889109826
1.688,4.002765715928446,5927.977778573266
1.692,4.079862507564677,5939.553662680231
1.696,4.02942744043495,5953.362786057061
1.7,3.904561744628274,5966.666829686496
1.704,3.7530478010940573,5979.508069335947
1.708,3.609384200048474,5983.026874534033
1.712,3.492291682812705,5992.4767226507565
1.716,3.4066047940514026,6005.501325618396
1.72,3.347514070486923,6015.126822261868
1.724,3.305237785357385,6017.211113748152
1.728,3.2689280521028814,6032.19744138621
1.732,3.229373701971903,6025.963973152854
1.736,3.1805522805789126,6043.825657129034
1.74,3.1202640438878126,6046.486971762754
1.744,3.0500372709882413,6056.718605834975
1.748,2.97438779271,6062.709236553594
1.752,2.8994933085131915,6079.18945521938
1.756,2.83145756329915,6085.3634963040495
1.76,2.774549306900692,6092.036334721122
1.764,2.7299698042806586,6100.808422353463
1.768,2.695635112272697,6104.736982727191
1.772,2.667078601842568,6106.320027873981
1.776,2.6390861516665987,6117.951567277544
1.78,2.6074044783307717,6124.062670772273
1.784,2.5699313691275107,6128.288580649933
1.788,2.527036888706064,6126.56271127221
1.792,2.4809356223485364,6135.461161443503
1.796,2.4343749699174335,6140.4317923180415
1.8,2.3892654695006836,6148.947172600442
1.804,2.3459481226973717,6159.506814058932
1.808,2.303394532860118,6173.93752965209
1.812,2.2600548624173866,6175.932547112839
1.816,2.21478075389895,6181.315961998108
1.82,2.167397478721105,6180.073904197188
1.824,2.118811113048933,6196.76719708354
