时间(s),电压(V),幅值(高频80K)
0.0,-1.7467746131886037,5893.067059197294
0.004,-1.629477347304139,5901.546236419485
0.008,-1.523501268936065,5902.675008303742
0.012,-1.4392142801354546,5901.680423346367
0.016,-1.3839954579331017,5895.798753477508
0.02,-1.361528153234824,5905.200695673992
0.024,-1.3716642605791407,5907.59044367142
0.028,-1.4107580305013419,5898.199649922647
0.032,-1.472438697065604,5895.972087412601
0.036,-1.548697473045023,5895.955719534504
0.04,-1.6309626939367714,5907.973600975302
0.044,-1.7108184767767167,5900.194452439723
0.048,-1.780300038236689,5906.012605321898
0.052,-1.832054579939852,5899.820025779051
0.056,-1.8597813857532108,5901.250022213659
0.06,-1.859129496664439,5902.065207923039
0.064,-1.8288181404365902,5894.659753040455
0.068,-1.7715135875722994,5896.63625029485
0.072,-1.6940767856368717,5900.709305689273
0.076,-1.6069709682664337,5897.180288524149
0.08,-1.5227404875950643,5904.6245793307935
0.084,-1.453697644256671,5897.499234910221
0.088,-1.4093654983017159,5897.020588658293
0.092,-1.3945191350090695,5902.336492160848
0.096,-1.4084886560072913,5905.99846509708
0.1,-1.4458182477833805,5899.838154592976
0.104,-1.4978654670100615,5904.087479994923
0.108,-1.554766633145165,5904.292141828489
0.112,-1.607292435645716,5902.710830609439
0.116,-1.6482526798172532,5897.703506325972
0.12,-1.673236316841204,5892.813871957502
0.124,-1.6806792015311443,5902.331614527122
0.128,-1.6714967251615027,5895.210689541747
0.132,-1.6485931187810152,5903.212112238709
0.136,-1.6163831613038326,5894.69490340966
0.14,-1.5802516004466716,5902.675937354298
0.144,-1.545860487377857,5905.103233626063
0.148,-1.5183456663730208,5906.351434394959
0.152,-1.501545201975022,5891.203470097611
0.156,-1.4974138893319862,5898.376753062508
0.16,-1.5057288178944312,5892.845789596557
0.164,-1.5241414422678847,5901.872559178652
0.168,-1.5486270067079744,5894.638417859739
0.172,-1.5743455330509943,5903.230401324741
0.176,-1.596761781848435,5893.904647960176
0.18,-1.6126771221662435,5907.845606877774
0.184,-1.6208046789056092,5904.103054081436
0.188,-1.6217105421060158,5900.386669219197
0.192,-1.6172252032458707,5895.116738377065
0.196,-1.6096389328014498,5906.489662605557
0.2,-1.6010071742810914,5901.341035392655
0.204,-1.5927206238552156,5893.856337107777
0.208,-1.5853124021906007,5897.633105399007
0.212,-1.57843707472139,5907.873382020321
0.216,-1.5710394013397213,5905.119654311292
0.22,-1.5617841928649003,5896.026579877996
0.224,-1.5497357812250738,5901.48802941274
0.228,-1.5350848360376546,5908.346193062441
0.232,-1.5195549267844577,5897.054366513502
0.236,-1.5061372501273582,5902.506528089228
0.24,-1.4980729206514833,5897.282077673083
0.244,-1.49742878483592,5902.703308850238
0.248,-1.5039291011510256,5898.2920711790575
0.252,-1.5146478423663126,5901.76766680759
0.256,-1.5247385914832674,5904.760992098534
0.26,-1.5289015939283424,5894.094460814237
0.264,-1.5230680580133873,5899.090548634242
0.268,-1.5058216040800074,5898.466783958862
0.272,-1.4791881750182425,5893.579284395263
0.276,-1.4485131910750524,5901.415091136611
0.28,-1.4212913473065163,5896.092959562073
0.284,-1.405136071384657,5897.91130281719
0.288,-1.4054983053100978,5902.859322633394
0.292,-1.4239773219064171,5905.404060601511
0.296,-1.457880315847143,5899.324398703995
0.3,-1.5011554914338874,5891.324517192849
0.304,-1.546244817197513,5901.682390832953
0.308,-1.5860835976996404,5894.489993779477
0.312,-1.6155466574710238,5901.840223217887
0.316,-1.6319955390717398,5902.572709450984
0.32,-1.6349957141154872,5896.592319186665
0.324,-1.6255789545016432,5897.328191032928
0.328,-1.6055240323235875,5891.853869470478
0.332,-1.5769919278758189,5901.831207108378
0.336,-1.5425809058468205,5902.412714974905
0.34,-1.505623445154861,5900.006784575176
0.344,-1.470408423237443,5891.31206908997
0.348,-1.441993936548067,5899.505299874575
0.352,-1.425435251551401,5896.278022046451
0.356,-1.4245796651024958,5897.817203851598
0.36,-1.4408589770523792,5895.000825550673
0.364,-1.4725167181205796,5906.670831723161
0.368,-1.51450257512728,5911.418124102497
0.372,-1.5590795772964519,5895.054451274403
0.376,-1.5970859182559576,5894.392623368948
0.38,-1.6196804312274808,5902.231569874194
0.384,-1.6202661977892654,5908.091050885183
0.388,-1.5961987142761034,5911.851686946287
0.392,-1.549860472204885,5913.507563092662
0.396,-1.488726014459504,5901.478159118749
0.4,-1.4241946435238269,5890.476912178533
0.404,-1.3692601527058712,5900.677103655069
0.408,-1.3354814840551688,5890.034703853501
0.412,-1.3300791362984732,5901.027826702978
0.416,-1.3540826751668558,5894.982006358448
0.42,-1.4021491315708294,5898.467414941344
0.424,-1.4640834652991628,5901.263935061787
0.428,-1.5275262889717554,5895.041279524975
0.432,-1.5809630524857776,5899.702356303369
0.436,-1.6162167401913765,5908.266831353847
0.44,-1.6298532072032264,5894.902423216073
0.444,-1.6233032070729843,5903.959634697346
0.448,-1.60183940275378,5898.013298886146
0.452,-1.5727936968316745,5903.552617115678
0.456,-1.543543499453909,5902.195142485792
0.46,-1.519786929309505,5905.721240314997
0.464,-1.50448614418657,5900.635263516584
0.468,-1.4976703213493356,5903.264455881696
0.472,-1.497080500752383,5902.387619199262
0.476,-1.4994112465737335,5903.378782779026
0.48,-1.5017309203942741,5901.186583409462
0.484,-1.502608945356278,5904.835175281842
0.488,-1.5025531751334429,5894.530070851928
0.492,-1.5035744032723573,5908.067465400226
0.496,-1.5080333700196527,5895.757553763315
0.5,-1.517257649786561,5896.50104199987
0.504,-1.530545420727079,5897.823143391781
0.508,-1.5450025992935488,5908.104820999138
0.512,-1.5562777347655352,5902.720335142102
0.516,-1.5598691339884574,5905.666704909313
0.52,-1.5524681140369878,5892.008584913619
0.524,-1.532864640774119,5908.522456680265
0.528,-1.5022254543869438,5902.152123710653
0.532,-1.4638516966708992,5897.920804585174
0.536,-1.4226250622685184,5896.368967342926
0.54,-1.3842672640941174,5907.9166443897775
0.544,-1.3544546414945242,5896.03116093499
0.548,-1.3378591233482218,5899.058881599657
0.552,-1.3372637994204883,5894.955439432942
0.556,-1.3529349840366753,5906.792372850656
0.56,-1.3824193466445542,5892.648867535386
0.5640000000000001,-1.4208941892376232,5898.704407407787
0.5680000000000001,-1.462100477454391,5904.480588560271
0.5720000000000001,-1.4997020663243443,5894.77927347457
0.5760000000000001,-1.5287017375025964,5895.342642206073
0.58,-1.5464478309311898,5902.296851364442
0.584,-1.5528919425111047,5900.422631582414
0.588,-1.550069788387463,5905.3135392864415
0.592,-1.5410955800065091,5901.700403936924
0.596,-1.5290963203818955,5898.620435223708
0.6,-1.5164236138478484,5902.117059548417
0.604,-1.5042962868328542,5893.718650401276
0.608,-1.4928839261312732,5896.688475478335
0.612,-1.4817439655287221,5906.599421649824
0.616,-1.4704238594463241,5897.983718159162
0.62,-1.4589615651924266,5899.082565659421
0.624,-1.448051230463614,5909.804089224187
0.628,-1.4388208881566673,5895.668451057797
0.632,-1.432388403513193,5891.944066095436
0.636,-1.4294647411161225,5906.660617884559
0.64,-1.4302188721636004,5898.888287583253
0.644,-1.434455083766544,5903.919120059262
0.648,-1.4419431780510363,5891.769159660789
0.652,-1.4526203050570545,5904.524159629767
0.656,-1.4664944669467606,5900.424168612143
0.66,-1.4833527175481154,5913.641423062769
0.664,-1.5025416171739743,5905.676226736638
0.668,-1.5229946901537788,5908.800878527438
0.672,-1.543468750260513,5902.276285760741
0.676,-1.5628163100942405,5900.086065091032
0.68,-1.5801123098299568,5905.4853871001
0.684,-1.5945545147626954,5895.628658449568
0.6880000000000001,-1.6052450743032145,5900.664165737684
0.6920000000000001,-1.6111090724791182,5901.200690158263
0.6960000000000001,-1.6111543091559277,5906.314510772076
0.7000000000000001,-1.605030103924885,5890.942671532972
0.704,-1.5935908403288932,5891.440965333666
0.708,-1.5791160276078817,5895.8769644605245
0.712,-1.5650208540481034,5907.229017564899
0.716,-1.5551483061901543,5905.454247677003
0.72,-1.552880452085982,5906.338934298005
0.724,-1.5603148519430947,5902.453096547944
0.728,-1.5777036261265627,5903.620266449527
0.732,-1.6032891162726017,5903.089055009441
0.736,-1.6335863359804348,5900.478320520033
0.74,-1.664066854411521,5907.386138170015
0.744,-1.690099852950099,5901.901364141864
0.748,-1.707912926838115,5905.548088229428
0.752,-1.7153055546613398,5898.8224821152735
0.756,-1.7119424145059812,5903.188851100637
0.76,-1.699221983374473,5892.228542749101
0.764,-1.679833345728363,5900.243412733954
0.768,-1.6571420698741726,5892.475310813573
0.772,-1.6345404878244625,5895.288353457885
0.776,-1.6148749483184863,5900.451536725512
0.78,-1.6000121566677314,5901.433902399953
0.784,-1.5905811628501003,5906.482021331636
0.788,-1.585955064137725,5897.989759992128
0.792,-1.5845357574771461,5902.017525096979
0.796,-1.5843080319763023,5891.735155296797
0.8,-1.5834994485570162,5898.743135266649
0.804,-1.5811334108054567,5900.978957342326
0.808,-1.5773121204802933,5908.949540226764
0.812,-1.5731507856128206,5905.743662925301
0.8160000000000001,-1.570389035926002,5904.547335116268
0.8200000000000001,-1.5708316123611743,5901.909377926606
0.8240000000000001,-1.5758157309896792,5893.972426602449
0.8280000000000001,-1.5857878517080164,5905.298039182255
0.8320000000000001,-1.5999452203851026,5902.593239922304
0.836,-1.6159633213686442,5899.013464320286
0.84,-1.630020659270378,5900.210019253143
0.844,-1.6373617690994702,5904.263450555956
0.848,-1.6333952009428954,5893.259716865158
0.852,-1.615011636163765,5898.492606235606
0.856,-1.5816768654217046,5894.979410072842
0.86,-1.535945311650323,5895.078834137443
0.864,-1.4832453334211118,5900.550852543879
0.868,-1.4309922990711088,5895.010405313193
0.872,-1.387218774212832,5903.418321671897
0.876,-1.3589750512183385,5896.609927074627
0.88,-1.3507911193902493,5904.894856610079
0.884,-1.3635226995741674,5900.27108793179
0.888,-1.393913864302222,5903.692430868437
0.892,-1.4351339734291886,5898.785491742508
0.896,-1.4783025501427118,5902.201120463028
0.9,-1.514643903530326,5905.798720333572
0.904,-1.537628855528714,5903.452826008767
0.908,-1.5444591188376184,5902.911168417654
0.912,-1.5365159794568046,5896.319994433107
0.916,-1.518734787585798,5898.905032484987
0.92,-1.498118149900327,5899.4417333394495
0.924,-1.481763907722237,5896.475912326378
0.928,-1.4748975329137153,5897.13057148279
0.932,-1.479424962410917,5902.669274539992
0.936,-1.4934241376027146,5902.805170670896
0.94,-1.5117748204254309,5896.153687769652
0.944,-1.527805944354252,5905.959337355403
0.948,-1.5354955868610676,5900.90687616946
0.952,-1.5315196717331314,5889.3224029180565
0.956,-1.516420830039858,5899.331111782108
0.96,-1.4944283412468526,5894.434997757377
0.964,-1.4719759751693273,5903.160095504828
0.968,-1.4555130400393022,5905.845030934861
0.972,-1.4494682164432104,5901.640987452924
0.976,-1.4550745452256768,5894.772354119306
0.98,-1.4703463713326628,5904.500296249475
0.984,-1.4910573411560057,5900.948469529311
0.988,-1.51225966002381,5904.854106245681
0.992,-1.5297790594039187,5908.025443682588
0.996,-1.5412333456201048,5899.892605534432
1.0,-1.5463814885015459,5893.417749289563
1.004,-1.5468639588326027,5902.409561940382
1.008,-1.5455322576819799,5906.439332471009
1.012,-1.545587388106713,5898.474768039804
1.016,-1.54971028438552,5895.076772722668
1.02,-1.5593189884204282,5904.9787565361885
1.024,-1.5740643403657892,5901.97944819037
1.028,-1.591690944436684,5895.46426597591
1.032,-1.608389252911447,5903.121697813011
1.036,-1.6196655062852514,5907.2585851505255
1.04,-1.6215667074121798,5890.807451952735
1.044,-1.611931456396997,5901.253078786342
1.048,-1.591277710702042,5897.947547173566
1.052,-1.5629814316393575,5897.557778736626
1.056,-1.5325596524754102,5902.4339626173805
1.06,-1.5061775029048656,5909.519428170448
1.064,-1.4888486484051608,5900.758858570337
1.068,-1.4829763634097965,5901.528441578669
1.072,-1.487754319891179,5898.733550541834
1.076,-1.499574082954572,5907.024257842607
1.08,-1.5131881649119931,5894.993952827323
1.084,-1.5231671129458555,5908.406127623182
1.088,-1.5252048173089088,5897.868255055513
1.092,-1.5169700583347792,5903.884820360255
1.096,-1.4984059476091838,5901.6065917779215
1.1,-1.471580592256997,5903.427984229937
1.104,-1.440258695377874,5905.1453266625895
1.108,-1.4092617842821917,5902.763536345859
1.112,-1.3836072430819342,5911.131562504442
1.116,-1.3675126939968532,5903.296018038826
1.12,-1.3634877980897546,5910.702728915657
1.124,-1.3717305719905277,5893.710133903357
1.128,-1.389955386111934,5896.2490071867405
1.132,-1.4137277248248208,5904.635032851174
1.136,-1.4373244472398832,5910.779222792485
1.14,-1.4549895714406047,5898.855318502638
1.144,-1.4622698519268718,5900.694615824127
1.148,-1.457042295722636,5894.72418282693
1.152,-1.4399574326786753,5903.563931873311
1.156,-1.4142386307832635,5904.956355017423
1.16,-1.384967958200565,5895.146064010907
1.164,-1.3580785446558619,5896.584958076771
1.168,-1.3392707737094085,5895.446371157048
1.172,-1.333039616582908,5904.157018349576
1.176,-1.3419790118192039,5903.4986590111
1.18,-1.36647736189783,5894.274431749529
1.184,-1.4048063874416754,5913.78299332645
1.188,-1.4534848049351494,5900.25716913406
1.192,-1.5077574844689925,5905.730505951667
1.196,-1.5621036829622048,5899.404199114505
1.2,-1.6107883839852826,5901.417930309107
1.204,-1.6484804240805158,5909.132265285465
1.208,-1.6708975821484877,5896.765681527348
1.212,-1.6754079234941501,5898.006265668515
1.216,-1.661522219572027,5911.898740511422
1.22,-1.631177784727356,5895.746768233178
1.224,-1.588662145200764,5896.535894078924
1.228,-1.5400712882303282,5900.394101832713
1.232,-1.4923632422257587,5897.067702228186
1.236,-1.452227527422512,5903.524547223135
1.24,-1.4250227946547163,5899.37573300802
1.244,-1.4139484327156886,5909.372600477926
1.248,-1.419529797259149,5894.64326461525
1.252,-1.4395035432655698,5899.576031285138
1.256,-1.4692239097589765,5908.076483761518
1.26,-1.502612157295989,5902.138191405476
1.264,-1.5334286153803962,5903.923626096858
1.268,-1.556468783223787,5893.878094250735
1.272,-1.5683342625725423,5894.52938679462
1.276,-1.5676293940987767,5904.166920148203
1.28,-1.5546484161994403,5894.093235627338
1.284,-1.5308179136388427,5903.774830042666
1.288,-1.4982927897964078,5905.817815662024
1.292,-1.4600207326590526,5898.266986434001
1.296,-1.4202535929112974,5893.030487647369
1.3,-1.3850958143084284,5894.78187276948
1.304,-1.3624957792518972,5907.152178001084
1.308,-1.3612085978941257,5902.533706195218
1.312,-1.3886242833478577,5898.373785143957
1.316,-1.4478117547162574,5901.142626906722
1.32,-1.5344974226022963,5900.65445335079
1.324,-1.6348249754560435,5899.761942263934
1.328,-1.7246207159404956,5901.960416470866
1.332,-1.7706976772627883,5909.803771685687
1.336,-1.7346054283878154,5895.279977554612
1.34,-1.5789981510358084,5895.161497401498
1.344,-1.2761382611539613,5897.009573005458
1.348,-0.8169328925251426,5905.817163272453
1.352,-0.21775094050685262,5907.006139572217
1.356,0.4781103576751738,5904.98991344158
1.36,1.2063041425577434,5901.190198421766
1.364,1.8939788102506674,5904.512376456304
1.368,2.475297579714403,5920.632192527452
1.372,2.9048046050243372,5930.121386604
1.376,3.164638679470763,5943.448333381683
1.38,3.264367137626818,5947.043439290563
1.384,3.234842592502435,5967.246848005482
1.388,3.118906084097338,5971.942908970412
1.392,2.961858968663201,5989.408754575646
1.396,2.803746481368889,6004.798755335798
1.4,2.674268477312962,6013.854364015582
1.404,2.5902553455935915,6012.349624244418
1.408,2.5553652424222593,6036.274022581622
1.412,2.5616745194754493,6042.823867243005
1.416,2.5928090761579368,6045.939917641088
1.42,2.6281411364167493,6068.583556104426
1.424,2.647421072613447,6059.411240070545
1.428,2.635074802890179,6082.6245867853295
1.432,2.5833492167540837,6091.31787665872
1.436,2.4936321641933223,6095.522604152123
1.44,2.3756393205627626,6109.4343828281535
1.444,2.244678005209026,6113.051369703052
1.448,2.1177304014021106,6116.201079927379
1.452,2.009450476879666,6125.395434956238
1.456,1.9291538935916461,6139.56439507228
1.46,1.8794814708239336,6142.799014610664
1.464,1.856846973246115,6151.271559819918
1.468,1.8532952657975272,6149.539908936717
1.472,1.8591021225228688,6173.254396873329
1.476,1.8653485307819757,6168.195399418428
1.48,1.8658109382356525,6175.587282316673
1.484,1.8577900903512834,6174.66012470813
1.488,1.8418440296488985,6203.072592654735
1.492,1.820682555037994,6200.1169039368215
1.496,1.7976617239770711,6203.387392358491
1.5,1.7753757269241695,6214.444005236624
1.504,1.754772305174065,6209.663709673088
1.508,1.7350102119254605,6227.052564641129
1.512,1.7139946951953748,6225.965914783792
1.516,1.6893010206817674,6236.333874742234
1.52,1.6591273250721654,6235.236219414896
1.524,1.6230061859599532,6251.261017982566
1.528,1.5821459508495883,6254.486929318507
1.532,1.5393561047130844,6261.093350143692
1.536,1.4985575839617378,6261.281098327181
1.54,1.4639776761820538,6262.999357435464
1.544,1.4392327754986722,6268.520202402016
1.548,1.4265013430586433,6268.546374450709
1.552,1.4259228974723412,6285.487175676421
1.556,1.4353291529689094,6288.623077461903
1.56,1.450409330150659,6291.633585294806
1.564,1.4653611007774445,6302.720588650145
1.568,1.473950940491904,6295.975877548731
1.572,1.4707444230750701,6299.270108930158
1.576,1.45218158448716,6309.978119800542
1.58,1.4172351638730023,6321.125894365313
1.584,1.367533491291023,6317.344282723189
1.588,1.3069675165975032,6319.930035397414
1.592,1.2409198801675574,6325.292012328716
1.596,1.1753333125022436,6332.253201052935
1.6,1.1158232505637637,6328.829801290194
1.604,1.066945863316295,6335.46245286717
1.608,1.031652542041345,6347.528659900164
1.612,1.0109630620601948,6341.41470143464
1.616,1.0039292797221275,6340.375699734097
1.62,1.007954273424317,6347.783617192333
1.624,1.0194574388388074,6360.158552758143
1.628,1.0347611320907946,6360.636049068282
1.632,1.0509459697042776,6356.217328289231
1.636,1.0663554675005391,6362.568927613155
1.64,1.0805423963111576,6365.671114915574
1.644,1.0937326739718358,6373.541886974801
1.648,1.1061394881470703,6373.463365843711
1.652,1.117482900847256,6367.866704913228
1.656,1.1268577249587397,6384.497420176223
1.66,1.132849834125973,6384.674355502794
1.664,1.1337319188321937,6381.895838486144
1.668,1.1276815916886436,6384.316881898197
1.672,1.1130844315048811,6389.4252020609165
1.676,1.0889539208704948,6391.302070311887
1.68,1.0553329539773249,6391.763630384112
1.684,1.0134159246727046,6401.824542845341
1.688,0.9652395392775708,6397.814768352125
1.692,0.9131090573394972,6405.32178619623
1.696,0.8591545455735112,6401.338963332405
1.7,0.8053071523288858,6401.144185656874
1.704,0.753665273335228,6412.854418422413
1.708,0.7069638645485928,6410.687102222715
1.712,0.668787249001369,6408.3683158133645
1.716,0.643259538418819,6413.966382756701
1.72,0.6341720951529687,6410.643188516302
1.724,0.6437839133939558,6421.812848420344
1.728,0.6717330834903057,6420.2368838914135
1.732,0.7145215808771876,6430.34594874119
1.736,0.765840601503667,6422.868730436913
1.74,0.8176683995275487,6428.711069975258
1.744,0.861797913373642,6439.136317652113
1.748,0.891390405245325,6424.826400710176
1.752,0.9022513937270306,6430.371375762907
1.756,0.89362566308273,6433.214138489049
1.76,0.8683458467008778,6435.516253467926
1.764,0.8322190340915515,6432.680034354518
1.768,0.7926953604047318,6440.126145709279
1.772,0.7571166402590169,6450.590687642924
1.776,0.7310392504487744,6453.964586286902
1.78,0.7171138181235417,6442.367698493888
1.784,0.7147835912049348,6449.205502390543
1.788,0.7207681702051948,6452.587005886999
1.792,0.7300785082943171,6453.926611061032
1.796,0.7372294609891188,6450.602999772519
1.8,0.7373655002931485,6458.835602300688
1.804,0.7271435793201871,6466.441968792449
1.808,0.7053351127106976,6453.413894780387
1.812,0.6731266675404283,6452.8397115535845
1.816,0.6340344589268885,6463.651284762631
1.82,0.5933329873038637,6463.360557465505
1.824,0.5570298334535165,6463.668632537771
1.828,0.530635311196408,6462.99104061238
