时间(s),电压(V),幅值(高频80K)
0.0,-1.6023635569299657,5904.586969910143
0.004,-1.4800046887862668,5889.690627517148
0.008,-1.3701493817534007,5904.340420344738
0.012,-1.283377983408152,5891.845109746897
0.016,-1.22626357341917,5904.741547800844
0.02,-1.2005658538262993,5906.032230836801
0.024,-1.2035142630233455,5899.701691889491
0.028,-1.2289695381083003,5893.554569187291
0.032,-1.2690773951983871,5901.954875493005
0.036,-1.3159429360368964,5909.453175394074
0.04,-1.3628448761288166,5907.186405409698
0.044,-1.4046981432870866,5904.471257557745
0.048,-1.4378805447464889,5898.964275249161
0.052,-1.4598914536202756,5895.245080210947
0.056,-1.4692910384926587,5908.454615046861
0.06,-1.4659912779390827,5901.474309157006
0.064,-1.4515931411582053,5899.150923126277
0.068,-1.4294028592034687,5904.215315286229
0.072,-1.4039731587706112,5894.076671455251
0.076,-1.3802471121483717,5900.28543556826
0.08,-1.3625036806526287,5910.829387211483
0.084,-1.3533817887520545,5898.431091807895
0.088,-1.3533314087359636,5900.586606995381
0.092,-1.3607791548563362,5900.349857602808
0.096,-1.3729898899819477,5892.750004674505
0.1,-1.3871974558827842,5900.827951209964
0.104,-1.401410737180411,5894.582115930272
0.108,-1.4145753461817412,5898.779394232128
0.112,-1.4262644604282462,5903.594271575794
0.116,-1.4363143232949163,5905.107380307592
0.12,-1.4446200636566928,5894.874427536425
0.124,-1.4509876986982415,5902.536789831198
0.128,-1.4549121867247312,5888.839446586658
0.132,-1.4554018178962627,5907.237540373415
0.136,-1.4511123658080383,5899.960860831756
0.14,-1.4408673503092675,5896.437100821704
0.144,-1.4243346510895896,5901.806630803578
0.148,-1.4025277042338864,5907.327524376209
0.152,-1.3779233207933956,5900.246776632457
0.156,-1.3541409820796682,5899.748631255374
0.16,-1.3352251130744883,5905.702014848903
0.164,-1.3246691256827097,5896.511236375627
0.168,-1.3244353771784185,5905.754955733723
0.172,-1.3342916637233249,5902.752994284485
0.176,-1.351728055617923,5903.700891761366
0.18,-1.3725279533460462,5895.950105711167
0.184,-1.3918381379830917,5890.159238163019
0.188,-1.4054427071693594,5894.096596391634
0.192,-1.4109214587797043,5902.15203059087
0.196,-1.4083952772080155,5893.434455807922
0.2,-1.400598232669354,5911.892382108069
0.204,-1.3921256815616077,5897.735740448463
0.208,-1.3879599252655552,5891.456412590162
0.212,-1.391723711762225,5901.297220891976
0.216,-1.40433669838282,5896.282102213435
0.22,-1.4236327081189801,5897.089663528636
0.224,-1.445074489746141,5901.453518549137
0.228,-1.4632403874264974,5900.79045195093
0.232,-1.4734847468057581,5888.082321994096
0.236,-1.473173625879726,5892.155032270339
0.24,-1.4621543458048547,5900.372020569389
0.244,-1.44251253570449,5904.709827822613
0.248,-1.417947276964247,5898.08218612884
0.252,-1.3930435621319779,5903.343006817856
0.256,-1.3724673993556993,5897.512951948878
0.26,-1.3600211512128224,5906.041816700868
0.264,-1.3577075852701754,5907.743541548253
0.268,-1.3651781442527398,5899.7746402317935
0.272,-1.3798817260680185,5902.480918187853
0.276,-1.3979212814768227,5900.694426665562
0.28,-1.4153071639475154,5899.885522313088
0.284,-1.429129142015104,5895.499049087868
0.288,-1.438197740870618,5904.659341286632
0.292,-1.4429291808040747,5895.703067899695
0.296,-1.4445963867643838,5890.349879294432
0.3,-1.444373787142097,5903.001516977682
0.304,-1.4426832188603569,5899.980514320333
0.308,-1.4391572707220959,5901.752966638094
0.312,-1.4332157629077384,5903.154053523758
0.316,-1.4249603879505834,5893.955512069772
0.32,-1.4158919030642563,5893.32846252209
0.324,-1.4089356875552634,5902.111646964355
0.328,-1.4075643272599603,5889.399569403468
0.332,-1.4143439893979033,5897.111007485953
0.336,-1.4296257611789267,5900.659706255033
0.34,-1.4510438572130657,5899.796813328207
0.344,-1.4740397098383544,5900.377267280317
0.348,-1.4931348511710074,5906.810599569762
0.352,-1.5034020356112778,5900.249163856997
0.356,-1.5016230010722207,5894.786661357442
0.36,-1.4868947930199492,5905.214318283187
0.364,-1.4607324551039935,5891.820319803171
0.368,-1.4267999442346055,5910.900421370168
0.372,-1.390304416248315,5895.237172030228
0.376,-1.3570283269055141,5901.206153997134
0.38,-1.3320884115435405,5898.862220848886
0.384,-1.3187278577906147,5908.757025266646
0.388,-1.317580354303456,5901.252824635959
0.392,-1.3267403508207796,5903.677356960894
0.396,-1.3426261983764411,5902.796679294776
0.4,-1.3612211960801344,5906.672440991298
0.404,-1.3791085497898659,5902.8989198050085
0.408,-1.3939196363549466,5895.34998128896
0.412,-1.4042319922529267,5900.635324387202
0.416,-1.4092529671157457,5901.693222658413
0.42,-1.408611791678591,5899.950034684901
0.424,-1.4023701137063924,5896.412095341479
0.428,-1.3911764571354444,5899.60028260207
0.432,-1.376410130842318,5898.930481529637
0.436,-1.3601647100846992,5906.208032450508
0.44,-1.3450050814225056,5898.6636027055565
0.444,-1.333529024017064,5903.5453166105335
0.448,-1.327798311175704,5900.487978747644
0.452,-1.3287328832571446,5907.115904602901
0.456,-1.3356549925580607,5901.20319676811
0.46,-1.3462422031419186,5891.890661337174
0.464,-1.357056986718595,5896.587900215391
0.468,-1.364552546781331,5897.745245320052
0.472,-1.366168197657645,5893.2631817585225
0.476,-1.3610468653663341,5893.591494295949
0.48,-1.3501217161018504,5906.260624069528
0.484,-1.3356670060973213,5903.573797801822
0.488,-1.3206084609011706,5907.096897808928
0.492,-1.3078354378386192,5908.330315728131
0.496,-1.2996246600075891,5899.959669479445
0.5,-1.2972473580145234,5903.475281772229
0.504,-1.3008292854058345,5904.394291192036
0.508,-1.3094631408528434,5896.620022995208
0.512,-1.321486973550091,5901.286759746694
0.516,-1.3348192462521606,5897.254903517048
0.52,-1.3472779896240832,5903.192174183763
0.524,-1.356882678200292,5905.718973095241
0.528,-1.362199968885141,5900.712804339004
0.532,-1.362768990713976,5903.887821652737
0.536,-1.3595039588631905,5903.763757079485
0.54,-1.3548290470097724,5896.823716405291
0.544,-1.3523105772275519,5901.583484390819
0.548,-1.355748469196896,5902.860512852405
0.552,-1.3679446133749718,5898.293686740446
0.556,-1.38954529454354,5897.763957708077
0.56,-1.4184006430357345,5903.394622389216
0.5640000000000001,-1.449753339740348,5895.351082773674
0.5680000000000001,-1.4772663784490534,5899.559757075423
0.5720000000000001,-1.494576639638605,5901.02663781804
0.5760000000000001,-1.496900420898747,5901.888727758205
0.58,-1.4822431526086615,5889.558240023696
0.584,-1.451897905361068,5907.542092622529
0.588,-1.4101227652635775,5899.27315662579
0.592,-1.3631394869707316,5896.361571569241
0.596,-1.3177825651717858,5893.52483645036
0.6,-1.2801517153681894,5899.777207903168
0.604,-1.2545383977502194,5897.431685521884
0.608,-1.2428163726423727,5896.617836643353
0.612,-1.2443944742892294,5898.565661104915
0.616,-1.2566728357736947,5906.197742642567
0.62,-1.2757924805806926,5897.283356238268
0.624,-1.2974466569933516,5903.619688765783
0.628,-1.3176190018637028,5896.479709141168
0.632,-1.3331983547310997,5912.171129968863
0.636,-1.3424325353601598,5903.472454495998
0.64,-1.3451758649936483,5901.189535527836
0.644,-1.342894901779079,5899.150889666326
0.648,-1.3384092727783787,5895.164421928189
0.652,-1.3353626080562777,5903.50998031004
0.656,-1.3374748029919077,5896.063428627119
0.66,-1.3477321173402217,5887.004771627385
0.664,-1.367770443220999,5899.412931432199
0.668,-1.3976831648580796,5903.364106904032
0.672,-1.4362664877562228,5894.272803437861
0.676,-1.4814222560484611,5898.872192223344
0.68,-1.5303495121170276,5898.047107458611
0.684,-1.5794093816168,5903.830713276147
0.6880000000000001,-1.6239299956648117,5900.516522253528
0.6920000000000001,-1.6583837793219562,5891.760652657221
0.6960000000000001,-1.6772040419356025,5898.722372133651
0.7000000000000001,-1.6761424563753402,5894.554387277156
0.704,-1.6536930479853602,5903.098638290143
0.708,-1.611939989703394,5898.925272860217
0.712,-1.5563956081595065,5900.210502603234
0.716,-1.4948680075886354,5895.027689056112
0.72,-1.4357948158938465,5901.959593398891
0.724,-1.3865965678840544,5898.727387251993
0.728,-1.35248730257974,5902.417385264344
0.732,-1.3359498500703206,5902.27394036505
0.736,-1.3368300668850084,5903.093898205541
0.74,-1.3528155209062005,5908.616998840638
0.744,-1.3800262116345392,5898.635714773811
0.748,-1.4135789181639729,5895.965600537995
0.752,-1.4481668690636382,5908.636252066193
0.756,-1.47873493486125,5895.287624227927
0.76,-1.5012101564330353,5895.121749232393
0.764,-1.5131371395699824,5898.623092251864
0.768,-1.514071440536211,5903.67835751117
0.772,-1.505629869744817,5897.385155334677
0.776,-1.4911145058686492,5903.376788477994
0.78,-1.4746780631668939,5886.234564236072
0.784,-1.4601564738113666,5902.251388757441
0.788,-1.4499080643021636,5900.295043134422
0.792,-1.4441099369865154,5904.193587756808
0.796,-1.4408353831458254,5892.242978762524
0.8,-1.4369041083901444,5894.785395177055
0.804,-1.4291658990747493,5906.894572817053
0.808,-1.415732829279058,5903.1979392833055
0.812,-1.3967390620849247,5900.431868245548
0.8160000000000001,-1.3744022042174473,5896.115282404045
0.8200000000000001,-1.352395874598421,5898.227796107892
0.8240000000000001,-1.3347433129845558,5904.718638105119
0.8280000000000001,-1.3245592508979158,5900.368628582127
0.8320000000000001,-1.3229981372847464,5898.811101611343
0.836,-1.3287321416300182,5897.101279821035
0.84,-1.3381896307872827,5890.940835276705
0.844,-1.3466036765625085,5902.171216767122
0.848,-1.3496247851452647,5900.392984233136
0.852,-1.3449357562362498,5894.678457534763
0.856,-1.3331856516043208,5905.416303858972
0.86,-1.3177779150656102,5902.401644616875
0.864,-1.303537143981856,5897.815997294273
0.868,-1.2948132469202842,5896.946102229779
0.872,-1.293867123652001,5902.9693746943885
0.876,-1.3002107761034616,5903.302118060728
0.88,-1.3110473551846575,5894.342006655199
0.884,-1.3224468080176006,5912.349866841252
0.888,-1.3306931548962864,5897.301954100304
0.892,-1.3333419116784886,5886.866197319748
0.896,-1.3297534546866798,5907.14050815393
0.9,-1.3210798015028933,5899.5189915639385
0.904,-1.3098236380594013,5903.028005263224
0.908,-1.2991436576389641,5900.930685141339
0.912,-1.292066774976006,5898.963716177715
0.916,-1.290749582281282,5901.59403626753
0.92,-1.2959488034332545,5902.186628210634
0.924,-1.306856328501985,5895.242430727512
0.928,-1.3213581254237496,5899.568114190777
0.932,-1.3366310196031144,5902.387112394152
0.936,-1.3498974692109362,5893.5751010923295
0.94,-1.3591402878451417,5901.757247934888
0.944,-1.363607636549505,5899.941818976173
0.948,-1.364009754807275,5905.245982514927
0.952,-1.362401520622018,5897.040371176265
0.956,-1.3617955475897847,5906.22827274951
0.96,-1.3655495300177818,5904.023991185592
0.964,-1.3765847113562482,5898.813659432112
0.968,-1.3965574758066635,5896.120260119851
0.972,-1.425191493645228,5898.861490632878
0.976,-1.460018168686692,5898.22211957692
0.98,-1.4966940685601564,5905.171438289469
0.984,-1.529848988338734,5901.077215530755
0.988,-1.5541945051219532,5901.485914796983
0.992,-1.5655785215655038,5902.533261749074
0.996,-1.5618198276611437,5898.710982240242
1.0,-1.543285138594638,5898.121451467907
1.004,-1.5131166770711886,5889.582362289997
1.008,-1.4769000393081182,5903.162938927272
1.012,-1.441621512685454,5903.425009313969
1.016,-1.4140517032848339,5894.868587645671
1.02,-1.399017755561954,5902.321028166247
1.024,-1.3981640757578484,5898.137295097659
1.028,-1.4096563560814757,5897.593703406312
1.032,-1.4289145928143305,5911.592615555995
1.036,-1.4500514460010272,5905.499756907248
1.04,-1.467463511509897,5898.648549473252
1.044,-1.4770706111552268,5911.583348698473
1.048,-1.476932167308695,5904.158839946148
1.052,-1.4672412457854507,5904.705361907416
1.056,-1.4498998355569623,5894.081946208293
1.06,-1.4279328355635013,5908.861457547543
1.064,-1.4048891711970288,5900.82060636302
1.068,-1.3842348166336642,5888.079798211429
1.072,-1.3687309597174824,5892.934086776623
1.076,-1.3599161337188048,5900.499263415874
1.08,-1.3579063903024182,5906.930859690226
1.084,-1.3616445902549268,5899.921831448244
1.088,-1.3694822450770223,5894.4919872716
1.092,-1.379735984867828,5889.135132339892
1.096,-1.3908650947982344,5904.749168240949
1.1,-1.4012498618192875,5898.762349436756
1.104,-1.40894460751539,5893.4928714771695
1.108,-1.4118423559022815,5887.207972408011
1.112,-1.408350923366476,5892.648567684554
1.116,-1.3982433923253315,5902.849685828628
1.12,-1.3831437173122156,5885.547975794207
1.124,-1.3662669291666385,5890.628933838144
1.128,-1.3514441656565561,5897.821789362146
1.132,-1.341852055292196,5903.945206947948
1.136,-1.3389825072620634,5904.526187173986
1.14,-1.342220425601744,5903.137709090267
1.144,-1.349139823939225,5898.35482618498
1.148,-1.3564250873629742,5903.253057473882
1.152,-1.361146130930411,5896.425059428075
1.156,-1.361937295570551,5895.784851755721
1.16,-1.3595689169420713,5891.822639850208
1.164,-1.3566080123299415,5905.853956625246
1.168,-1.3563046946875414,5894.091789587203
1.172,-1.361248182260517,5909.211088770416
1.176,-1.372417135476899,5896.558710438237
1.18,-1.3889498084217504,5895.763079029922
1.184,-1.4085325770719275,5905.536930397057
1.188,-1.4280759182776062,5901.86931096951
1.192,-1.444410404618957,5898.467226815029
1.196,-1.4549123307127254,5901.889439235093
1.2,-1.458040235022179,5895.093046748087
1.204,-1.4537061914377525,5897.78673234218
1.208,-1.4433632058210633,5894.416247754941
1.212,-1.4297455996099315,5906.698283855989
1.216,-1.4162893476475626,5897.337766013664
1.22,-1.406325194121083,5905.671760889024
1.224,-1.4022054573550102,5901.421131379088
1.228,-1.4045985064773652,5898.156932051195
1.232,-1.4121918382538663,5893.344352188211
1.236,-1.4219441822525085,5904.335207726248
1.24,-1.4298627498634502,5902.13316002045
1.244,-1.4321118837833193,5904.6025990656535
1.248,-1.4261374323407667,5893.615992246929
1.252,-1.4114930378187684,5900.187697694853
1.256,-1.3901785627573346,5900.90294714833
1.26,-1.366416804803057,5899.258453689931
1.264,-1.3458377103757189,5892.936329341407
1.268,-1.334125222536407,5905.47794879348
1.272,-1.3354068937365728,5905.564282059761
1.276,-1.3509142002926056,5906.455445230689
1.28,-1.3784705026472959,5905.737272176473
1.284,-1.413050596943109,5896.1037260549465
1.288,-1.4481616150083159,5895.179944554674
1.292,-1.4774620319497707,5904.213289092169
1.296,-1.4960607854922936,5893.371744070611
1.3,-1.5012130577410223,5898.232094419668
1.304,-1.4924281648257924,5901.680488705168
1.308,-1.4711902553967762,5902.019884089531
1.312,-1.4405173678368033,5900.31922904867
1.316,-1.404481601094077,5903.66300701449
1.32,-1.3676989441437446,5894.44831696482
1.324,-1.3347705396464316,5898.601088086798
1.328,-1.3097100546713087,5896.893988310626
1.332,-1.2954531583157465,5916.544541060054
1.336,-1.2935530579883885,5904.016980619482
1.34,-1.3040967173929052,5904.110146017781
1.344,-1.3257707368390101,5907.566382889283
1.348,-1.3559704652866198,5898.550206884343
1.352,-1.3909468534320983,5901.552936110162
1.356,-1.426131590666743,5892.722256831559
1.36,-1.4567892143608787,5902.034369458908
1.364,-1.4789418604960387,5900.63159724757
1.368,-1.4902435438879198,5895.334151813915
1.372,-1.49040757523247,5902.944223370588
1.376,-1.48103413881481,5906.03216117948
1.38,-1.4650502551342928,5891.261009545972
1.384,-1.4461157768972637,5898.810336674934
1.388,-1.4281621940963272,5904.666377717316
1.392,-1.4149690038531972,5901.750402551103
1.396,-1.409622994502411,5897.220824792184
1.4,-1.4138489297878136,5893.825873228344
1.404,-1.4273764389399404,5897.89523718009
1.408,-1.4476133062750614,5899.2891442675145
1.412,-1.469891968974055,5898.404211048324
1.416,-1.488393493782611,5890.619222691397
1.42,-1.4975564656987217,5907.751320491429
1.424,-1.4935306374104833,5893.431248154216
1.428,-1.4752180419997238,5900.719952994154
1.432,-1.4446311384667343,5895.88351708195
1.436,-1.4065263384832476,5890.028624308562
1.44,-1.3674455474699916,5892.344350416319
1.444,-1.3343965455449265,5896.8605345824135
1.448,-1.3134106655731335,5906.851859238199
1.452,-1.3081857348973465,5894.665579079434
1.456,-1.319058379411601,5901.335281309549
1.46,-1.3426279552295168,5900.883756371495
1.464,-1.3723075103482345,5906.635826620116
1.468,-1.3998353459024806,5897.801170098137
1.472,-1.4174788033258927,5896.499142029233
1.476,-1.420457400632278,5894.507170771978
1.48,-1.409014021730519,5918.239518382664
1.484,-1.3894970081815816,5901.422578101479
1.488,-1.3738042703020934,5900.2412976171845
1.492,-1.3767512389295267,5902.009576375373
1.496,-1.4115000832335054,5892.586321987562
1.5,-1.4839857439144937,5891.53389022875
1.504,-1.5878771742526012,5902.742238906245
1.508,-1.701708043901565,5902.124495679542
1.512,-1.7894536699600432,5904.0995576560645
1.516,-1.8052126575239498,5895.765545481902
1.52,-1.7018079035848055,5908.4757799645095
1.524,-1.442017796552401,5901.943927813385
1.528,-1.0099385559044654,5901.884854136929
1.532,-0.41908797573690126,5909.466327962577
1.536,0.28609396195938325,5900.987918026829
1.54,1.037142999579734,5891.078207706916
1.544,1.755678468144126,5902.400252169872
1.548,2.37042113541143,5919.247780936858
1.552,2.83157174607749,5934.491040497486
1.556,3.118456435559185,5951.927038038573
1.56,3.2393171954003006,5959.623525386806
1.564,3.224763091902732,5966.433644895174
1.568,3.11778564954694,5973.7557000131455
1.572,2.9634150509550468,5985.0594394550535
1.576,2.8003950786309115,5996.988973607474
1.58,2.6561279782112552,6011.203792559947
1.584,2.545065087999566,6015.265398966147
1.588,2.469978908289728,6029.211278279621
1.592,2.42515135441993,6038.608374348738
1.596,2.4003738352293422,6055.557309496732
1.6,2.384757444106585,6055.065157457781
1.604,2.3696350057813116,6063.868725520809
1.608,2.3501535663636335,6074.074330815815
1.612,2.3254372991201673,6080.821958364281
1.616,2.2975221774122,6086.836247072813
1.62,2.269627714546431,6105.393011789323
1.624,2.244520848232003,6112.553916474845
1.628,2.2235392395303784,6114.539192723692
1.632,2.2063927805941503,6122.382443834095
1.636,2.1915010511408073,6136.28732722622
1.64,2.1765482702079755,6148.363041027796
1.644,2.159043515550781,6145.48145327043
1.648,2.136786875246303,6156.933411406631
1.652,2.1082121044763538,6159.752862933443
1.656,2.072612819963867,6182.250961857286
1.66,2.0302509297919573,6181.452974104988
1.664,1.9823289012556475,6179.430474430023
1.668,1.9308463338406063,6197.510137144241
1.672,1.8784064911194134,6192.291177234876
1.676,1.8279846418368826,6210.457429177773
1.68,1.7825708636135897,6222.222358290722
1.684,1.7446180265405786,6215.059811360432
1.688,1.7153825174828348,6222.982408290723
1.692,1.6944051753256897,6228.211442533502
1.696,1.6794285052323512,6232.873584617907
1.7,1.6669377077938796,6241.491560985177
1.704,1.6532419029945267,6247.886390346284
1.708,1.6356849837481262,6259.427305417867
1.712,1.6134310141780943,6260.451078481119
1.716,1.5874761027341846,6266.995213701174
1.72,1.5599757411568107,6260.642641519514
1.724,1.5333149871736371,6280.243370341427
1.728,1.5093821292142224,6278.149298190895
1.732,1.4892922552059036,6272.992738836728
1.736,1.4735080893602222,6290.731171013394
1.74,1.4620756251573745,6301.269253729543
1.744,1.4546704598908278,6304.092017622248
1.748,1.4503601163307502,6313.940396062331
1.752,1.4472758857243853,6312.599640136865
1.756,1.4425545605310754,6309.088638104989
1.76,1.4328324676219168,6303.591495259549
1.764,1.4152537271154655,6319.268746958196
1.768,1.3885725392342878,6324.537743527844
1.772,1.3537852822228489,6322.172144325955
1.776,1.3139732247715026,6333.504076460285
1.78,1.273476833681929,6340.395500933223
1.784,1.2367971438149696,6339.332923328576
1.788,1.2075754354958173,6351.831665306871
1.792,1.187818763354922,6342.743160636991
1.796,1.1774624509949132,6348.283350209912
1.8,1.174407596701648,6355.8200876818855
1.804,1.1751627369587183,6361.636501329281
1.808,1.176025358406387,6355.41343534333
1.812,1.1744261255453445,6364.1239229459625
1.816,1.1698469201006565,6362.509868268521
1.82,1.163818072919961,6367.489222226586
1.824,1.1589089646320359,6368.917345539866
