时间(s),电压(V),幅值(高频80K)
0.0,-1.485224624632843,5900.795977764783
0.004,-1.3705852075613703,5907.414858174758
0.008,-1.2712202028801476,5893.141393448357
0.012,-1.1983473706862806,5900.799271842153
0.016,-1.1571735431884718,5898.47309654789
0.02,-1.1465805465048553,5900.487385997433
0.024,-1.1603689550863974,5899.845355108857
0.028,-1.189285896122027,5900.906147014521
0.032,-1.2231759078628202,5904.997451353755
0.036,-1.2528492232823671,5897.582879598451
0.04,-1.2714230131116289,5895.523092002978
0.044,-1.2750432142484602,5902.128117143958
0.048,-1.263095645750871,5890.532908243155
0.052,-1.238103141427515,5900.148241226213
0.056,-1.2053557559755785,5904.323678803738
0.06,-1.1721042569753828,5901.21951327701
0.064,-1.146172561017347,5893.099097068678
0.068,-1.1341602169879186,5907.668145347776
0.072,-1.1397138424943705,5882.476977275382
0.076,-1.162393071912248,5891.665612673205
0.08,-1.1974929434394908,5904.301296715614
0.084,-1.23695949474863,5906.464924721248
0.088,-1.2712837993047008,5896.116903269925
0.092,-1.2919711256256976,5896.965807340909
0.096,-1.2939115483885095,5892.966834534823
0.1,-1.2768628471626096,5892.635782183839
0.104,-1.2454485148844785,5901.299188148234
0.108,-1.207594869043372,5895.541283472993
0.112,-1.1719681535086042,5897.565504490372
0.116,-1.1453791884895463,5899.945287547317
0.12,-1.1310780026420129,5897.662115910205
0.124,-1.1284282882620809,5892.717400457522
0.128,-1.1338892585476898,5907.326209820203
0.132,-1.1427862914898586,5896.7168075122045
0.136,-1.1511534042861136,5903.411701446425
0.14,-1.156999795737296,5891.736839123256
0.144,-1.160625911226435,5899.618830052918
0.148,-1.1639894627659644,5905.670922666679
0.152,-1.1694792267361436,5897.883900541798
0.156,-1.1786574114859003,5905.628419370597
0.16,-1.191487911187697,5898.331036809474
0.164,-1.2063196066593884,5898.865689073541
0.168,-1.2205864321382265,5906.651102097524
0.172,-1.2319356848115288,5898.379139143325
0.176,-1.2393284835390352,5903.878048133164
0.18,-1.2435946969857068,5900.227078399521
0.184,-1.2470831522600994,5899.475964753207
0.188,-1.2524921132563247,5907.426223615237
0.192,-1.2614610388707606,5907.676926987173
0.196,-1.2736446027812423,5896.040827272613
0.2,-1.286671928263377,5897.554902125698
0.204,-1.2969379564879924,5901.718144047346
0.208,-1.3008899938256733,5905.61517061224
0.212,-1.296374359213215,5903.913880872712
0.216,-1.2835956224094842,5899.926761680675
0.22,-1.2653258137717525,5904.61046035962
0.224,-1.246254901550256,5897.97102340651
0.228,-1.231735764441684,5901.730425824508
0.232,-1.2264155029690524,5902.315811689742
0.236,-1.2331896784195524,5903.528816290331
0.24,-1.2526662675985294,5894.333109663527
0.244,-1.2831158250543684,5899.438762025792
0.248,-1.3208138566338015,5894.995058010616
0.252,-1.3606935797319029,5901.875482035601
0.256,-1.397239733783489,5903.723849154646
0.26,-1.4255189896148435,5901.991501044927
0.264,-1.442166017695355,5906.889561216502
0.268,-1.4460804384188488,5899.193829027987
0.272,-1.438583632428874,5897.971370135983
0.276,-1.4228737997261778,5894.741385789829
0.28,-1.4028492431232646,5885.874372725584
0.284,-1.3816850982155289,5901.083859625215
0.288,-1.3607374077916177,5901.825549699288
0.292,-1.339252993410802,5897.856829551794
0.296,-1.3150397315667566,5887.37996856776
0.3,-1.2858554059166876,5902.272158071441
0.304,-1.2509427394890529,5904.123795425726
0.308,-1.2120318362934477,5898.67933992418
0.312,-1.1733616835278387,5906.471857571369
0.316,-1.1407205697983498,5895.786571067825
0.32,-1.1198800933246613,5904.147617603277
0.324,-1.1149438812072345,5906.54353090244
0.328,-1.1271174294628734,5899.024111865423
0.332,-1.1542828065652497,5901.325993013017
0.336,-1.1914908137008322,5898.252501468658
0.34,-1.2321351208435591,5897.485416631453
0.344,-1.2693666997143787,5905.632146053129
0.348,-1.2973582469216816,5895.744636862157
0.352,-1.3122151287372903,5895.728713646308
0.356,-1.3124574468742747,5899.279268699829
0.36,-1.2990351361267891,5897.766082124202
0.364,-1.2749148640920085,5907.938623781876
0.368,-1.2444338680442093,5893.206554551169
0.372,-1.2126755625707946,5894.568767415228
0.376,-1.1849515700260957,5898.709526209836
0.38,-1.1662414232163734,5902.870427750604
0.384,-1.1604223580159125,5895.317969717415
0.388,-1.1693552953003556,5903.130068498358
0.392,-1.1921616562377435,5904.681001074766
0.396,-1.225099516872076,5900.542371498115
0.4,-1.2622510120519854,5900.434661263527
0.404,-1.2968671716441185,5904.526851833946
0.408,-1.3229045479868213,5899.9903870758
0.412,-1.3362301884755736,5891.3957016407885
0.416,-1.335178197258486,5892.95316907045
0.42,-1.3204315163323705,5906.436091898917
0.424,-1.2944089660831657,5910.110894445387
0.428,-1.2604473079132161,5886.980873679601
0.432,-1.2221034813946148,5889.148395779529
0.436,-1.1828007015810653,5902.072545613882
0.44,-1.14578523382999,5897.098242052488
0.444,-1.1141154782939597,5898.960891472427
0.448,-1.090411438573272,5902.491039758963
0.452,-1.0763873490746152,5902.052273784852
0.456,-1.072487794686783,5895.6962388579805
0.46,-1.0779211718126025,5898.958738977395
0.464,-1.09106396868652,5908.869388725882
0.468,-1.109943240280857,5888.3878292950285
0.472,-1.132531176296249,5904.130814950691
0.476,-1.1568083822239836,5899.012103751274
0.48,-1.1807418955160014,5899.843482237389
0.484,-1.2023641906671432,5907.799686732347
0.488,-1.2200314524844469,5896.491214917583
0.492,-1.2327537649228804,5904.122888880089
0.496,-1.2403838302274974,5896.861675459757
0.5,-1.2435500386526004,5901.235379088346
0.504,-1.2434322905461583,5891.69754443914
0.508,-1.241567765874814,5907.19742623315
0.512,-1.2397407318805957,5896.006757837347
0.516,-1.239821238270938,5896.123045753656
0.52,-1.2434187130071732,5893.587449067224
0.524,-1.251447025014804,5900.850449729301
0.528,-1.263902586704714,5900.531892112612
0.532,-1.2800550110628548,5905.852345549294
0.536,-1.298898855952908,5899.919661075976
0.54,-1.3194850041995945,5894.029444642826
0.544,-1.3408828223548594,5909.5843890600445
0.548,-1.3618647547984788,5907.178965583897
0.552,-1.3806345207421054,5898.363711888469
0.556,-1.394897065050481,5895.935239435292
0.56,-1.402349631132792,5897.552807173651
0.5640000000000001,-1.4013836610241426,5904.758692083692
0.5680000000000001,-1.391615776761782,5894.70303092049
0.5720000000000001,-1.3739802066234317,5889.398927299555
0.5760000000000001,-1.3504168037705506,5893.838878777372
0.58,-1.323377330118186,5897.760663211563
0.584,-1.2953359750128082,5899.8378365759645
0.588,-1.268394124786168,5902.817928725161
0.592,-1.2440479007748755,5901.221085943521
0.596,-1.2231802953441488,5892.25679495272
0.6,-1.2062520985959468,5909.402930748651
0.604,-1.1935357219462412,5900.324275248222
0.608,-1.1852087846438148,5903.006605249235
0.612,-1.181267890376332,5897.914367032369
0.616,-1.181401657832391,5890.380330428622
0.62,-1.1849702906941704,5903.795275952469
0.624,-1.191074788196794,5897.871799072115
0.628,-1.1985867172380131,5895.1462768783085
0.632,-1.2061061545938432,5895.977454802332
0.636,-1.2120151352405428,5899.092694614037
0.64,-1.2148552892967268,5900.601186224464
0.644,-1.2140534267331007,5890.329656190623
0.648,-1.2106816028825542,5901.279893795309
0.652,-1.207765377115662,5897.294536543346
0.656,-1.2098089995475654,5903.4787767011085
0.66,-1.221570773533035,5895.747744564845
0.664,-1.2464560039851826,5894.309511108285
0.668,-1.285049974259996,5911.443752872242
0.672,-1.3342720970727973,5897.460730580528
0.676,-1.387453298297772,5898.376467604556
0.68,-1.4354092169826536,5902.229854459745
0.684,-1.4683561320557599,5896.6307516822135
0.6880000000000001,-1.478281527165007,5907.040260057418
0.6920000000000001,-1.4611451482882734,5903.709138611435
0.6960000000000001,-1.4181855233884135,5904.149094201396
0.7000000000000001,-1.3558142335960761,5896.551888483642
0.704,-1.284077654142459,5902.331508474824
0.708,-1.2141988599635953,5885.409655946991
0.712,-1.1560055535605585,5900.833499805512
0.716,-1.1160082760530334,5903.95947769472
0.72,-1.0965909317206277,5897.908541946523
0.724,-1.0963467409997143,5903.233590929002
0.728,-1.1112016926953396,5902.639663290434
0.732,-1.1357903673909604,5900.860484304511
0.736,-1.1646465496705833,5903.725330709431
0.74,-1.193014510312481,5906.520873785985
0.744,-1.2172854561135342,5884.5513771854085
0.748,-1.2351354423520446,5902.327711312691
0.752,-1.2454359071785952,5895.95819687918
0.756,-1.2480123272470869,5906.01349664623
0.76,-1.243362801414591,5902.453007858243
0.764,-1.2324513696135055,5898.227676123975
0.768,-1.2166104405855935,5905.420455186564
0.772,-1.1974970906754012,5900.795430076469
0.776,-1.1770524934596707,5911.438500922526
0.78,-1.157473365443963,5893.600404434184
0.784,-1.1411975332328932,5908.07702625495
0.788,-1.1308190499576372,5903.626272843178
0.792,-1.1287975124591394,5903.124633901863
0.796,-1.1369147432409066,5904.329507822595
0.8,-1.1556333309584297,5896.980446254182
0.804,-1.183675478618713,5894.00762778141
0.808,-1.2181152661310788,5902.706208634759
0.812,-1.2550446375215927,5908.221241255103
0.8160000000000001,-1.2905639281791481,5895.542054045301
0.8200000000000001,-1.321644929077092,5902.992137473414
0.8240000000000001,-1.3464674839731967,5899.0727638948965
0.8280000000000001,-1.364163838140188,5894.356897717981
0.8320000000000001,-1.3743105045924549,5896.929606115079
0.836,-1.376642183633607,5907.572755030231
0.84,-1.3711980050777581,5902.540632741817
0.844,-1.358715237703214,5888.640324370821
0.848,-1.340930803652768,5900.385934400013
0.852,-1.320584045439175,5897.092265901134
0.856,-1.3010805432051415,5902.6629798878885
0.86,-1.2858388040256272,5897.992036590639
0.864,-1.2774144738473883,5893.299233912492
0.868,-1.2766404883592186,5892.320128964752
0.872,-1.2821142864770074,5896.480758025345
0.876,-1.290310482182785,5898.540648768539
0.88,-1.2964131885585004,5890.591239175541
0.884,-1.2956919779111824,5895.53669337493
0.888,-1.2849880241931864,5909.987514674136
0.892,-1.2637862648092502,5900.524811563668
0.896,-1.2345009857129987,5890.882625676697
0.9,-1.201911734000787,5914.886993516997
0.904,-1.1719784499673807,5915.627380813152
0.908,-1.150396718384367,5896.172267234874
0.912,-1.141222522416606,5897.696969840096
0.916,-1.1458331200648793,5900.233179530871
0.92,-1.1624911271224647,5900.883282962428
0.924,-1.1867487302132511,5897.086723943377
0.928,-1.2127001057161428,5900.248905773565
0.932,-1.2346879148691963,5900.11986974531
0.936,-1.2487874128758436,5902.632485943898
0.94,-1.25352250972455,5904.617340951167
0.944,-1.2497453001177685,5901.326665557339
0.948,-1.2400144501477426,5898.7930379828695
0.952,-1.227830451000512,5899.218379570269
0.956,-1.2168688275810957,5905.468156441345
0.96,-1.2102305630013919,5904.10684498166
0.964,-1.2097924960336037,5901.669126661966
0.968,-1.2158174477405632,5890.329203864053
0.972,-1.2269381912320172,5896.76200028689
0.976,-1.2405033542251855,5899.12103606904
0.98,-1.2531659100853605,5899.768663564763
0.984,-1.2615476158921248,5898.971793314058
0.988,-1.2628349831449819,5902.031735909323
0.992,-1.2552449937359997,5902.555016584332
0.996,-1.2383779951409026,5903.358684180406
1.0,-1.2134701791117937,5900.681547880428
1.004,-1.1834645772511456,5895.41818496385
1.008,-1.152736806053399,5894.246725511098
1.012,-1.126357975658568,5901.699519930996
1.016,-1.108965488963651,5910.260390154782
1.02,-1.103530152064669,5896.118670942911
1.024,-1.110423111877629,5901.522983230668
1.028,-1.127141852629997,5902.975193383505
1.032,-1.1488688497841442,5903.200577977464
1.036,-1.1697627519067102,5891.547293528708
1.04,-1.1846080646561865,5893.988681616104
1.044,-1.190305802919269,5892.470254362738
1.048,-1.1867528826071723,5904.864683639104
1.052,-1.1768590919562798,5900.575048640467
1.056,-1.165671264014499,5901.7813273327
1.06,-1.158800441727012,5897.2881965111055
1.064,-1.1605803516064774,5906.960751713131
1.068,-1.172536399201366,5897.703186979548
1.072,-1.1927219156795283,5899.029715405382
1.076,-1.216250802361496,5896.651862193314
1.08,-1.2369321985000927,5897.092184675137
1.084,-1.2494152533929055,5902.956895914824
1.088,-1.2509643402762258,5900.104311240397
1.092,-1.2421517831496462,5902.94327470692
1.096,-1.2262987135535102,5897.600944431758
1.1,-1.2080442800173694,5908.868248477615
1.104,-1.1916731073233278,5903.140848718356
1.108,-1.1797726871146657,5903.371482806724
1.112,-1.1725780969321598,5900.504159499654
1.116,-1.1681030432767048,5906.098609430127
1.12,-1.1629274597660075,5898.669788959405
1.124,-1.153382534397136,5899.253182869255
1.128,-1.1368448783227427,5892.510100868079
1.132,-1.1128488861776946,5907.783897206742
1.136,-1.0837163271430674,5898.904960786649
1.14,-1.054441508917691,5898.200791215944
1.144,-1.0317260084397797,5895.292896116796
1.148,-1.0223242857238666,5897.100143400163
1.152,-1.031142069352797,5898.954201124031
1.156,-1.0596826539492055,5899.065137452317
1.16,-1.1053807857946187,5895.895890186833
1.164,-1.1620922427213094,5902.09403800805
1.168,-1.2215677173165715,5907.353070759634
1.172,-1.2753289190526378,5899.3367131370505
1.176,-1.316279669386677,5898.191361505181
1.18,-1.339689636481882,5898.546966598381
1.184,-1.343588133944726,5905.10871500214
1.188,-1.3287780236371793,5899.436356514999
1.192,-1.2985908798179362,5905.710977673798
1.196,-1.258353191215077,5904.210708132425
1.2,-1.2145179440926155,5907.614513172387
1.204,-1.1735659449479598,5899.366475228645
1.208,-1.1409551253973103,5909.010694757207
1.212,-1.1204261423704405,5900.631762648338
1.216,-1.1138061843537148,5910.081032978954
1.22,-1.1212009983518545,5900.84458266942
1.224,-1.1413282801200286,5896.896083961167
1.228,-1.171806195430241,5903.265847454546
1.232,-1.209344091379667,5895.610435219586
1.236,-1.249863725478233,5893.178539500213
1.24,-1.2886340656524036,5899.069913274079
1.244,-1.3205633266004417,5893.889086412566
1.248,-1.3407881681821257,5884.514657198917
1.252,-1.3455600754574244,5900.555739957581
1.256,-1.333188427350326,5905.084741160463
1.26,-1.3046170540160043,5895.172117606108
1.264,-1.2632751027927054,5898.80673860029
1.268,-1.2141779451747792,5906.212910689365
1.272,-1.1626460750630654,5903.769688010743
1.276,-1.1131945195953743,5897.055293959018
1.28,-1.0690077558054145,5898.410664140692
1.284,-1.0320439409220583,5888.717914657858
1.288,-1.0034752101725002,5897.179741908529
1.292,-0.984131080794704,5900.944548393951
1.296,-0.974823936547852,5904.858794349603
1.3,-0.976578659153935,5896.624313173348
1.304,-0.990703040225204,5888.619693025237
1.308,-1.0185210612802282,5900.393565470831
1.312,-1.060686511801948,5907.436072269507
1.316,-1.1162597619272747,5897.462719837924
1.32,-1.1819482323089965,5900.529775001492
1.324,-1.2519439378712598,5894.202018934568
1.328,-1.3186184463830222,5896.276790723309
1.332,-1.3739824056758638,5895.036102664053
1.336,-1.4114227047987058,5903.388361830681
1.34,-1.4270691869934147,5905.152221543229
1.344,-1.420368524014777,5903.003490218298
1.348,-1.3938613201267043,5900.102178849184
1.352,-1.3524261292042017,5910.246417163117
1.356,-1.3022575703275603,5900.249133343503
1.36,-1.249742059643367,5907.694851830339
1.364,-1.2003518975660463,5903.143971005839
1.368,-1.1577243124538485,5900.46483048639
1.372,-1.123152631693672,5905.297407098338
1.376,-1.0956907714414916,5894.134118577185
1.38,-1.0729046256252563,5910.839678369437
1.384,-1.0520447116103264,5908.2972767987785
1.388,-1.0312101175533703,5898.627761739893
1.392,-1.0100767543029794,5890.659888835951
1.396,-0.9899868835616595,5905.129978006025
1.4,-0.9734692420797861,5902.418874569482
1.404,-0.9634025077261587,5901.668410783274
1.408,-0.9620666176995155,5891.047921835832
1.412,-0.9703663434923602,5904.719558591271
1.416,-0.9875386360284517,5904.314261133763
1.42,-1.011513271357472,5894.206277315399
1.424,-1.0397552744677903,5904.2801750092685
1.428,-1.070105745819856,5910.446521255605
1.432,-1.1011434899061732,5896.429179772656
1.436,-1.1319464952241047,5903.4904031547685
1.44,-1.1615448860371302,5898.793816586733
1.444,-1.1884954074023142,5897.570547908268
1.448,-1.21083785347338,5913.87749629623
1.452,-1.2264398986033034,5905.245758558983
1.456,-1.233574777408282,5899.526938777927
1.46,-1.2315064789754437,5901.161093707848
1.464,-1.2208531753614373,5902.989632189355
1.468,-1.2035872251563284,5897.437865561654
1.472,-1.1826678468586143,5898.168381498546
1.476,-1.1613907618543897,5909.125699951808
1.48,-1.1425943826355427,5903.758406822651
1.484,-1.127970971096981,5894.717619188427
1.488,-1.1178184604874963,5893.542531587096
1.492,-1.1114324788044951,5897.505417603189
1.496,-1.107966414143449,5907.440247628208
1.5,-1.1072767054985924,5905.335640170302
1.504,-1.1103169857099782,5901.052528385202
1.508,-1.1189823131062668,5900.371198098081
1.512,-1.1355817358177018,5896.014677357411
1.516,-1.1621230350024314,5897.767368793045
1.52,-1.199467094494109,5894.209610428927
1.524,-1.2464056871780678,5896.468227792318
1.528,-1.2989028287704456,5902.432130718822
1.532,-1.34994527779721,5897.85785080681
1.536,-1.3904189011318038,5897.035828620218
1.54,-1.4110641306050524,5901.141966485442
1.544,-1.4050570886948803,5890.033855887862
1.548,-1.3704480800899668,5901.4280094924825
1.552,-1.311726869930122,5910.193231853495
1.556,-1.2400441756651255,5895.507956053311
1.56,-1.1718796716791327,5909.404452296251
1.564,-1.1261451062479733,5892.726863455405
1.568,-1.1199632272844846,5893.120942699876
1.572,-1.1637371285104143,5908.150715678556
1.576,-1.2564563802022177,5898.986368783371
1.58,-1.382275326285148,5898.559241956618
1.584,-1.509312323474501,5898.053371733735
1.588,-1.5915421826601321,5897.952364279488
1.592,-1.5745036153743908,5904.346674856596
1.596,-1.4049761925119355,5904.678267565197
1.6,-1.0435768774214698,5903.52144990593
1.604,-0.4775937510323192,5892.241990026489
1.608,0.2699974696522836,5894.907069039638
1.612,1.1395326019712297,5900.424663265935
1.616,2.043983278475115,5893.0548378749845
1.62,2.8870911034594253,5896.998945792925
1.624,3.584742902467613,5908.371380748764
1.628,4.08238401702455,5921.559745025413
1.632,4.363264574527045,5936.818679879765
1.636,4.4463944752307265,5951.490876571266
1.64,4.3766494205730915,5959.13676012922
1.644,4.211176107498989,5978.199187068889
1.648,4.006203901829988,5990.158823930331
1.652,3.807206825079744,6002.335211448037
1.656,3.6437257816991355,6020.897143181166
1.66,3.528662506265798,6021.1285659602645
1.664,3.46090666724953,6034.538860841244
1.668,3.4298304838972338,6046.006648200798
1.672,3.42028003445707,6063.228683701633
1.676,3.4169653244285145,6068.937068346428
1.68,3.407510261320644,6069.73474825203
1.684,3.3838900805687406,6084.867095655879
1.688,3.342479532182921,6095.695456203568
1.692,3.2832514618861843,6108.793247392576
1.696,3.2086848032076025,6117.432946496178
1.7,3.122747079262528,6130.767881432523
1.704,3.030073246023644,6135.033362768827
1.708,2.935298718435537,6141.188168158215
1.712,2.842486800038277,6154.323505502832
1.716,2.754698699281395,6161.094393223382
1.72,2.673855896180064,6169.471326868186
1.724,2.6009829464046557,6182.110729116974
1.728,2.5366864404993215,6177.051017947278
1.732,2.48151918571493,6174.675301483007
1.736,2.4359294394266207,6196.392405261491
1.74,2.3998210102951734,6200.447840826311
1.744,2.3720798199218027,6213.421102340509
1.748,2.3504502857533973,6217.914462095413
1.752,2.3318736636917965,6225.264982221397
1.756,2.3131157044187307,6236.125167736601
1.76,2.291432255964966,6239.004009374825
1.764,2.2651169793617583,6248.132653913602
1.768,2.2338723167178034,6252.33474477565
1.772,2.198927170738184,6259.194804559641
1.776,2.1627711884335215,6267.367174503152
1.78,2.1284707319338008,6270.256716848342
1.784,2.098772203202465,6281.610188166472
1.788,2.075341674441659,6288.504604347502
1.792,2.0583867479743954,6292.70428758791
1.796,2.046683606008952,6306.105250220733
1.8,2.037876004695034,6297.565705443246
1.804,2.028884293187527,6307.726564119884
1.808,2.0163335614796356,6313.687077245255
1.812,1.9970007398981844,6319.381492042496
1.816,1.9682914944143681,6314.486476465031
1.82,1.9286901464715427,6327.806030896701
1.824,1.8780890859869221,6328.916772787942
