时间(s),电压(V),幅值(高频80K)
0.0,-0.9715563364095039,5896.798737954574
0.004,-1.02819317372614,5902.292121642976
0.008,-1.0772721999761035,5897.702076110943
0.012,-1.1126105453221269,5892.62892965672
0.016,-1.1312069705174717,5895.801106276371
0.02,-1.1337554553828504,5892.060217388869
0.024,-1.1241000418572489,5899.8133749432445
0.028,-1.1079224885831849,5891.47748623144
0.032,-1.0912555128938244,5904.027140757113
0.036,-1.0793251140177265,5910.767008064869
0.04,-1.0758834055620532,5895.910721568853
0.044,-1.0829240804049913,5903.597948342358
0.048,-1.1006321960506305,5902.917611677919
0.052,-1.1275113001935013,5903.475740144914
0.056,-1.1606884726399185,5898.609001081359
0.06,-1.1963643895999965,5907.2899773255085
0.064,-1.2303290489926042,5900.916689984619
0.068,-1.2584936454480502,5901.77381395895
0.072,-1.277451801733492,5903.291375664615
0.076,-1.2850522599872416,5891.20593593996
0.08,-1.2808413598893331,5896.456220509761
0.084,-1.266191308659268,5903.279193360556
0.088,-1.244069187535759,5898.9657902807285
0.092,-1.2185630865683044,5895.755159076782
0.096,-1.1942628015979873,5892.733810496371
0.1,-1.1754731495931996,5900.462648164942
0.104,-1.1652785033325126,5904.924784337638
0.108,-1.1647069441957563,5899.412369263872
0.112,-1.1723811878050878,5894.163472078732
0.116,-1.1848719882139027,5909.894930322225
0.12,-1.197617413916688,5909.691194814945
0.124,-1.2060577622083757,5902.485614940365
0.128,-1.206690916872094,5901.316157671543
0.132,-1.1979064830067538,5903.628283396035
0.136,-1.1805123877735253,5899.733375528614
0.14,-1.1578323144761247,5898.5346961258265
0.144,-1.1352447794315443,5893.515879341662
0.148,-1.1191230428571084,5905.766421251709
0.152,-1.1153205191026299,5896.381584144432
0.156,-1.1275609803253326,5906.158811518682
0.16,-1.1561967365197476,5895.213867749456
0.164,-1.1977091831082243,5907.991957442759
0.168,-1.2451326419110735,5901.8165584177705
0.172,-1.289401187345251,5902.1475363455975
0.176,-1.321416846807998,5903.57751075979
0.18,-1.3343630696911453,5905.067345122887
0.184,-1.3255778059857857,5903.505531614554
0.188,-1.2973621127455888,5893.616136055011
0.192,-1.2564344510267704,5894.667518897178
0.196,-1.212163888162985,5903.3660713571735
0.2,-1.1740806503856656,5893.400166978836
0.204,-1.149409019895016,5902.409187747597
0.208,-1.1414022165591504,5903.632818504366
0.212,-1.1489809721388,5904.477434459122
0.216,-1.1676639881768474,5902.753754970277
0.22,-1.191301013137721,5903.858377690376
0.224,-1.2139198190557068,5894.248206729911
0.228,-1.2311187479318428,5900.719550332012
0.232,-1.2407424588191838,5898.813213158685
0.236,-1.2428766446982755,5904.428500758641
0.24,-1.2393579181267536,5899.018433439779
0.244,-1.233012980093406,5904.559556174686
0.248,-1.2268012526131749,5889.780480677998
0.252,-1.2230193249018113,5898.969793019454
0.256,-1.2227315410383939,5889.163373379685
0.26,-1.2255529340793394,5892.492962289605
0.264,-1.229817033653014,5899.628757799934
0.268,-1.2330770658819719,5900.071176059168
0.272,-1.232839559770305,5895.674955232383
0.276,-1.2273626654301855,5888.002663050297
0.28,-1.2162543618295463,5904.917442821631
0.284,-1.200592116819571,5901.260159494592
0.288,-1.182480133643692,5898.932795387443
0.292,-1.1642702686148505,5901.82727159745
0.296,-1.1478370415628767,5892.9622248398655
0.3,-1.1342168090555773,5899.078489581918
0.304,-1.123728110689122,5893.884892094881
0.308,-1.116490300777588,5898.744482405249
0.312,-1.113062826838406,5895.342765334272
0.316,-1.1148151580592267,5898.785177787106
0.32,-1.123727432042343,5901.928751000147
0.324,-1.141601727473675,5898.686832628975
0.328,-1.1689762653184415,5903.487842423481
0.332,-1.2042159353625475,5905.505957508063
0.336,-1.2432278886215486,5906.226894184327
0.34,-1.2800346917823116,5909.512163521304
0.344,-1.3081012393002214,5901.343240688296
0.348,-1.3219872388529768,5899.981381267088
0.352,-1.3187473898280633,5894.901698390675
0.356,-1.2986119386191681,5895.95998047263
0.36,-1.26479560831959,5899.668467204588
0.364,-1.222639462159117,5891.328148106103
0.368,-1.178493092491881,5892.764467237798
0.372,-1.138687453974534,5899.8196879110055
0.376,-1.1087124379725048,5896.137786953892
0.38,-1.0925132297833016,5902.263588587846
0.384,-1.0918311367241105,5892.19402600948
0.388,-1.105717970060118,5892.6814176643
0.392,-1.1305227750669715,5907.654155463419
0.396,-1.160561522779851,5894.629248757898
0.4,-1.1893645857863244,5901.761880249502
0.404,-1.2111143335466512,5903.631365155798
0.408,-1.2218430119687043,5894.173604781795
0.412,-1.2201302712133608,5897.645433031474
0.416,-1.2072495523387337,5891.307858063959
0.42,-1.1868353518765993,5906.544622928388
0.424,-1.164163706611835,5904.46105016442
0.428,-1.145122081225471,5902.264533831959
0.432,-1.1349821821359367,5893.024208591545
0.436,-1.1372042171693877,5897.507436717706
0.44,-1.1525979739214893,5901.274650810214
0.444,-1.1791168353367958,5899.493877283116
0.448,-1.2123470179057318,5905.654683225875
0.452,-1.2464899902701612,5902.904023754875
0.456,-1.2754852481116083,5891.069466839528
0.46,-1.2939878144494155,5901.358648553421
0.464,-1.2981264193932667,5900.154279309302
0.468,-1.2861036913123136,5904.831113684835
0.472,-1.2586401775133704,5901.157068378182
0.476,-1.2191183524455362,5896.388723436813
0.48,-1.1732220145174341,5897.5839074076885
0.484,-1.1279761016116343,5907.637092627914
0.488,-1.0903494558455236,5891.018885401649
0.492,-1.0658278844965396,5907.172230384292
0.496,-1.0573902064100404,5897.027970203266
0.5,-1.0651100900266377,5904.540531782065
0.504,-1.0863599733134695,5900.486014990452
0.508,-1.1164680316190452,5904.897147397261
0.512,-1.1496542693847382,5898.511824001548
0.516,-1.1800764413260603,5898.405587607815
0.52,-1.2028362007023599,5895.956693563607
0.524,-1.2148105723477476,5906.4737108246745
0.528,-1.2151519961367696,5898.714308265563
0.532,-1.2053025829446335,5906.668604488753
0.536,-1.1884893267313157,5892.78414962544
0.54,-1.1688518166423592,5900.032653714111
0.544,-1.150445415619369,5898.583869469142
0.548,-1.1363336379923676,5898.60680923457
0.552,-1.127954578069385,5897.155245315656
0.556,-1.1249621113131825,5900.150110144135
0.56,-1.1256846723494032,5899.153709357087
0.5640000000000001,-1.1281164726598198,5894.720601641412
0.5680000000000001,-1.1310487326584024,5903.021844683911
0.5720000000000001,-1.134782281659549,5901.408453128533
0.5760000000000001,-1.1410063048639285,5891.392690105255
0.58,-1.1518444757202977,5899.641804013545
0.584,-1.168520506070424,5901.074999868236
0.588,-1.1903156996375763,5900.029086841615
0.592,-1.214353077042425,5900.875129857979
0.596,-1.2363110413972849,5897.073747120118
0.6,-1.251703390463984,5896.645931783786
0.604,-1.2571597962890215,5899.016944502259
0.608,-1.251275930224377,5898.9252728381725
0.612,-1.2348916628739528,5895.197139355061
0.616,-1.2108783808053918,5898.704334985649
0.62,-1.183581175337085,5900.868285749821
0.624,-1.1580205720518304,5891.149287174774
0.628,-1.1389326509099729,5899.28485239248
0.632,-1.1297765174886685,5899.306989240176
0.636,-1.1319111984660553,5901.691947861405
0.64,-1.1441706149342294,5898.8853953036605
0.644,-1.1630217162625298,5900.913367971203
0.648,-1.183354273229064,5896.087706511334
0.652,-1.1997294200263555,5898.697784547817
0.656,-1.2077192953619207,5900.188291875597
0.66,-1.2049317647704818,5897.06803022299
0.664,-1.1914458246302637,5901.144390037728
0.668,-1.169595763889328,5890.558801976606
0.672,-1.143238399609709,5901.693590404857
0.676,-1.1167593735463306,5898.130524753258
0.68,-1.0940944722655035,5899.3377552419015
0.684,-1.0779693166164432,5909.801663159159
0.6880000000000001,-1.069470442681104,5895.080586967943
0.6920000000000001,-1.0680349591216607,5900.272481859525
0.6960000000000001,-1.071934004849479,5910.474399802756
0.7000000000000001,-1.0791816749151386,5904.329060747717
0.704,-1.0885360128097088,5892.412907497037
0.708,-1.1000997863053779,5899.59379809429
0.712,-1.1151577338889873,5902.97234013379
0.716,-1.135250269638014,5901.853232688511
0.72,-1.1608820582076063,5900.320381060407
0.724,-1.1904952738011476,5905.039442844
0.728,-1.22026961214834,5905.042516252942
0.732,-1.2449479020679446,5901.740899966434
0.736,-1.2594015692840028,5899.171868849433
0.74,-1.2603088750831934,5905.6423043457335
0.744,-1.2472996564772607,5897.078692128463
0.748,-1.2231937844083256,5903.668016052734
0.752,-1.1933380865873462,5901.913653365475
0.756,-1.164329886234862,5894.281658221687
0.76,-1.1425110355573258,5904.977209711676
0.764,-1.1325663864438458,5896.175366910758
0.768,-1.1364846674495428,5890.761457421136
0.772,-1.1531070010896352,5900.254503676496
0.776,-1.178432201402374,5902.790153084524
0.78,-1.2066592551804716,5902.072809898597
0.784,-1.231669379203648,5904.658716772142
0.788,-1.2484800830199168,5906.507313045109
0.792,-1.2542539478024366,5903.602606969504
0.796,-1.2486380692633878,5904.218136756306
0.8,-1.2334448240981046,5895.348454263245
0.804,-1.2119128378365558,5900.912366312952
0.808,-1.1879065057299287,5902.030177854264
0.812,-1.1653119922038502,5907.458587920391
0.8160000000000001,-1.1476498740090004,5905.469823667905
0.8200000000000001,-1.1377836378491855,5893.725356048467
0.8240000000000001,-1.1376510248817608,5908.683244826976
0.8280000000000001,-1.14804589960879,5908.611063098991
0.8320000000000001,-1.1684946371752858,5903.395613992805
0.836,-1.197222587833994,5895.977066307415
0.84,-1.2311979798519583,5897.450896071334
0.844,-1.2663214145133925,5898.865933085149
0.848,-1.2979069918422523,5903.764337618106
0.852,-1.3215212445738456,5895.065938459837
0.856,-1.3340014602489507,5901.801207628232
0.86,-1.3342637963070274,5898.249922537865
0.864,-1.3235343921096276,5902.81656471387
0.868,-1.3048969806027433,5901.635200806147
0.872,-1.2823681228288852,5909.473674205327
0.876,-1.259883048856436,5898.973114057201
0.88,-1.2405157132267597,5901.921276749468
0.884,-1.2260468746772624,5907.925037404343
0.888,-1.2168254121869977,5901.865597566033
0.892,-1.2118623511233273,5885.263724317092
0.896,-1.209172002168659,5901.7105774027
0.9,-1.2063702504567733,5904.981132100561
0.904,-1.201418773883004,5894.874788790881
0.908,-1.193262937913136,5893.138002014359
0.912,-1.1820887854886588,5898.3934475002025
0.916,-1.1690920202880983,5900.689738613467
0.92,-1.1559105911905414,5897.848678440297
0.924,-1.1440272294973048,5902.963284893896
0.928,-1.1344104060737596,5898.355598228141
0.932,-1.1274935871060126,5898.762491719705
0.936,-1.1234094181585579,5911.86840314472
0.94,-1.1222941553370178,5899.942548057338
0.944,-1.1244756190987513,5902.352925614154
0.948,-1.1304133609884182,5900.900794618918
0.952,-1.1403678665209176,5899.19092276423
0.956,-1.1539337653140607,5906.769690863906
0.96,-1.1696873619827919,5896.301498877835
0.964,-1.185184136522425,5893.457994285174
0.968,-1.1974297496007684,5895.816991528395
0.972,-1.2037822546013175,5887.860035783368
0.976,-1.2030066019170298,5895.25332140569
0.98,-1.1959891420621835,5903.897542645928
0.984,-1.1856633454298107,5895.118200151263
0.988,-1.1760674719649027,5902.4505276608415
0.992,-1.1709153859461292,5901.555868195223
0.996,-1.1723229095662928,5902.27761352446
1.0,-1.1802617059368872,5902.462912292841
1.004,-1.1929303816706691,5907.99380123179
1.008,-1.2077176563640337,5893.088236573858
1.012,-1.2221231395283025,5904.297814902042
1.016,-1.2341592647273059,5902.504281114965
1.02,-1.2422599178034492,5899.686954599459
1.024,-1.2451164729364264,5897.729528264083
1.028,-1.2418160950942434,5908.370824435434
1.032,-1.2322714881354784,5905.743331926501
1.036,-1.2175864888800445,5894.029354831784
1.04,-1.1999744344443015,5892.475641364671
1.044,-1.182128868470941,5893.387947312292
1.048,-1.1663251475581131,5895.196615484289
1.052,-1.1537337460002985,5890.959587876688
1.056,-1.144300448245848,5901.353762104724
1.06,-1.137205333827344,5898.646685985604
1.064,-1.1316113724781611,5894.15309524438
1.068,-1.1273119424056366,5906.98488065664
1.072,-1.1249842056668908,5894.107862954646
1.076,-1.1259858620473788,5893.508080534847
1.08,-1.131866898552961,5904.376756414327
1.084,-1.1438478082894432,5897.325170366998
1.088,-1.1624252245956472,5896.168883961147
1.092,-1.187153095803472,5892.31436246655
1.096,-1.2166106741285716,5898.124210048175
1.1,-1.2485500746049056,5904.046431061078
1.104,-1.280158271723258,5893.388860261243
1.108,-1.3083379385065719,5910.491104334095
1.112,-1.3299744211715059,5899.969309407065
1.116,-1.3422322686397243,5914.206677120127
1.12,-1.3429017033553916,5901.31291625442
1.124,-1.3307314245630846,5900.160814222103
1.128,-1.305661665816996,5902.662315295088
1.132,-1.2689380571028086,5901.633558205952
1.136,-1.2231564968648274,5903.371050918192
1.14,-1.1722623509585577,5906.874401823839
1.144,-1.1214018339053908,5904.976666095281
1.148,-1.076439004386477,5900.750853065778
1.152,-1.0430518666271762,5904.887956616504
1.156,-1.025568934979,5894.15040084924
1.16,-1.0259123122462597,5899.651706562883
1.164,-1.04302140142041,5894.172926409324
1.168,-1.0729585741901155,5894.715505694785
1.172,-1.109672956910999,5905.843997706344
1.176,-1.1462240909223391,5897.910468698093
1.18,-1.1761872955769985,5900.559270730524
1.184,-1.1949673786148045,5897.325005822909
1.188,-1.2007584308537484,5902.319376488276
1.192,-1.1948684884620682,5899.243719229936
1.196,-1.1811978773735028,5902.709550985296
1.2,-1.1649343512813457,5903.280306698964
1.204,-1.1508992508136389,5897.059980647656
1.208,-1.1421884818473589,5898.928823209906
1.212,-1.1396300293119281,5887.99195826849
1.216,-1.1421753706298587,5899.761264603042
1.22,-1.147895304206745,5904.025065616666
1.224,-1.1550289606440325,5901.06909451129
1.228,-1.1626290324548594,5901.538952462511
1.232,-1.1706197682266215,5894.074076225904
1.236,-1.1793359427001338,5898.475176994994
1.24,-1.1887677254512088,5900.096670170089
1.244,-1.1978475176133643,5900.955633804476
1.248,-1.2041709726620795,5895.430592319382
1.252,-1.2044268412410977,5900.531406695894
1.256,-1.1954868997244132,5897.295321951928
1.26,-1.1757484083349241,5897.878713235832
1.264,-1.146149741898481,5896.834393846191
1.268,-1.1103917507633345,5896.173441810721
1.272,-1.074224456525111,5894.4547268281685
1.276,-1.0440229822772076,5897.116694579027
1.28,-1.0251136846353128,5900.583085220048
1.284,-1.020369797700685,5902.449734539747
1.288,-1.0295105945162586,5900.600162422382
1.292,-1.0493478950072208,5898.152328462061
1.296,-1.0749452348922734,5896.798773762857
1.3,-1.101324012244073,5903.950701142825
1.304,-1.1250818218280223,5917.060123288219
1.308,-1.145258837683032,5897.089575083457
1.312,-1.1630932134420766,5889.692917643073
1.316,-1.1808198485674162,5899.856867860946
1.32,-1.2001052422027185,5902.629844848825
1.324,-1.220833832900972,5907.366664269082
1.328,-1.2407265077379215,5902.967837994941
1.332,-1.2558683385331026,5904.756359593185
1.336,-1.261904143328234,5900.902699511143
1.34,-1.2555105399844007,5905.514748104908
1.344,-1.2356965130254893,5901.213610765548
1.348,-1.2044943193639859,5900.30050266658
1.352,-1.1667479306254263,5903.854636910567
1.356,-1.1290153312781213,5903.325516432255
1.36,-1.0979577323048022,5903.136329468144
1.364,-1.0787761750393374,5901.702032915231
1.368,-1.074151114246819,5903.9367665895
1.372,-1.0838639399063676,5898.848268100342
1.376,-1.1050545848891264,5898.525925456096
1.38,-1.1329732454119341,5910.906106837296
1.384,-1.1620480484486462,5904.184872262511
1.388,-1.187063876321022,5905.604026002753
1.392,-1.2042303714146432,5899.2412220495935
1.396,-1.2119020784872387,5900.164682865735
1.4,-1.2107242007480188,5892.03955660107
1.404,-1.2031046930833469,5894.086024896021
1.408,-1.192184225061571,5901.614924286742
1.412,-1.1807287927623422,5912.113980334112
1.416,-1.170397714248663,5888.474594673487
1.42,-1.1616275963336922,5902.828107585544
1.424,-1.1540831271082252,5896.120492150698
1.428,-1.1473883388409614,5898.771262566768
1.432,-1.1417259438123062,5908.748303591592
1.436,-1.137967702920927,5897.198073684682
1.44,-1.1372985082656806,5904.4366908572965
1.444,-1.1406154978168752,5893.343168310073
1.448,-1.1480643548825498,5897.2621762194585
1.452,-1.1589131168888154,5894.011508605111
1.456,-1.1717545823147915,5896.149704215121
1.46,-1.1848949744649833,5901.03615480454
1.464,-1.1967348731869942,5894.767715636746
1.468,-1.2059942515546584,5903.759432539382
1.472,-1.2117759697465273,5907.0420354520575
1.476,-1.213591138157503,5906.949159678609
1.48,-1.211458464175669,5900.511990206048
1.484,-1.206053794869581,5899.074077676328
1.488,-1.1987642185323588,5893.188748044804
1.492,-1.1915019890292906,5883.786942362701
1.496,-1.1862519311210815,5903.948304259087
1.5,-1.1844831682932517,5898.753049916911
1.504,-1.18666506899511,5900.645421918362
1.508,-1.1921115527401431,5893.980071833125
1.512,-1.1992113910779334,5904.2877870745615
1.516,-1.2058925489533632,5903.226443436381
1.52,-1.2100946268907946,5899.704909374447
1.524,-1.210120491596333,5907.28632792162
1.528,-1.2048605726573562,5900.128267636028
1.532,-1.1939080708922387,5899.017839046031
1.536,-1.1775452701494729,5897.660917888324
1.54,-1.1565961626588273,5895.949441649642
1.544,-1.1322357975424056,5895.106391445374
1.548,-1.105896660344401,5906.308855926421
1.552,-1.07930950965071,5895.037115307352
1.556,-1.0545560390511592,5903.156940850741
1.56,-1.0339786524107786,5900.352054123529
1.564,-1.0199143695350923,5900.851389011701
1.568,-1.0143426216105367,5902.927937356997
1.572,-1.0185374074528935,5907.592451109569
1.576,-1.032751619860885,5905.208825039203
1.58,-1.0559695731209149,5904.038138636534
1.584,-1.0858359241489468,5896.0984698572165
1.588,-1.1188711210882394,5901.439063834307
1.592,-1.1509677701837329,5908.234357566254
1.596,-1.178032753828009,5896.1506387548
1.6,-1.1966083756469086,5898.426803617504
1.604,-1.2043686676474936,5903.180235850816
1.608,-1.200461290084422,5907.352677632046
1.612,-1.1857034357434315,5900.196381964296
1.616,-1.1626397995031441,5895.67551497846
1.62,-1.1354226784225365,5900.436444003881
1.624,-1.1094079526617475,5904.907910895322
1.628,-1.0903758746831587,5896.088217273709
1.632,-1.083435323425041,5897.168838235986
1.636,-1.0918612353244983,5896.572595223324
1.64,-1.116197823152492,5905.608529539505
1.644,-1.1538958310812808,5901.494661468476
1.648,-1.1996191689385125,5904.594254290679
1.652,-1.2462146314584208,5897.72807200528
1.656,-1.2861860273349652,5903.232387254053
1.66,-1.3133617738639458,5893.434731583573
1.664,-1.3243349400869062,5898.694973379127
1.668,-1.319230902442679,5905.839470907557
1.672,-1.3014828669887761,5893.206780856758
1.676,-1.2766126512396174,5899.985912440912
1.68,-1.2504197062718112,5905.044552537191
1.684,-1.2272496480217243,5891.297445498627
1.688,-1.208995285219582,5899.888410961023
1.692,-1.1951794760930436,5898.229630805668
1.696,-1.183988513887353,5892.339480803559
1.7,-1.173693290464883,5900.308861645325
1.704,-1.163762194370819,5912.05394144802
1.708,-1.1551879669290082,5896.1612864511
1.712,-1.1499573468415918,5909.825179469606
1.716,-1.1499830665499957,5899.898247333582
1.72,-1.1560443424535063,5900.2449831134045
1.724,-1.167253649791022,5895.560631662601
1.728,-1.1812721934266772,5903.752572052426
1.732,-1.1950624252269244,5896.110227214597
1.736,-1.205674848740216,5901.912095139961
1.74,-1.2106524226311972,5901.61731980784
1.744,-1.2080151046137704,5895.184009268783
1.748,-1.1961345209275174,5898.542411218824
1.752,-1.1739047993024636,5905.130291106644
1.756,-1.1414556235162332,5897.240492204781
1.76,-1.1013046718700197,5902.67354189886
1.764,-1.0594269626849973,5899.655164711008
1.768,-1.0254652882322854,5899.871200971497
1.772,-1.0114403224221724,5897.065276274541
1.776,-1.0288220838717699,5900.401840226331
1.78,-1.0844476565638395,5898.582085707417
1.784,-1.1762415404978044,5901.869697378495
1.788,-1.2898734982372129,5896.86479832538
1.792,-1.3974156538345073,5903.5236467578725
1.796,-1.4588867349075836,5900.001700157065
1.8,-1.4273108609528062,5899.443408315572
1.804,-1.2573205446276483,5906.073225186017
1.808,-0.9162043483205792,5900.368354677018
1.812,-0.3949116203893865,5902.977573282128
1.816,0.2844710330084773,5892.092964761711
