时间(s),电压(V),幅值(高频80K)
0.0,-1.9571575552048792,5900.512944335087
0.004,-1.8008124961923926,5894.126091800504
0.008,-1.6618971018422972,5906.524750586105
0.012,-1.5536078464513732,5901.55864223854
0.016,-1.4834579300314372,5891.332922155339
0.02,-1.4523907498663304,5900.04634694064
0.024,-1.4551952754329696,5887.665730393886
0.028,-1.481972577446467,5901.1786531945245
0.032,-1.5204394079600583,5904.22050514777
0.036,-1.5587728590485095,5895.061621272741
0.04,-1.5883363453721338,5902.161153024183
0.044,-1.6053563652070013,5903.901921006165
0.048,-1.610908510378568,5903.360633394872
0.052,-1.6093383463212514,5894.563149110886
0.056,-1.6059019777004073,5896.341811788497
0.06,-1.6045314995069604,5898.052689127366
0.064,-1.6063528572024457,5896.427051019045
0.068,-1.6092967856863027,5897.709802333708
0.072,-1.6089265288932317,5893.176768395846
0.076,-1.6002651039529516,5903.164116409126
0.08,-1.5799771568675436,5897.527659161668
0.084,-1.5480792857797918,5902.884404942955
0.088,-1.5085693075788207,5902.243531213725
0.092,-1.4687595828013376,5896.1916897844
0.096,-1.4374442380150652,5900.619681308677
0.1,-1.4223372353230188,5904.156375692623
0.104,-1.427527510589679,5912.585306808577
0.108,-1.451860520003618,5898.783887287657
0.112,-1.4889465382977496,5901.4346368868055
0.116,-1.5288746797385542,5903.198032113669
0.12,-1.5609959346366498,5902.55093476269
0.124,-1.5768090179953795,5904.711728373662
0.128,-1.5721669014909077,5900.060460435125
0.132,-1.5483700687150086,5903.030859036441
0.136,-1.5119234757817923,5904.808734025511
0.14,-1.4729095945833361,5898.403087973078
0.144,-1.4422708982986674,5896.268890062386
0.148,-1.4287307472401285,5895.536017387787
0.152,-1.4363262951467954,5903.838967093141
0.156,-1.4633645652724654,5908.022995202185
0.16,-1.5031070646772104,5903.681964458511
0.164,-1.5459264412626545,5887.787794312463
0.168,-1.582268657015461,5904.834854483784
0.172,-1.6055110873995764,5900.417104522701
0.176,-1.6137703526556282,5899.494756352781
0.18,-1.6100171597712158,5907.536974669718
0.184,-1.600490786440883,5903.494081733185
0.188,-1.5920953873665733,5906.9723077967865
0.192,-1.589839268645639,5897.628070331403
0.196,-1.5952580483118584,5902.927236313565
0.2,-1.6062448912659162,5894.079303073693
0.204,-1.6181130101189618,5894.428695593646
0.208,-1.6253474668532857,5899.352396993266
0.212,-1.6234385335710966,5895.771719259171
0.216,-1.6102810472107716,5900.355153537701
0.22,-1.5867673770098423,5891.088164216101
0.224,-1.5564374237091367,5898.926561217321
0.228,-1.5243662976437051,5903.195068803184
0.232,-1.4957098269896296,5893.491710130547
0.236,-1.4743822248881306,5897.891687397494
0.24,-1.4622417257977534,5898.714416959289
0.244,-1.4589569604686132,5902.946532007522
0.248,-1.4624833140647564,5892.551665229888
0.252,-1.4699039008265713,5892.882854163477
0.256,-1.4783153644057587,5900.459668143337
0.26,-1.4854326869079435,5893.435965263662
0.264,-1.4896987083581432,5903.2706460725485
0.268,-1.4899507570295951,5897.988505187839
0.272,-1.4849731030950417,5900.401447218568
0.276,-1.4733358148267484,5892.950783650189
0.28,-1.4537381525906439,5897.705372528893
0.284,-1.4257667520939894,5891.11324486818
0.288,-1.3907092261926965,5901.380326664709
0.292,-1.35195615808199,5906.560660871943
0.296,-1.3146544074166744,5899.077407756522
0.3,-1.2846191571349352,5897.618450102923
0.304,-1.2669023476402708,5899.504232000939
0.308,-1.2646037835402109,5902.344529896115
0.312,-1.2783556162077125,5901.257541838436
0.316,-1.306531697803691,5893.975107312396
0.32,-1.3459230622910652,5900.726514007659
0.324,-1.3925346057844754,5896.384993912574
0.328,-1.4422180602977785,5896.798561234771
0.332,-1.4909863670596089,5905.631901521885
0.336,-1.5350611546846498,5898.889028252441
0.34,-1.5708955223547638,5907.560840581201
0.344,-1.5954141589309008,5905.772034471871
0.348,-1.606507528969233,5899.809258861739
0.352,-1.6035856111186662,5902.031337730271
0.356,-1.587893191441849,5896.569603215663
0.36,-1.5623320821550863,5893.796930746646
0.364,-1.5307220348181962,5891.0834714559005
0.368,-1.4967531889078933,5907.5248245392295
0.372,-1.4631603023457276,5905.643579198261
0.376,-1.4315812954849725,5898.738317105909
0.38,-1.403094394407302,5896.4989515264815
0.384,-1.3789313177274038,5902.553375533968
0.388,-1.36078971604372,5897.396512289415
0.392,-1.3505610414821527,5895.277080853003
0.396,-1.3497508726586949,5900.171636226646
0.4,-1.3589851449420753,5901.265610600276
0.404,-1.377755669755034,5911.238236493031
0.408,-1.4043115630737903,5898.017787596449
0.412,-1.4356250493203258,5899.462379109662
0.416,-1.4675479779504441,5901.954953640882
0.42,-1.4953279110279316,5898.674862266606
0.424,-1.5144609158929228,5902.109117171483
0.428,-1.5216334332252275,5893.711194237068
0.432,-1.515489248069855,5902.893718931357
0.436,-1.497090951254521,5894.983198077745
0.44,-1.4699992274917058,5897.846610559215
0.444,-1.4398519586925456,5900.347172033521
0.448,-1.4133891653314163,5904.26437511672
0.452,-1.3970965290850903,5902.544357037522
0.456,-1.3958146431371299,5896.475185342927
0.46,-1.4116139667209457,5898.602856770105
0.464,-1.4431057876386313,5898.0360703412325
0.468,-1.4853480503402965,5896.12915872527
0.472,-1.5305311036609188,5905.398275675737
0.476,-1.5694815258144643,5903.248275783443
0.48,-1.5937078724854943,5902.472897789316
0.484,-1.597437543711288,5900.816073651288
0.488,-1.5790281713140175,5901.699286975821
0.492,-1.541308134579213,5908.247705122471
0.496,-1.4907332628877261,5897.230034166603
0.5,-1.435621804129389,5900.573612292302
0.504,-1.3840299248686634,5894.558346607072
0.508,-1.3419502969526624,5901.987539775152
0.512,-1.3123763080385895,5901.93897565608
0.516,-1.295402242751492,5903.270395252233
0.52,-1.2891267502513748,5905.515250331731
0.524,-1.290912978367673,5895.043151043254
0.528,-1.2985560228253725,5897.84237414334
0.532,-1.3110047636528412,5901.294926262966
0.536,-1.3284328937608925,5901.285197871706
0.54,-1.3516823986981454,5897.567770475976
0.544,-1.3813841117091368,5900.583287964805
0.548,-1.4172091559919193,5891.8377991220505
0.552,-1.457530901200456,5898.912179090861
0.556,-1.4994257272883638,5907.886168180115
0.56,-1.5388226830858516,5893.837955777312
0.5640000000000001,-1.57083147142836,5902.383606537784
0.5680000000000001,-1.5904714542103406,5894.663616409938
0.5720000000000001,-1.5938869870545156,5901.193667653756
0.5760000000000001,-1.5797857648258748,5904.184838833511
0.58,-1.5505710468777079,5905.735527912773
0.584,-1.5125849988851598,5907.663540384446
0.588,-1.4750489742944413,5899.085593299995
0.592,-1.4477177405570287,5903.766621201445
0.596,-1.437878942280801,5906.945343621161
0.6,-1.4477921076237288,5893.494852120138
0.604,-1.4736477919065052,5897.477313513283
0.608,-1.5066011915718256,5901.26509443268
0.612,-1.535617904453028,5889.033074543317
0.616,-1.5511275492653196,5897.619005079831
0.62,-1.5481668231941697,5905.35837405315
0.624,-1.527920677826152,5896.919740830427
0.628,-1.4971938381296739,5894.830890924197
0.632,-1.466116144610108,5897.502640430394
0.636,-1.4449899134737798,5895.10081040412
0.64,-1.4413469982393652,5897.26950930852
0.644,-1.4580104458099503,5895.386333703242
0.648,-1.4925238663375116,5901.509534713224
0.652,-1.5379245441581457,5899.629849526455
0.656,-1.584537069186373,5898.177520273614
0.66,-1.6222888802175996,5897.062868820161
0.664,-1.64302206057019,5895.449420384311
0.668,-1.6423173138658531,5895.462473341832
0.672,-1.6203914906738373,5898.002495208073
0.676,-1.5817954759301849,5892.324865353051
0.68,-1.534035509727205,5901.5826457026005
0.684,-1.4856569826734314,5905.77180804151
0.6880000000000001,-1.4444241336179764,5896.573722659057
0.6920000000000001,-1.4160078469747697,5900.943708658243
0.6960000000000001,-1.4033411705283199,5894.701588836719
0.7000000000000001,-1.4066235749939955,5899.435594484992
0.704,-1.4237721529117775,5901.4431829468585
0.708,-1.451009865958953,5892.515146893699
0.712,-1.4834106600652208,5890.2047484278055
0.716,-1.5154750105898478,5904.417105763577
0.72,-1.5418801724028404,5902.664249138361
0.724,-1.5583625742289855,5907.69618420315
0.728,-1.5624830923994524,5899.341981918745
0.732,-1.554014338230715,5900.142845407489
0.736,-1.5348280494770992,5899.887930123063
0.74,-1.508306938537449,5902.179989041992
0.744,-1.4784573335996907,5896.89339107355
0.748,-1.4490716819533023,5892.614024783251
0.752,-1.423310401594259,5907.156804650441
0.756,-1.4037988757728068,5889.422009438386
0.76,-1.3929473080570578,5900.877735308743
0.764,-1.3930221915976615,5901.958177730144
0.768,-1.405653816973812,5903.735094365774
0.772,-1.4308475413120125,5904.301591320317
0.776,-1.4659687523081921,5900.187784715519
0.78,-1.5053550567677576,5907.059106251643
0.784,-1.5410154048851266,5897.410204045855
0.788,-1.564372427853481,5898.343382990312
0.792,-1.568480207898704,5893.555103959356
0.796,-1.549902117943481,5901.933820341681
0.8,-1.5095705799772932,5903.840041353435
0.804,-1.4523898274154274,5904.385432420144
0.808,-1.3858708637868133,5898.813447777318
0.812,-1.3184149598492318,5891.167309577276
0.8160000000000001,-1.2578100720714764,5910.749466088377
0.8200000000000001,-1.2101955673868416,5903.586759935881
0.8240000000000001,-1.179480044646042,5909.102636604654
0.8280000000000001,-1.1671194671568537,5902.120992944151
0.8320000000000001,-1.1722055355483947,5903.668985721313
0.836,-1.1918524200280114,5902.021491669633
0.84,-1.2218581536349338,5891.852316780463
0.844,-1.257565233914497,5898.758345288467
0.848,-1.2947723126307928,5901.253805605528
0.852,-1.330486831670667,5901.923509375673
0.856,-1.3633052462867725,5908.536585806905
0.86,-1.393289906770346,5905.204994626681
0.864,-1.4213545150444145,5907.956327688423
0.868,-1.4483397374945892,5898.470008859103
0.872,-1.4741407540232416,5913.584382379731
0.876,-1.497340605202023,5890.826177833279
0.88,-1.515621868682261,5901.262932474887
0.884,-1.526773633538515,5901.975455902815
0.888,-1.5297139880607156,5891.457622696974
0.892,-1.5249572093912585,5903.764000802666
0.896,-1.5143463654011795,5904.992197341508
0.9,-1.500308990890423,5909.592748904033
0.904,-1.485072914449949,5900.005708836421
0.908,-1.4701566072495376,5897.199979802141
0.912,-1.4562079097654899,5903.7494409689725
0.916,-1.4431189561322226,5903.854966418144
0.92,-1.4303351221853737,5906.54078915233
0.924,-1.417288313275243,5896.446992345233
0.928,-1.4038428006745494,5894.22365984879
0.932,-1.3906012938766554,5894.484998101749
0.936,-1.378969638084277,5888.728047958429
0.94,-1.371003560369088,5894.127535263757
0.944,-1.369140809479812,5893.760074522486
0.948,-1.375879780026624,5895.283570884459
0.952,-1.3933632136935166,5908.7059005392175
0.956,-1.4228013446975063,5905.649486427394
0.96,-1.4637979144854583,5897.470625756795
0.964,-1.513841656919515,5899.046168032511
0.968,-1.5683042925010895,5889.996742572806
0.972,-1.621125846540747,5898.180639482208
0.976,-1.66604171956178,5901.8555483364
0.98,-1.697929509896949,5900.437597931267
0.984,-1.7138323745732524,5901.129462321635
0.988,-1.7134320531757534,5894.3998117042265
0.992,-1.6989314619659908,5896.769255824765
0.996,-1.674311821681496,5892.377666477854
1.0,-1.6439903691695936,5897.03176418608
1.004,-1.611274420127971,5897.4518873213865
1.008,-1.5774158422104456,5891.878617445428
1.012,-1.5419402348429525,5903.34487702964
1.016,-1.5041479134255524,5898.730213825856
1.02,-1.46485460501854,5900.830597083902
1.024,-1.4272420629781817,5897.932370588746
1.028,-1.396250795455979,5893.275888029851
1.032,-1.3768375115633402,5901.965712042053
1.036,-1.3720593549804512,5899.776742159495
1.04,-1.381972863755457,5905.130262766952
1.044,-1.4037959860700042,5907.839071443795
1.048,-1.4330922393933867,5902.568440394447
1.052,-1.4653214576340994,5891.224335045654
1.056,-1.4970671955286925,5894.972605938981
1.06,-1.526484692442938,5901.431490714761
1.064,-1.5529015895445502,5898.42878965675
1.068,-1.5758925451941568,5892.913979446887
1.072,-1.5943581854711466,5899.636587834251
1.076,-1.6061256941089141,5900.663870543706
1.08,-1.6083842617579707,5898.727432147865
1.084,-1.5988729057628663,5895.70166860246
1.088,-1.5772989326217,5908.718545902165
1.092,-1.5462982923807431,5896.448040813182
1.096,-1.5114748449064939,5897.270110412938
1.1,-1.4804598000571791,5903.0406684354575
1.104,-1.4612552583554141,5896.286840037536
1.108,-1.4602859108895578,5899.060653905392
1.112,-1.480624594870402,5899.369472922949
1.116,-1.5208323465920526,5896.82992500105
1.12,-1.574764280103562,5899.303489057486
1.124,-1.6324892543806013,5893.335049605009
1.128,-1.6821520795746474,5901.717670581489
1.132,-1.7123282943466342,5898.673185162394
1.136,-1.7143604611131191,5896.848982788939
1.14,-1.6842691446310496,5896.829940621458
1.144,-1.6239013855730058,5896.60968814042
1.148,-1.5409831435653096,5908.764594196554
1.152,-1.447861073859612,5904.556914789267
1.156,-1.3590703088888134,5899.168100597967
1.16,-1.2882984210204618,5899.582882632076
1.164,-1.2455479157950538,5896.696448338563
1.168,-1.235217719196716,5899.9328443883305
1.172,-1.2555445055169836,5909.733528897863
1.176,-1.2994873188344722,5898.915462204184
1.18,-1.3567424764566858,5896.040683859613
1.184,-1.416249627624014,5899.019475646361
1.188,-1.4684722292656862,5892.214487711182
1.192,-1.5069317072459398,5888.585392550537
1.196,-1.5287698742224642,5907.288983320736
1.2,-1.5343576243028918,5895.445078927376
1.204,-1.5261703370237611,5902.935909237201
1.208,-1.5073652746094626,5903.30693843354
1.212,-1.4806482606576683,5902.872993113527
1.216,-1.447917324120756,5906.469417101464
1.22,-1.4107478865947929,5907.8860226242605
1.224,-1.3712703302063245,5908.414553632685
1.228,-1.332764887479793,5895.648100427623
1.232,-1.2995228366268945,5893.906155709348
1.236,-1.2760092464348949,5896.74589070741
1.24,-1.265765402590134,5900.648266303623
1.244,-1.2705775717859482,5908.619318456807
1.248,-1.2902199349986643,5892.438397607
1.252,-1.3227361980068915,5897.240124696192
1.256,-1.3649902081916154,5907.230285041908
1.26,-1.4132307375405195,5897.596062261658
1.264,-1.463583811605665,5896.7866815758725
1.268,-1.5124656754847514,5896.31084618207
1.272,-1.556838294643543,5903.743100976039
1.276,-1.594210460766128,5894.543692551762
1.28,-1.6224595354432068,5904.619945079857
1.284,-1.6397419521556649,5906.828674950808
1.288,-1.6447166682922942,5896.432188042394
1.292,-1.6370329844749338,5899.439040020548
1.296,-1.6178014129940779,5909.69504403352
1.3,-1.5897849377042317,5895.636062282065
1.304,-1.5572446118293621,5894.896911703863
1.308,-1.5254848885694676,5908.597690267913
1.312,-1.500064468528816,5900.275284934258
1.316,-1.4855991138835458,5904.69670411377
1.32,-1.484333974301445,5911.837153771024
1.324,-1.4950665365480535,5895.92250749573
1.328,-1.5131273491586579,5896.266703268162
1.332,-1.5317309490970994,5904.603875388322
1.336,-1.5443277841259735,5909.533927274034
1.34,-1.5471090212114706,5907.006452880568
1.344,-1.5407985349962414,5898.760268632847
1.348,-1.5311511923294356,5901.448595109979
1.352,-1.527891888031471,5900.328487449982
1.356,-1.5421269950716108,5895.416338087141
1.36,-1.5826134992071434,5890.372661563935
1.364,-1.6516019297896511,5901.873833587
1.368,-1.7411359854997663,5901.639480179915
1.372,-1.8307502921832732,5907.703974242516
1.376,-1.8875905666187258,5901.869607640665
1.38,-1.869971450359316,5892.859516206863
1.384,-1.7348972175542194,5897.252734924088
1.388,-1.4487903651647827,5901.448055854133
1.392,-0.9988653397816599,5896.590814070843
1.396,-0.40122192686597474,5896.587078589519
1.4,0.2980993335228031,5895.158420193336
1.404,1.0307812872964068,5895.831113919011
1.408,1.7209540345828043,5913.216332929721
1.412,2.302249036197704,5928.606028372668
1.416,2.731456770470922,5949.770428870811
1.42,2.9948197935824683,5960.966096399852
1.424,3.1062573461055565,5991.84461804082
1.428,3.0995690061529553,5999.757651216252
1.432,3.0178766866122047,6014.806694335736
1.436,2.903440797190012,6035.389471416211
1.44,2.79009408288699,6044.934731795406
1.444,2.6993219155087065,6061.726086380734
1.448,2.639860765429424,6087.58972168973
1.452,2.609895833880457,6098.092345008296
1.456,2.600622067411882,6110.40708916272
1.46,2.6000107099664653,6127.402518890299
1.464,2.595960448216305,6143.962006836248
1.468,2.5784650338589508,6158.447525942504
1.472,2.5408413999131443,6173.68585590064
1.476,2.4802988699251487,6180.433845911086
1.48,2.3981246077314555,6203.33906256956
1.484,2.299565883698075,6211.825109157845
1.488,2.1932781951897806,6218.872552457633
1.492,2.0901438544725695,6242.531213331877
1.496,2.0014101400244493,6251.821020903243
1.5,1.9364141069398002,6265.594655777204
1.504,1.9004779659684243,6268.435771539627
1.508,1.8936242014614335,6290.878817812091
1.512,1.910515163119873,6291.891740398566
1.516,1.9416537267732157,6306.120019448904
1.52,1.9755481980534368,6308.439706662217
1.524,2.0012729591428835,6330.533785834174
1.528,2.0107127608529165,6345.418245595526
1.532,1.999893539097105,6358.352528070193
1.536,1.9691647839851338,6359.810301221561
1.54,1.922403481492999,6365.694673028299
1.544,1.8656676623109587,6378.687472246046
1.548,1.8057726424701568,6381.442706241428
1.552,1.7490988821845106,6404.392964874413
1.556,1.700676829223524,6399.951992410682
1.56,1.6634504898507956,6428.545872104275
1.564,1.6377202892962512,6423.397753838744
1.568,1.6209887148402893,6430.790512207879
1.572,1.6085229772421163,6441.015013439542
1.576,1.5947251483979537,6452.483346857764
1.58,1.5749512926025802,6457.248564547856
1.584,1.5470896410444979,6456.900751854862
1.588,1.5122505733417042,6471.480953288812
1.592,1.474275637218423,6471.997214071711
1.596,1.4382328636061583,6501.855450325235
1.6,1.4084711863879065,6503.11540608462
1.604,1.3869998556200291,6506.134990958966
1.608,1.3728100481301533,6513.303887122437
1.612,1.3623386312409933,6517.022212534805
1.616,1.3508426332966912,6530.750200432321
1.62,1.3341840030983865,6531.179150571892
1.624,1.3104238012228993,6536.448725141083
1.628,1.2806873753095285,6544.208229842208
1.632,1.249008317274777,6549.409360559904
1.636,1.2212203404318505,6557.261600036803
1.64,1.2032905388758686,6549.81267082526
1.644,1.1996458026779306,6560.582725274977
1.648,1.21198975310781,6576.721878067556
1.652,1.2388787998584498,6585.07976367872
1.656,1.2760244820406443,6576.738319917441
1.66,1.3170678777630855,6588.994394483717
1.664,1.3545647043880218,6594.403982886299
1.668,1.3810788655935713,6587.505740128487
1.672,1.3903763376456457,6602.8722346165
1.676,1.3786145765039524,6612.275957203286
1.68,1.3452672891329025,6620.255509540082
1.684,1.2934652741268782,6622.512399741153
1.688,1.229503432735961,6622.795385805748
1.692,1.16150390615469,6629.422532015768
1.696,1.0976079922340505,6631.680936688401
1.7,1.044315597744853,6633.952568112275
1.704,1.0054509242950271,6650.371642800758
1.708,0.9818674818345248,6644.128326949503
1.712,0.9717758629417159,6654.901210740539
1.716,0.9715725305295202,6654.865216463361
1.72,0.9770497888747438,6649.924395382161
1.724,0.984715984100243,6666.323158942605
1.728,0.992764581431717,6667.552969273138
1.732,1.0012364918245302,6675.911703843669
1.736,1.011213552846528,6673.998820544865
1.74,1.023333453638542,6682.4100508993615
1.744,1.0363039931563414,6682.452985837217
1.748,1.046219688028036,6690.635061962694
1.752,1.0472124651454142,6684.522355698832
1.756,1.0333400407862172,6690.196266469229
1.76,1.0009600666693323,6692.877561976819
1.764,0.9505850289817861,6696.334281137439
1.768,0.8874966760894808,6706.067813862009
1.772,0.8209503424094783,6700.988795334323
1.776,0.7622556047075288,6716.991377538069
1.78,0.7222486106954458,6715.676865588345
1.784,0.7087611314068417,6721.5932500709005
1.788,0.7247072733631189,6721.115956081163
1.792,0.7672851381094179,6723.354265292438
1.796,0.8284791017306186,6728.472017191531
1.8,0.8966684436814619,6724.591888489837
1.804,0.9589038166472228,6718.464788562899
1.808,1.003379893492903,6739.651145230009
1.812,1.0216978313404128,6728.765191949146
1.816,1.0105472322491225,6730.6630425858575
1.82,0.9724507937842412,6739.5548919902185
1.824,0.9152848323636137,6739.362934012746
1.828,0.8504762093598187,6753.201343505635
