时间(s),电压(V),幅值(高频80K)
0.0,-1.5396661609653213,5897.940603954434
0.004,-1.418649686112134,5887.7976105845655
0.008,-1.3125771655391807,5896.815834174235
0.012,-1.2327868322735789,5901.492212559289
0.016,-1.1857706292242607,5901.636966952952
0.02,-1.172426926647128,5903.036983068985
0.024,-1.188457062582843,5903.214800119504
0.028,-1.2255919127399393,5898.148275853546
0.032,-1.2733174533008245,5896.758723847215
0.036,-1.3208100682275654,5890.245472551071
0.04,-1.3587702499691512,5899.631977699092
0.044,-1.3808254318637965,5899.510639003321
0.048,-1.3842861868544758,5890.838892808369
0.052,-1.370220247939884,5898.619515950741
0.056,-1.342864837190731,5897.232983047506
0.06,-1.3083677589175124,5903.141523566749
0.064,-1.2730051021273274,5890.265432619655
0.068,-1.2413969623553367,5903.44406958224
0.072,-1.2154364870313974,5905.580063861271
0.076,-1.194356618646537,5899.906390351103
0.08,-1.1757971056311238,5900.196282771982
0.084,-1.1573368005052247,5901.3986217336
0.088,-1.137898927361831,5909.819461549357
0.092,-1.1185964789428149,5904.3100956055
0.096,-1.1027726382423637,5904.163002964283
0.1,-1.0951578440411782,5898.932752810139
0.104,-1.100310535374928,5889.146567420663
0.108,-1.1208412272904444,5905.039730841504
0.112,-1.1561179003671624,5890.114826879675
0.116,-1.2019946868018803,5900.813273605476
0.12,-1.2516442342755616,5895.051079907068
0.124,-1.2971030338148182,5890.276596605008
0.128,-1.3309688259469383,5889.4088420552025
0.132,-1.3478639205187302,5896.966824900483
0.136,-1.3455126068113237,5906.200190768388
0.14,-1.325311391814284,5902.445380480367
0.144,-1.2921888660463445,5896.925321669852
0.148,-1.253613885156877,5907.815867779882
0.152,-1.2178679426033034,5901.257001235274
0.156,-1.1919848729950975,5898.281725410294
0.16,-1.1799204249122541,5896.686607702977
0.164,-1.1815061554989164,5899.378851520959
0.168,-1.192582478588588,5902.744982189115
0.172,-1.2063818075821606,5899.331005330437
0.176,-1.215765630448904,5898.646163366097
0.18,-1.2155151183380644,5901.199623756211
0.184,-1.2038503593981695,5896.217076619134
0.188,-1.1827702643190592,5909.663024171674
0.192,-1.1573218414493978,5899.925095123734
0.196,-1.1341705043934505,5903.227880684518
0.2,-1.1198603125336226,5909.726530386813
0.204,-1.119127388950244,5900.1013495732805
0.208,-1.133645558815643,5903.908401669172
0.212,-1.1615812877787222,5898.968954255912
0.216,-1.1981954841746305,5899.981133350349
0.22,-1.2373626741598984,5889.346788902312
0.224,-1.2734131230592511,5894.789339078175
0.228,-1.30249666233186,5895.368574881067
0.232,-1.3229394458199475,5904.961002193982
0.236,-1.3346337191077104,5904.605770867816
0.24,-1.337970868976588,5899.810163503712
0.244,-1.332955965460006,5899.949445709648
0.248,-1.3189529933153592,5893.898718601468
0.252,-1.295161128794962,5900.192512833865
0.256,-1.2615666473067324,5903.43749636968
0.26,-1.21986907855801,5891.880635622628
0.264,-1.173838968242973,5895.760613305741
0.268,-1.1288062714303906,5897.157242500474
0.272,-1.0904540856035596,5904.694852678563
0.276,-1.0635006418122233,5901.478544735861
0.28,-1.0508570153547285,5899.00416226777
0.284,-1.0534733006264787,5899.412094755896
0.288,-1.0706795271600247,5906.503158518784
0.292,-1.1006545676051953,5902.186303689441
0.296,-1.1407198843529671,5902.3236807512985
0.3,-1.1873495883875442,5902.244740323055
0.304,-1.2360312724365297,5896.44926734575
0.308,-1.281288222892804,5901.409317505239
0.312,-1.3171260050460927,5896.55657625722
0.316,-1.3378996554338969,5894.4035356587965
0.32,-1.3393595841226598,5912.186569494751
0.324,-1.319618616601215,5907.9513742589215
0.328,-1.2798772355505457,5894.6014132671935
0.332,-1.2247385749115578,5905.354744767786
0.336,-1.1618681538942526,5901.6136027899365
0.34,-1.1008281255101282,5900.660942071482
0.344,-1.0512215627346,5898.90113155698
0.348,-1.0206269411454694,5896.69822331137
0.352,-1.012954005238525,5896.74817559625
0.356,-1.0277519286575418,5902.660323385461
0.36,-1.0607038270297333,5902.389549345603
0.364,-1.1051186349261972,5900.335016074035
0.368,-1.1538309366372401,5902.880171235821
0.372,-1.2007769534865889,5898.290900280313
0.376,-1.2417532136635407,5895.947613029105
0.38,-1.274323507056342,5899.927569640936
0.384,-1.2972200317889637,5896.85213978692
0.388,-1.3097207067241599,5903.978426816873
0.392,-1.31136349914886,5900.437252957885
0.396,-1.3020368854814681,5890.352400493032
0.4,-1.282175706135774,5896.055260313407
0.404,-1.2527810144464258,5898.590167443859
0.408,-1.2152666257271407,5903.448164233705
0.412,-1.1713750374319354,5899.723402334865
0.416,-1.1233554616614787,5892.094551194833
0.42,-1.0743401979356768,5895.764642654178
0.424,-1.0286122546124852,5894.960009840315
0.428,-0.991398057351012,5903.9206334451765
0.432,-0.9680313896384874,5904.366410153858
0.436,-0.9627264963264051,5901.300408346657
0.44,-0.977466632178685,5902.456303960854
0.444,-1.0114273751600704,5891.730200197923
0.448,-1.0610436925235167,5896.46584383555
0.452,-1.1206055369370174,5898.173140016955
0.456,-1.1832070108196555,5899.165430767495
0.46,-1.2418446491306798,5904.337321816336
0.464,-1.2904314663393575,5897.445791287177
0.468,-1.3245393104345404,5899.457010595704
0.472,-1.3417747287341875,5898.180837053394
0.476,-1.3417780136612139,5898.565560937423
0.48,-1.3259548617658035,5907.945204271437
0.484,-1.297167999108902,5909.112075517565
0.488,-1.259553027170824,5901.17365391174
0.492,-1.2183721153954172,5907.591372895945
0.496,-1.1796430121335901,5890.412776229049
0.5,-1.149366156087543,5898.985647118408
0.504,-1.1324458677858715,5903.987008479617
0.508,-1.1316653773097405,5906.531429017588
0.512,-1.1471218849297116,5898.11559712834
0.516,-1.1762856924479839,5899.031268673641
0.52,-1.2145484048634496,5900.634516146517
0.524,-1.256057097797507,5906.930265014118
0.528,-1.2947231451039922,5905.725571874008
0.532,-1.3252746926289847,5907.857030425149
0.536,-1.3440959022446053,5893.890004932134
0.54,-1.3496055644760947,5891.892852910655
0.544,-1.3421280950510455,5901.602658780729
0.548,-1.3234257342460036,5899.922824650396
0.552,-1.2961700742050632,5897.691180865172
0.556,-1.2635985893352664,5904.946969536709
0.56,-1.2293860203640816,5899.140637023846
0.5640000000000001,-1.1974829828049318,5905.2113922285125
0.5680000000000001,-1.171651088998059,5896.740214526591
0.5720000000000001,-1.154730274847293,5903.973011225546
0.5760000000000001,-1.1479513370448793,5893.970298815217
0.58,-1.1505696184987928,5900.4941212322665
0.584,-1.1599123443069543,5901.528358705749
0.588,-1.171863360631884,5895.167353170412
0.592,-1.1818025651940811,5899.167183502143
0.596,-1.1858777959806253,5899.637245145825
0.6,-1.1822237040425387,5907.578838773615
0.604,-1.1716042934912299,5904.5178157010205
0.608,-1.1571674792682043,5896.818297235954
0.612,-1.143457341539323,5895.941750588451
0.616,-1.1351484809942827,5895.714255485586
0.62,-1.135926573964007,5893.829474771238
0.624,-1.1477125444125051,5900.092147118983
0.628,-1.1702753510761241,5905.033612799615
0.632,-1.201245039080004,5900.085244155916
0.636,-1.2365354900585996,5892.924163952193
0.64,-1.2711567916367565,5896.19160652883
0.644,-1.3003155272887128,5909.557690067745
0.648,-1.3205734566827847,5898.473976276926
0.652,-1.3307281474203827,5906.474665919395
0.656,-1.332085413998684,5896.068868564703
0.66,-1.3279678298209139,5897.771499442443
0.664,-1.322610068509559,5887.5528105563735
0.668,-1.319870455216453,5896.51032986512
0.672,-1.3222491242342915,5901.123391420724
0.676,-1.3304997906239455,5900.230232884782
0.68,-1.343793577652424,5887.559751104022
0.684,-1.360154559558473,5898.616098595712
0.6880000000000001,-1.376880336124085,5907.901354772194
0.6920000000000001,-1.3908480254227238,5898.781984979652
0.6960000000000001,-1.3987992443429662,5898.960400437676
0.7000000000000001,-1.3977443201741206,5893.977884731897
0.704,-1.3855207013087005,5901.387361153484
0.708,-1.3613733275987425,5899.158417663894
0.712,-1.3263237717025884,5902.073368745426
0.716,-1.2831705599374226,5902.765184928036
0.72,-1.2361662113379193,5899.150330744117
0.724,-1.1905224225257698,5894.018044086519
0.728,-1.1517806450701935,5894.957892108857
0.732,-1.124938435871061,5901.416564014305
0.736,-1.1133068947663016,5904.9635897606095
0.74,-1.1173755459789583,5900.76301436322
0.744,-1.1342031360362386,5909.946217005369
0.748,-1.157804143787888,5905.212282011229
0.752,-1.1806461397493733,5892.250810128565
0.756,-1.1958691794591532,5905.972488552927
0.76,-1.1994372622667593,5902.710936006647
0.764,-1.1913860773394722,5900.404811336266
0.768,-1.1756872540874321,5900.220850894186
0.772,-1.1587851577432826,5888.823604912298
0.776,-1.1473414927864454,5907.121071706081
0.78,-1.14602634397876,5891.113731092773
0.784,-1.1561773376954427,5893.650324903094
0.788,-1.175719712767751,5899.397263921751
0.792,-1.2001249802146525,5902.025129994517
0.796,-1.2238101141398705,5909.254214206791
0.8,-1.24144765832785,5906.36678854184
0.804,-1.2489972625058292,5899.654842493282
0.808,-1.2445408428205595,5900.569678432328
0.812,-1.22897937622296,5893.716800816074
0.8160000000000001,-1.2063854955637874,5901.72879007126
0.8200000000000001,-1.1835992927328127,5897.237960921631
0.8240000000000001,-1.1687688442515576,5895.426017414808
0.8280000000000001,-1.168976870088973,5902.733890600994
0.8320000000000001,-1.1876387076493107,5905.116172723599
0.836,-1.2226936993734163,5892.051173957487
0.84,-1.2664872849499074,5901.900209588836
0.844,-1.3076336381899623,5894.334643918552
0.848,-1.334320232753186,5897.459020510398
0.852,-1.3378622423377435,5899.4430563121705
0.856,-1.3151919228006803,5910.169150513139
0.86,-1.2694803049061274,5910.747277411176
0.864,-1.2089135647565472,5894.388308018556
0.868,-1.1442781102554413,5897.363837450701
0.872,-1.0862309427195291,5901.880204115848
0.876,-1.043045380195177,5892.171938439444
0.88,-1.0193296102174092,5895.103499791803
0.884,-1.0158009980620681,5904.357770950971
0.888,-1.029858013863983,5903.116728271966
0.892,-1.0565694392827156,5904.780721864266
0.896,-1.0897466153196895,5892.092953377168
0.9,-1.1229024179834726,5892.481541980805
0.904,-1.1500985552387861,5896.971431085186
0.908,-1.1668014506943012,5899.272606274658
0.912,-1.1707467865489436,5909.725953742026
0.916,-1.1625442110082185,5898.74699063852
0.92,-1.1456246555597533,5888.249864546882
0.924,-1.125315295986481,5891.520492444449
0.928,-1.1072378045026976,5902.457375028171
0.932,-1.0956121545139865,5901.8767855794
0.936,-1.0921498558344394,5899.721312336641
0.94,-1.0959462568128535,5902.4386577262985
0.944,-1.1043002280400938,5898.522197639375
0.948,-1.1140071287501594,5902.753428706446
0.952,-1.1225814203087674,5900.004623895372
0.956,-1.1290226577143272,5892.687716347174
0.96,-1.133981297810435,5901.114546796844
0.964,-1.1393958755011924,5901.112772502151
0.968,-1.1477949516223314,5898.330400857551
0.972,-1.161469102136859,5896.734757017142
0.976,-1.1816952665141356,5901.062938445153
0.98,-1.2081905560515929,5894.819759618376
0.984,-1.238934091251756,5907.550213991909
0.988,-1.270403896065945,5898.1279291040855
0.992,-1.298190724946414,5896.0158678034895
0.996,-1.317898520941117,5890.98954607105
1.0,-1.3261895862308128,5893.730432032411
1.004,-1.3217489380721923,5902.0353055824025
1.008,-1.3058629010495204,5905.89314732768
1.012,-1.2823441053781965,5907.040945272144
1.016,-1.2567298359732635,5902.733529429658
1.02,-1.2349193756667343,5893.146084346879
1.024,-1.221583128162411,5901.443800497054
1.028,-1.2187649679006782,5903.708552035852
1.032,-1.2251199475611603,5899.827160422607
1.036,-1.2361290645277947,5901.848273356975
1.04,-1.2453564324841457,5903.113886666846
1.044,-1.2464197405025843,5901.907387924824
1.048,-1.2350202563749786,5898.876317281818
1.052,-1.2103192267835081,5902.84932048218
1.056,-1.1752042552123736,5905.287920413983
1.06,-1.135429245674637,5897.851062004337
1.064,-1.0980271020381953,5901.2850941894185
1.068,-1.0696237778111988,5909.937951110152
1.072,-1.0552202084557805,5904.265590884315
1.076,-1.0576500559489788,5893.646314456936
1.08,-1.0774959987848234,5898.040728940277
1.084,-1.1131157985403886,5895.489704098908
1.088,-1.160684693050843,5892.909847192233
1.092,-1.214483594790853,5896.426259662961
1.096,-1.26768951678028,5901.259053773559
1.1,-1.3136458826536024,5903.453261804763
1.104,-1.3472837376541684,5898.77161191559
1.108,-1.3662454239486275,5893.744073439842
1.112,-1.371348310450791,5904.998485877612
1.116,-1.3662435011209348,5901.51170991152
1.12,-1.3563608892821204,5899.908306645379
1.124,-1.3473899880735172,5901.009958977827
1.128,-1.3436434867595437,5895.61247353766
1.132,-1.3467360492318265,5893.083105839612
1.136,-1.3550036471538112,5894.456310586102
1.14,-1.3638831626619234,5902.69647062908
1.144,-1.367137015124327,5900.574377666399
1.148,-1.3585332718278627,5896.056979204
1.152,-1.3334916770762968,5898.649323275422
1.156,-1.2902642873778896,5898.122117831486
1.16,-1.2303891611864863,5904.9304415706665
1.164,-1.1583959565055602,5900.758538907749
1.168,-1.0809599300150703,5897.144169310837
1.172,-1.0057922060187987,5893.242532521303
1.176,-0.9405195772144521,5902.932525575923
1.18,-0.8917189288009537,5890.793739404063
1.184,-0.8641784035127975,5900.839971551968
1.188,-0.8603884058050673,5913.109099888226
1.192,-0.8802375471286663,5903.832910424041
1.196,-0.9208968982078485,5898.181233867388
1.2,-0.9769235704575243,5895.395899174499
1.204,-1.0406855054178499,5897.449414881715
1.208,-1.1032287042168167,5897.715162638963
1.212,-1.1556154944427917,5905.018092137329
1.216,-1.190567362162678,5903.446988374142
1.22,-1.204018050203921,5902.445870935438
1.224,-1.1960692533150428,5893.431018847837
1.228,-1.1709864358872693,5897.594923596835
1.232,-1.1362245029464382,5908.337503151256
1.236,-1.1007963885293632,5900.403285299915
1.24,-1.073420749376054,5894.368190693477
1.244,-1.0608321763607915,5902.165360430883
1.248,-1.0665266594931906,5905.5793137500805
1.252,-1.0901311430640501,5896.602686520973
1.256,-1.1275356782041932,5900.706757722732
1.26,-1.1718326578105056,5898.449846184606
1.264,-1.2148823689088644,5894.590383344227
1.268,-1.2490479826352152,5892.960156402773
1.272,-1.2685772959118098,5901.528345463502
1.276,-1.2703701299542098,5899.844972741843
1.28,-1.2542205854869153,5898.238702606787
1.284,-1.2227545546927645,5902.69235770674
1.288,-1.1811588024143425,5893.106964891908
1.292,-1.1365981810060888,5901.122676356967
1.296,-1.097146595503894,5904.718761464812
1.3,-1.0702416731250952,5907.40719093684
1.304,-1.0610297669957978,5899.518565785619
1.308,-1.0711955681007492,5900.6386123598695
1.312,-1.0987345476812096,5898.16802968372
1.316,-1.1387026966956155,5897.953856018995
1.32,-1.184554892028975,5896.626237534324
1.324,-1.2295127083256991,5902.946651736973
1.328,-1.2675513676212515,5899.379152886215
1.332,-1.2939239548609538,5905.414281755823
1.336,-1.305403852312027,5892.988667321025
1.34,-1.3004634927412795,5885.53835142244
1.344,-1.279462671138932,5891.448373004253
1.348,-1.2447723105725796,5902.531388369483
1.352,-1.2007372066384896,5893.744745210845
1.356,-1.1534293483481222,5896.478814390355
1.36,-1.1101250732293084,5894.700504237488
1.364,-1.0783720863986306,5899.779953079716
1.368,-1.0645868355361656,5895.759472904927
1.372,-1.0724288624397313,5903.581603229508
1.376,-1.1015429561116823,5904.334127014366
1.38,-1.147323852842829,5901.053615091531
1.384,-1.2019936394411392,5897.458687078975
1.388,-1.2566624091506668,5900.601577990886
1.392,-1.303574047681339,5890.3896695876665
1.396,-1.337739058532708,5905.984870076356
1.4,-1.3575530505522344,5895.839951857968
1.404,-1.3644425760245211,5908.835276886815
1.408,-1.3618417679658907,5905.007248965082
1.412,-1.353896324293747,5899.686845091315
1.416,-1.3442702063906296,5895.692673257594
1.42,-1.33532397771878,5888.331750915077
1.424,-1.3278028033543217,5894.807336342821
1.428,-1.3210491467094918,5907.025848832185
1.432,-1.3136131322570377,5901.721895535399
1.436,-1.3040031474215188,5898.884398099701
1.44,-1.2913057451089165,5897.917739931475
1.444,-1.27551613850089,5902.941913753116
1.448,-1.2575387170145753,5909.794982086673
1.452,-1.238893782014137,5895.465299938638
1.456,-1.2212611424545725,5902.723410463791
1.46,-1.2060688004898432,5902.330982376413
1.464,-1.1942825289741066,5900.723226637911
1.468,-1.1863917678935147,5896.20289000088
1.472,-1.1824644997330038,5900.790390225181
1.476,-1.1821481820100361,5898.215233858305
1.48,-1.18459771264416,5905.030831317634
1.484,-1.188425904486599,5902.945697804823
1.488,-1.1918342163856026,5900.067048878538
1.492,-1.1930598917987516,5908.907349205233
1.496,-1.1911046640754557,5892.762778996739
1.5,-1.1864192820737531,5900.310239051835
1.504,-1.18107933370154,5894.458775856241
1.508,-1.1782160100044379,5899.877981786061
1.512,-1.180886252281245,5895.336936090573
1.516,-1.1908571678426199,5898.5428001103455
1.52,-1.2078153641920741,5894.431309930658
1.524,-1.2293302549344867,5897.805039621935
1.528,-1.251590676736574,5897.651228300367
1.532,-1.270628566188684,5887.017704580152
1.536,-1.2835600193008292,5898.94798685699
1.54,-1.2893741264984464,5895.938247080888
1.544,-1.288996689015459,5898.498565792584
1.548,-1.2846724387505284,5905.885637331984
1.552,-1.2789783692663295,5903.696385280141
1.556,-1.2738804152448677,5896.332942234607
1.56,-1.2701848395467015,5910.30544588496
1.564,-1.267566929233925,5910.708730358263
1.568,-1.2651125477254161,5897.100663796398
1.572,-1.2620614622703428,5904.610080671663
1.576,-1.2583532180778658,5906.967202061976
1.58,-1.2547452112043687,5900.004246171488
1.584,-1.2525891018170923,5900.762244758687
1.588,-1.2535430939204668,5893.73936751378
1.592,-1.2593819729359232,5900.826790272488
1.596,-1.2717835362479792,5898.147292307416
1.6,-1.2918568653645852,5905.892386535707
1.604,-1.3193908463542763,5906.016386185953
1.608,-1.3521572508642776,5898.019126656363
1.612,-1.3857707792358753,5898.795566856875
1.616,-1.414407304323791,5906.144665469722
1.62,-1.4322414456768735,5899.346108177503
1.624,-1.4350992673876803,5894.5300425962905
1.628,-1.4217457587193472,5901.358286251306
1.632,-1.394416380702303,5900.956593363319
1.636,-1.358476262547741,5904.60850457736
1.64,-1.3213003388260018,5901.119581001969
1.644,-1.2906068711528444,5906.102690964269
1.648,-1.2726078917928871,5900.386244231313
1.652,-1.2704551174426015,5903.03008181159
1.656,-1.2834482726537009,5893.497639884464
1.66,-1.3072503421688528,5902.201424617513
1.664,-1.3350141646901883,5906.364429136672
1.668,-1.3590695198600673,5903.567234840858
1.672,-1.3727364451082453,5895.4284145979445
1.676,-1.371846768452576,5899.01910969047
1.68,-1.355617995335103,5902.772417965501
1.684,-1.3266755939098032,5908.6271952214665
1.688,-1.290269444636899,5903.583214396715
1.692,-1.2529644894915501,5895.352137663349
1.696,-1.2211854783587273,5894.942635002092
1.7,-1.1999597347315816,5891.317479673507
1.704,-1.1921029629452282,5902.334994806712
1.708,-1.1979642676255315,5901.838676706642
1.712,-1.2156749803488136,5891.276536302326
1.716,-1.2416831515347155,5906.448389805478
1.72,-1.2713334895758732,5898.879891361114
1.724,-1.2994059603921224,5899.849163761371
1.728,-1.3206919990138783,5899.945311790643
1.732,-1.3306915535439703,5894.972613482396
1.736,-1.3263833138350263,5896.947672764656
1.74,-1.306914828233348,5903.750000982066
1.744,-1.2740747816104931,5899.881866264882
1.748,-1.2324932439658396,5906.4200615556565
1.752,-1.1895275543724282,5903.300584843451
1.756,-1.1546792351146424,5905.578942955912
1.76,-1.1382941746399355,5895.409165848393
1.764,-1.1494038979143917,5901.904962435395
1.768,-1.1928589284639624,5899.929248132595
1.772,-1.266223241370511,5889.3930951881775
1.776,-1.3571331839690357,5897.1218868258975
1.78,-1.4419808544826613,5898.229499429824
1.784,-1.4868508505416131,5890.299628565836
1.788,-1.4514698393634466,5904.333556718852
1.792,-1.2963094077817692,5895.067875188661
1.796,-0.991919597017208,5899.408086238302
1.8,-0.5284093086640238,5886.182479289968
1.804,0.07780542297556234,5900.496439878357
1.808,0.7828807834959163,5904.515712160683
1.812,1.521755322085872,5890.292185336859
1.816,2.2208580920454173,5896.1402997065
