时间(s),电压(V),幅值(高频80K)
0.0,-1.6954403455060385,5903.320758668298
0.004,-1.7053439235378332,5902.342696233352
0.008,-1.7111737985448907,5912.878034993309
0.012,-1.709523267144008,5892.364069556269
0.016,-1.6990472384964903,5904.492127291667
0.02,-1.6807798765115867,5907.154806922435
0.024,-1.657690914979617,5895.454201710665
0.028,-1.633652620505592,5896.9478238079655
0.032,-1.6122974363543812,5906.765135447359
0.036,-1.5962301895542899,5893.590381979773
0.04,-1.586780941206327,5896.75679646759
0.044,-1.5841892977289278,5897.171744237056
0.048,-1.587964555177395,5894.410403130326
0.052,-1.5971847506048453,5892.678269084946
0.056,-1.610615143017909,5902.119057094044
0.06,-1.6266571068878641,5896.466269704506
0.064,-1.6432284648746238,5903.830974974445
0.068,-1.6577408699707177,5903.508334371983
0.072,-1.6673770533479437,5901.7416657082695
0.076,-1.6697730474356136,5893.137685634785
0.08,-1.6639301931419817,5894.816302810973
0.084,-1.6509210325536092,5897.808933151589
0.088,-1.6339742071567422,5891.981292054909
0.092,-1.6178226768524948,5897.80208686119
0.096,-1.6075312224680083,5909.731173084268
0.1,-1.607183305965532,5908.461873531228
0.104,-1.6188002500591139,5896.952858557204
0.108,-1.6417787934148245,5903.649555331569
0.112,-1.6730042700099625,5901.009173499665
0.116,-1.7076108030155208,5901.297514322666
0.12,-1.7401511845265552,5896.460324595697
0.124,-1.765813428740043,5901.845731642717
0.128,-1.7813565822299695,5891.852193743199
0.132,-1.7855909301311372,5904.411615421737
0.136,-1.7793703672600192,5901.843888821051
0.14,-1.7651387307105926,5900.497123832789
0.144,-1.7461412710544164,5887.777769342334
0.148,-1.7255232698191172,5910.959088761514
0.152,-1.7056031837655523,5895.258766979576
0.156,-1.6875218509112773,5903.282759325864
0.16,-1.6712863853959679,5899.540764446286
0.164,-1.6561119510845845,5905.4366523664685
0.168,-1.6409661585178255,5893.1554556710125
0.172,-1.6252169642551908,5885.826243273365
0.176,-1.609191336605794,5902.446891054776
0.18,-1.5943812685794971,5898.837378647388
0.184,-1.5831489502364242,5896.241981303019
0.188,-1.5780508576037569,5905.882072792272
0.192,-1.5810998093046473,5904.240690093756
0.196,-1.5932457861351024,5898.420924542227
0.2,-1.6141361820240985,5901.803637835915
0.204,-1.642035846295965,5907.002713460308
0.208,-1.6738199669666813,5902.398002034257
0.212,-1.7051519302382787,5906.698465510429
0.216,-1.7310897062909378,5901.160658478457
0.22,-1.7472224314250488,5896.526936550158
0.224,-1.7510639003681487,5895.620199063249
0.228,-1.7431094218310321,5899.188377367851
0.232,-1.7269789782233225,5899.612477507397
0.236,-1.7084421523444722,5894.331131174008
0.24,-1.6936130654537256,5894.121916865737
0.244,-1.686951479019526,5904.572398156485
0.248,-1.6897888587324563,5895.412067319241
0.252,-1.699925164669865,5898.896724269586
0.256,-1.7124737522469833,5896.682584126614
0.26,-1.7216748912993545,5894.707757964398
0.264,-1.7230222520367175,5894.014048775209
0.268,-1.7149228496404765,5902.949652060882
0.272,-1.6993031922406951,5901.116106325306
0.276,-1.680977978674727,5890.157263536852
0.28,-1.6660211534960943,5902.060892256215
0.284,-1.6596977234235695,5901.693827268921
0.288,-1.6646806156264993,5899.499219213138
0.292,-1.680212707735968,5911.368423078007
0.296,-1.7025133129415582,5904.63019863347
0.3,-1.7261960967643126,5898.464589229526
0.304,-1.7460763286820347,5896.153575148604
0.308,-1.7587072488524946,5889.555060145212
0.312,-1.7631966448931142,5900.765157733728
0.316,-1.761110980622389,5907.754285758865
0.32,-1.7555228688896045,5896.438287768562
0.324,-1.7495103151633529,5897.372372198692
0.328,-1.7446155594355002,5900.484899444817
0.332,-1.7398601863586427,5900.930845244517
0.336,-1.7318331833549228,5901.469855115481
0.34,-1.716006328349653,5894.12007570306
0.344,-1.6888333823537371,5897.950320300843
0.348,-1.6497339858881424,5899.31116928909
0.352,-1.6020958029205357,5895.716641259205
0.356,-1.5528570683006881,5895.105781160471
0.36,-1.5107538697429075,5907.020101234485
0.364,-1.4838004407487035,5897.426632535401
0.368,-1.4769300407929074,5898.512073144518
0.372,-1.490727395986792,5901.51907643453
0.376,-1.5217049142512464,5898.872869250298
0.38,-1.5638599557326145,5895.656749730671
0.384,-1.6107371315815402,5896.740735661007
0.388,-1.6571471706139869,5894.865075880795
0.392,-1.6999739379802978,5905.0071512755385
0.396,-1.7379248735927164,5897.163979927694
0.4,-1.77050747892838,5901.174842960979
0.404,-1.7968200516926296,5886.982871453197
0.408,-1.8147694033595365,5901.02342445597
0.412,-1.8210531118276754,5897.6537082251525
0.416,-1.8118945872842844,5893.2697616102205
0.42,-1.784315936950504,5901.827931003872
0.424,-1.7376326150521753,5901.868944375085
0.428,-1.674711552570325,5903.858394586452
0.432,-1.6024201043774013,5905.813228130831
0.436,-1.5308331523002452,5898.180229863435
0.44,-1.471213224222977,5895.081301491709
0.444,-1.4333060941707754,5895.333192592606
0.448,-1.4228184711550236,5908.707014240698
0.452,-1.4399213141272555,5894.724482331838
0.456,-1.4792567809918618,5903.915993620763
0.46,-1.531370862863489,5892.664539291661
0.464,-1.5850234331882798,5904.855430246681
0.468,-1.6296651135013687,5899.356201454383
0.472,-1.6575033020890133,5901.715186799749
0.476,-1.66480611221793,5896.448479071122
0.48,-1.6522622544697605,5899.038723465238
0.484,-1.624376105600694,5906.411489158442
0.488,-1.5881179727188877,5901.52280587713
0.492,-1.5512698207643207,5898.508848167611
0.496,-1.5209206225902616,5897.051161065154
0.5,-1.5023695704327917,5908.988855020729
0.504,-1.4984750426471012,5900.173616689439
0.508,-1.5093976375969893,5908.087549725972
0.512,-1.5327201153098164,5904.324571617641
0.516,-1.5639679052983682,5896.21517026155
0.52,-1.597502355445349,5897.2926318857335
0.524,-1.6276323672759758,5899.331695530066
0.528,-1.6497068696577273,5904.342527334854
0.532,-1.6609896993797222,5903.191626134361
0.536,-1.6612016397857574,5900.471917769298
0.54,-1.652616154908809,5893.62961683381
0.544,-1.6395632974672927,5903.346868608397
0.548,-1.6273104633835953,5905.876425110751
0.552,-1.6205759342028025,5901.605126136655
0.556,-1.6221788920439224,5898.245178340851
0.56,-1.6323209491698976,5900.139626401123
0.5640000000000001,-1.6487186342915192,5900.160994119547
0.5680000000000001,-1.667444318145644,5909.920027939636
0.5720000000000001,-1.6841021175391122,5899.860971630899
0.5760000000000001,-1.694951955755876,5902.1569354657
0.58,-1.6977161342954008,5907.1656519799
0.584,-1.6919379091404552,5902.410758731142
0.588,-1.6788712467239295,5898.067509577565
0.592,-1.6609783558013165,5892.270730085395
0.596,-1.641192990754411,5900.558090116926
0.6,-1.6221513486570793,5899.268076019471
0.604,-1.6055919335176077,5906.824731345736
0.608,-1.5920867243873393,5896.237105643809
0.612,-1.5811799743013266,5907.003605645725
0.616,-1.5718739779929594,5900.822448527694
0.62,-1.5632601729152997,5897.739217719446
0.624,-1.5550384040925183,5903.724759821257
0.628,-1.5477485504376824,5901.092027797121
0.632,-1.5426865038491084,5894.38474010079
0.636,-1.5415618383356464,5906.681781319373
0.64,-1.5459716308166653,5903.730533372758
0.644,-1.5568110927935277,5901.140160764632
0.648,-1.5738120837726148,5897.042531525372
0.652,-1.595392524076607,5899.363528908088
0.656,-1.6188969538685265,5901.945090956464
0.66,-1.641192064329603,5892.002619279651
0.664,-1.6594864115667096,5904.880095399944
0.668,-1.6721422675077326,5904.849550596832
0.672,-1.679173937563825,5900.830348129588
0.676,-1.6821949768040731,5892.621301677218
0.68,-1.6838123003696102,5895.668603688442
0.684,-1.6867171842063788,5899.267257544082
0.6880000000000001,-1.692815431044298,5894.730407887023
0.6920000000000001,-1.702651514713105,5896.794404980953
0.6960000000000001,-1.7152298101147994,5901.177148136126
0.7000000000000001,-1.7282242237232723,5900.9423935505765
0.704,-1.7385159583227727,5893.899694145616
0.708,-1.7429695793035922,5894.189302555074
0.712,-1.7393019968630499,5902.252271958666
0.716,-1.726820742548527,5893.806541102971
0.72,-1.7067880465579683,5896.414177011459
0.724,-1.6822719753565931,5899.756145667693
0.728,-1.6575197887644963,5900.75183252288
0.732,-1.6370273197862428,5903.122744682096
0.736,-1.6245567380534955,5907.690461430725
0.74,-1.6223752188779335,5895.72612349575
0.744,-1.6309078671970434,5896.2657566494745
0.748,-1.6488319633746655,5902.60728503824
0.752,-1.673487419974701,5887.715478786438
0.756,-1.7014161982561065,5911.525499354279
0.76,-1.7288729514112209,5894.243572305591
0.764,-1.7522353030092828,5901.993155178067
0.768,-1.7683260365717575,5902.308537755318
0.772,-1.7746829117517853,5891.457002542603
0.776,-1.7697822364956828,5905.190092384848
0.78,-1.7532137136876886,5891.09712723846
0.784,-1.725832629795079,5897.170469524747
0.788,-1.6898848160810267,5900.942592366014
0.792,-1.6489799962746072,5905.014407990042
0.796,-1.6077314349192267,5890.633068169058
0.8,-1.5710170496122402,5913.484688338185
0.804,-1.5430578112835867,5900.116087342213
0.808,-1.5266307017005574,5901.440879916075
0.812,-1.5226394634034546,5901.282916298896
0.8160000000000001,-1.530084498550239,5899.61242860234
0.8200000000000001,-1.5463642962048956,5901.628346791082
0.8240000000000001,-1.5678119236151398,5896.732071741215
0.8280000000000001,-1.5903631638406706,5908.480331529465
0.8320000000000001,-1.6102624847816778,5894.025558946821
0.836,-1.6247196140444045,5896.270291699381
0.84,-1.63238349563372,5897.866278638305
0.844,-1.6334489483320394,5904.436559963464
0.848,-1.6292919311305567,5897.569792644371
0.852,-1.6217679507862957,5899.677195160493
0.856,-1.6125250856604891,5891.2661509738
0.86,-1.602673466045076,5898.216855059504
0.864,-1.5929096240541551,5905.474269472512
0.868,-1.5839050392856309,5898.590567958752
0.872,-1.576639867175444,5903.791597505048
0.876,-1.5724608794808732,5897.330012248023
0.88,-1.5728532962740687,5897.905829679893
0.884,-1.5790572447415867,5897.916197596416
0.888,-1.5916580820935275,5899.024105930031
0.892,-1.6102269694963458,5903.24133353874
0.896,-1.633102618301271,5900.429869769283
0.9,-1.6574665446348786,5896.705060892547
0.904,-1.6798339415631525,5893.9453779667065
0.908,-1.696901435414126,5900.9686892205455
0.912,-1.706480680504778,5896.208925469347
0.916,-1.7081703493126708,5896.102988431915
0.92,-1.7035258469857697,5896.930970509966
0.924,-1.6956693501508213,5897.0901778943135
0.928,-1.688405782654974,5900.518351939516
0.932,-1.684984292285753,5896.402206763923
0.936,-1.6867997235647532,5901.354146177171
0.94,-1.692544822231454,5901.60374889238
0.944,-1.6983467309361437,5907.781741763686
0.948,-1.6990589709783859,5906.272790671887
0.952,-1.6902781675165182,5907.699736253068
0.956,-1.6702059571587526,5904.489537121287
0.96,-1.640503316797316,5906.727147136991
0.964,-1.6057865512491196,5898.041801312258
0.968,-1.572080966009248,5904.792955122789
0.972,-1.545001033130532,5903.589769431217
0.976,-1.5284401178358196,5893.613791583885
0.98,-1.5241614208462209,5899.2153775899615
0.984,-1.5321620960655078,5906.15523790034
0.988,-1.5513561036299215,5896.049485810475
0.992,-1.5801117019074957,5899.609641387302
0.996,-1.616394793379169,5897.123712629891
1.0,-1.6575509120881993,5901.321777954709
1.004,-1.6999802249846503,5898.66307625723
1.008,-1.7390372026300425,5898.5034037532005
1.012,-1.769377722636931,5901.938318167374
1.016,-1.785735731589441,5906.958801699952
1.02,-1.7839063584948645,5901.7127371159095
1.024,-1.7616846186877684,5896.99126880379
1.028,-1.719632168988719,5894.646686879343
1.032,-1.6616672650188566,5900.97846438026
1.036,-1.595449061321586,5894.248782774235
1.04,-1.5323169935595249,5887.145584489477
1.044,-1.4863163746210442,5899.5608723962905
1.048,-1.4719048366559544,5885.093945624308
1.052,-1.5003999824371055,5897.949909522904
1.056,-1.575812572297254,5896.294491185267
1.06,-1.691047513877087,5900.387588283051
1.064,-1.8254640104884186,5910.471828899576
1.068,-1.9446368906014715,5895.745690551705
1.072,-2.003017296846724,5899.540437955039
1.076,-1.9499813020567849,5899.104165835985
1.08,-1.7391813761912993,5903.096140603596
1.084,-1.339992106069271,5898.651799148148
1.088,-0.7484343754153424,5897.332321678484
1.092,0.0060496011310295535,5903.499556336092
1.096,0.8614301447054603,5896.6463765240405
1.1,1.7331033329776813,5892.674043963909
1.104,2.531257901270664,5920.359268155697
1.108,3.18036444310214,5926.866153471186
1.112,3.634345300561518,5943.076526196013
1.116,3.882926197311413,5945.325089951676
1.12,3.9484118096634413,5981.13424158975
1.124,3.8754187595635035,5986.004142068635
1.128,3.7176852727538674,6003.717967665841
1.132,3.5259397768807976,6027.2848584367
1.136,3.339509509980108,6038.168205255773
1.14,3.1826235860558576,6053.615052967037
1.144,3.064902145058229,6080.27328617076
1.148,2.9846866016573443,6079.723098486845
1.152,2.9336232682062606,6086.932680617052
1.156,2.90107078100916,6112.382714056657
1.16,2.8773339993579943,6123.692013602164
1.164,2.855340970076127,6135.749470888954
1.168,2.830973550755614,6153.8987912349685
1.172,2.802583260821673,6160.549416753071
1.176,2.7702060044986734,6173.363303307855
1.18,2.7348005613664874,6192.019413041789
1.184,2.69765102231651,6195.928806737168
1.188,2.659942690017184,6218.400499811252
1.192,2.6224597859729886,6219.634566750187
1.196,2.585375932244028,6230.481006522894
1.2,2.5481583068207683,6244.244973729383
1.204,2.509617043622057,6261.226695763175
1.208,2.468128489471157,6261.656449480281
1.212,2.422061551433334,6275.072388169494
1.216,2.3703655926473064,6277.388309264925
1.22,2.313129661894332,6299.295520986626
1.224,2.2518409436264863,6299.859400722696
1.228,2.1891658117961574,6310.389433231669
1.232,2.1282966044967493,6326.032458827431
1.236,2.0721191756992376,6335.0479517015865
1.24,2.0225545380714047,6351.778828189667
1.244,1.9803548656703205,6344.717962806515
1.248,1.945390007412604,6357.016192943104
1.252,1.9171537195056152,6377.351434624327
1.256,1.8950724168562938,6382.300876479322
1.26,1.8783835641477742,6375.497594314767
1.264,1.8657560416062218,6384.990995899227
1.268,1.8550946302148752,6396.905229453232
1.272,1.8438427700956834,6410.199589076766
1.276,1.8296849872060805,6426.026124968284
1.28,1.8112316990947197,6426.904940691067
1.284,1.7883086603893754,6432.585863516142
1.288,1.7617866359905359,6439.81306083925
1.292,1.7331640968026953,6450.116528914735
1.296,1.704137337001503,6451.3357890763655
1.3,1.676236386846705,6452.763506226628
1.304,1.6505182271510515,6462.350082760753
1.308,1.6273628258860324,6471.780614381945
1.312,1.606451018256439,6480.320949437965
1.316,1.5869315210669817,6481.849224527137
1.32,1.5677050740976604,6486.818207588635
1.324,1.5477284599667647,6500.912881168767
1.328,1.5262400639997562,6500.303965946221
1.332,1.5028369346594423,6503.335536896929
1.336,1.4774033284586556,6512.241751050666
1.34,1.4499538729762078,6523.340533746539
1.344,1.4204883016509309,6532.904563666281
1.348,1.3889849744365188,6532.709148900975
1.352,1.3556402968997863,6529.243048282577
1.356,1.3213112742777127,6537.530413179517
1.36,1.2879143177385088,6540.345649763118
1.364,1.2584594330065675,6556.33991568621
1.368,1.2365146626667582,6552.309317395715
1.372,1.2251166061710428,6554.169006382703
1.376,1.2254015631762618,6554.599533459556
1.38,1.2354774287799062,6561.180019952932
1.384,1.2501365181482236,6586.253492033527
1.388,1.2617573992813784,6570.170829048417
1.392,1.2622280807348971,6584.590631009703
1.396,1.2452574863394725,6582.050817288354
1.4,1.2082892038590023,6589.58066215295
1.404,1.1533999294999577,6592.811885109821
1.408,1.0869122919262466,6590.216066569625
1.412,1.0178496108380306,6598.614429145436
1.416,0.9557062600791902,6611.789139855098
1.42,0.9081845457014116,6604.024166721308
1.424,0.8795016667022477,6615.416494989119
1.428,0.8696750351799034,6611.704666557525
1.432,0.8749398448813754,6618.659096395677
1.436,0.8891324034600652,6621.9696633236845
1.44,0.9055284289464459,6630.659451424773
1.444,0.918474038143398,6628.22387562352
1.448,0.9243595106478073,6623.866245312578
1.452,0.921902961442234,6632.423929176574
1.456,0.9119681651711061,6628.796818239664
1.46,0.8970787502044518,6636.1212631821245
1.464,0.8806253603345044,6637.182053573047
1.468,0.8658036432416111,6641.848860350856
1.472,0.8545697331600943,6651.748154624531
1.476,0.8470365615485977,6648.954730163
1.48,0.8415590561305045,6656.649754420023
1.484,0.8354362635884891,6659.887926849733
1.488,0.8259335446792552,6652.698516061852
1.492,0.8112473452281412,6666.162623048547
1.496,0.7910865322281525,6662.163373097322
1.5,0.7667429198507644,6669.661635713435
1.504,0.7407764401882275,6671.356229924309
1.508,0.7165514132750371,6674.38721019243
1.512,0.6977506590405651,6682.487065258551
1.516,0.6878152604551179,6685.236276301865
1.52,0.6892356567989134,6675.60774910988
1.524,0.7027970886454079,6673.161312408672
1.528,0.7270590450062734,6683.520513652215
1.532,0.758324521021064,6688.358097099138
1.536,0.7911638252963442,6675.93717385883
1.54,0.8193691572232132,6699.697149787404
1.544,0.8371100005039743,6691.599454291791
1.548,0.8400257379246965,6694.682161598728
1.552,0.8260450316462095,6694.639316332107
1.556,0.7958328457364614,6700.603088522924
1.56,0.7528074794306433,6701.247711619972
1.564,0.7026238278581372,6708.031588940472
1.568,0.6520747960729206,6703.960742793954
1.572,0.6076237866965151,6705.442160831515
1.576,0.5740560955371005,6708.863074842473
1.58,0.5537434089696789,6701.119745483988
1.584,0.5466861814304798,6709.983086930445
1.588,0.5510710759513949,6705.740112218626
1.592,0.5639035367574965,6705.661207820295
1.596,0.5814650876461401,6716.081688877115
1.6,0.5996586215769432,6713.198902068627
1.604,0.6144249022531989,6713.486979285784
1.608,0.6222872726731544,6717.210579903533
1.612,0.6209114953816345,6720.574930514254
1.616,0.6095365032571352,6716.675886594228
1.62,0.5892107137085427,6726.586387427562
1.624,0.5627929068447692,6729.919980267677
1.628,0.5346015844666757,6730.543407040955
1.632,0.5095971682878326,6723.500363915188
1.636,0.4922030195967075,6726.848945718701
1.64,0.4851690412260893,6728.173899128934
1.644,0.48895307884289513,6725.762155058966
1.648,0.5018336843091047,6736.125601569372
1.652,0.5205776309620079,6737.912951728803
1.656,0.5412686618090194,6734.865167898586
1.66,0.5599849142355573,6738.370433215139
1.664,0.5732595361488526,6733.751524823077
1.668,0.5784418504040436,6740.84687209061
1.672,0.5740760089342918,6727.314281498935
1.676,0.5602750162034105,6736.791727234419
1.68,0.5389176833217217,6739.423067495019
1.684,0.5134628726133217,6749.442798477894
1.688,0.48831144186079684,6749.991983339094
1.692,0.467861429630464,6737.982822448745
1.696,0.45553083787902615,6736.762726408226
1.7,0.4530065442005356,6736.128251444877
1.704,0.4598981604389441,6751.598307632263
1.708,0.47388632969449257,6740.6395777225225
1.712,0.4913340107543406,6742.8614018919525
1.716,0.5081878159169665,6745.160923945232
1.72,0.5208992423424602,6751.757747267019
1.724,0.5271104522011134,6746.669627710944
1.728,0.5259932925255069,6741.838599614957
1.732,0.51828839031864,6747.782550287662
1.736,0.5061075879004323,6751.597400554161
1.74,0.4924773997693102,6747.594780880691
1.744,0.4805985148619381,6750.441140405284
1.748,0.4729278661380488,6752.59858507559
1.752,0.47033592613236674,6757.379707273589
1.756,0.4716451472428139,6775.008567765975
1.76,0.4737948152147367,6752.088652204538
1.764,0.47270962060289845,6752.365826871444
1.768,0.4646901803921648,6755.122396712653
1.772,0.44788129023673656,6761.704262530463
1.776,0.4232633313087047,6752.664147507886
1.78,0.39474022004873754,6760.443745768151
1.784,0.3682012519811193,6764.249997420388
1.788,0.3497968244823379,6751.592683192525
1.792,0.3439825698162364,6760.625495029628
1.796,0.35202115884439866,6762.146350041807
1.8,0.3714896555384247,6754.547679645575
1.804,0.39697300993291623,6763.604532043714
1.808,0.4216922059669149,6754.971660130899
1.812,0.4394889052227934,6759.96866498742
1.816,0.44649196403215424,6757.22454030713
1.82,0.441957408672289,6770.133409850853
1.824,0.4281113487677769,6774.487606945576
1.828,0.4091661598964517,6766.428430188168
1.832,0.38989325415246073,6759.479267408232
