时间(s),电压(V),幅值(高频80K)
0.0,-1.6197959144018035,5906.42264964055
0.004,-1.5759471601399575,5902.051434944343
0.008,-1.537936099225196,5899.233226631385
0.012,-1.5101396078811573,5896.555451313788
0.016,-1.4946965533614487,5903.167518055396
0.02,-1.4912426684638136,5908.769322484087
0.024,-1.4971824171513985,5904.775385327148
0.028,-1.5083297301484513,5895.795475269199
0.032,-1.5198997705882573,5892.624307850333
0.036,-1.527783103951262,5900.617614480283
0.04,-1.5297593664964646,5903.702803593967
0.044,-1.5261449299414893,5884.61421612587
0.048,-1.5195626307617325,5897.73945065574
0.052,-1.5139429882210436,5900.785638703355
0.056,-1.5132067429674652,5902.113417379697
0.06,-1.5201461611039557,5898.774079727276
0.064,-1.5358219626084604,5898.674955360061
0.068,-1.5594927306560433,5898.149710896665
0.072,-1.5889216561366102,5895.631258088111
0.076,-1.62092487797851,5900.28650801801
0.08,-1.6520771864834776,5896.290604407894
0.084,-1.6794587284887548,5888.688248905372
0.088,-1.701295078047089,5910.218093797342
0.092,-1.7173730219065746,5903.123120847215
0.096,-1.7291033000772007,5899.731679022865
0.1,-1.7390392012512703,5894.093264767615
0.104,-1.7497743476738874,5898.861486729695
0.108,-1.7625461018309851,5903.058558046734
0.112,-1.7762356416493608,5894.248686180955
0.116,-1.787345313503465,5898.989121388614
0.12,-1.7909857893853287,5893.78150439106
0.124,-1.7824072585550677,5906.015275238729
0.128,-1.7585046628016943,5900.463808666509
0.132,-1.7188965924583328,5906.511856516636
0.136,-1.6663389837613665,5899.288590063175
0.14,-1.6063347257111051,5906.956396370366
0.144,-1.5459728050339125,5906.275225671404
0.148,-1.4923142446239166,5897.019585645242
0.152,-1.4508770212986384,5891.876097663275
0.156,-1.4247493668347575,5901.861911359442
0.16,-1.414547094025201,5895.893808053571
0.164,-1.4190280995241438,5894.459328001858
0.168,-1.4359367689229097,5906.708693460648
0.172,-1.462673318991661,5904.301972378741
0.176,-1.4965882022035781,5902.6972508910985
0.18,-1.5349302340323314,5900.180719779405
0.184,-1.5746361935848823,5903.850923761132
0.188,-1.6122244107717938,5900.738791818259
0.192,-1.6439931837612336,5892.702905495291
0.196,-1.6665030448668152,5902.204154536375
0.2,-1.6771151151344592,5899.718539645039
0.204,-1.67437649648589,5902.337429651268
0.208,-1.6582054186187403,5899.721649716435
0.212,-1.6298945056447256,5894.312180657882
0.216,-1.5919423446135166,5902.875442808512
0.22,-1.5478153595318696,5899.657530527445
0.224,-1.5018220868243475,5899.409118437287
0.228,-1.4591127068352474,5900.857296786483
0.232,-1.4255158174476832,5896.181333590149
0.236,-1.4068449166444486,5907.221351721144
0.24,-1.4075875646684592,5896.35467202599
0.244,-1.4293676257985681,5898.913618882426
0.248,-1.4699203954662359,5901.380116404957
0.252,-1.5232348275206948,5904.655803633221
0.256,-1.5809847049966659,5895.679832349448
0.26,-1.6347370669334436,5903.627243026074
0.264,-1.6780808795514173,5903.535098014084
0.268,-1.7079143531737229,5894.6182927039845
0.272,-1.7245573355608312,5896.896685154346
0.276,-1.7308414532361687,5909.958129203352
0.28,-1.730615624585334,5900.797475170658
0.284,-1.7271542855817168,5917.231468399808
0.288,-1.7219297178519466,5898.675639212116
0.292,-1.714164660228061,5893.21486243156
0.296,-1.701377434118705,5891.632722636059
0.3,-1.6807323381831687,5901.231776355479
0.304,-1.6506436090274015,5901.982197326311
0.308,-1.61200089705404,5897.841640571729
0.312,-1.5686018458722053,5898.836388119545
0.316,-1.526691378584861,5896.814298849147
0.32,-1.4937123708625752,5902.475192794999
0.324,-1.4764864602802252,5907.280586194165
0.328,-1.479240896168786,5898.086557198761
0.332,-1.5021501266168378,5903.6959247457
0.336,-1.5410608075619414,5911.529646398069
0.34,-1.5886348566152209,5893.99958540724
0.344,-1.636513216824806,5892.336001346141
0.348,-1.6776727889689638,5891.772800280335
0.352,-1.7081021124471374,5891.342498812295
0.356,-1.7272095398106104,5910.16769926601
0.36,-1.736896731185679,5899.593627491345
0.364,-1.7398116525092326,5901.943318751853
0.368,-1.7376590989242922,5896.57937687385
0.372,-1.7303721238264835,5904.090105375853
0.376,-1.7164638533746188,5899.52741339308
0.38,-1.6942495513904416,5905.487654580987
0.384,-1.6632050478380973,5899.433391342378
0.388,-1.624744033008626,5894.165413353404
0.392,-1.5821027491219797,5904.856410371702
0.396,-1.5395296457275958,5899.253804220776
0.4,-1.5012803002313229,5903.249465585107
0.404,-1.4708790564601377,5905.948405344596
0.408,-1.4508230480359745,5897.219295433476
0.412,-1.4425712142196452,5890.72412672085
0.416,-1.4464707415356794,5896.844961455248
0.42,-1.4613907347569304,5898.111557126812
0.424,-1.48425257836503,5895.864451213389
0.428,-1.510028273206788,5898.868110079578
0.432,-1.5326867643015853,5900.493209843746
0.436,-1.5469655211049345,5902.9162516386
0.44,-1.5501976320884823,5899.388454915522
0.444,-1.5432688368225715,5895.133070578696
0.448,-1.5302328884956307,5903.767041193025
0.452,-1.5168270202113088,5908.357657876631
0.456,-1.5086226437048624,5888.281688469464
0.46,-1.5095700204813938,5896.440867191922
0.464,-1.5213421612191853,5896.052644466189
0.468,-1.5434340199954335,5895.155691540892
0.472,-1.5736632093714351,5895.842312940146
0.476,-1.6086629382222313,5904.335518929849
0.48,-1.6441769177196246,5900.164956935973
0.484,-1.6753031377116872,5898.133562154171
0.488,-1.696984047127774,5896.02351447411
0.492,-1.7048769633779297,5900.113027940848
0.496,-1.696454946363027,5890.302423975742
0.5,-1.6720000961886716,5898.858384145261
0.504,-1.6350886305644463,5894.512520077594
0.508,-1.5922429788068189,5897.938508463985
0.512,-1.551704649815316,5904.0266043837055
0.516,-1.5216657237999967,5905.017527019745
0.52,-1.508500409667991,5898.194905988499
0.524,-1.515420669115564,5914.297414120256
0.528,-1.5417459513526344,5902.319886082423
0.532,-1.5828912742395758,5900.355323228651
0.536,-1.6311909584440094,5899.206678791965
0.54,-1.6775293977522412,5891.984293024164
0.544,-1.7134162706622158,5897.8773278185645
0.548,-1.7329074988386448,5897.530749884002
0.552,-1.7338485585750223,5907.070139057065
0.556,-1.7182016012911294,5901.6602842439215
0.56,-1.6914792006482133,5898.829536859292
0.5640000000000001,-1.6614295357194806,5892.142834492312
0.5680000000000001,-1.6361712366355041,5905.708115422283
0.5720000000000001,-1.6221168992258452,5901.305972786312
0.5760000000000001,-1.622249601548799,5901.297726906143
0.58,-1.6353771609812207,5894.051456026502
0.584,-1.656693127333373,5899.110557999693
0.588,-1.6794600816512868,5907.009660243788
0.592,-1.6971950103904154,5900.352773672863
0.596,-1.7055634385918992,5904.697903789545
0.6,-1.7033472184384384,5895.789281226797
0.604,-1.6922945858806608,5896.146978313411
0.608,-1.6761370930379913,5901.608727755739
0.612,-1.6592574916374054,5899.209958393936
0.616,-1.6453876475360425,5904.252057093216
0.62,-1.6365647069250242,5900.585552732568
0.624,-1.6325523992839295,5899.15606555936
0.628,-1.6309252730791748,5899.172789955556
0.632,-1.6278442709585463,5896.142997528425
0.636,-1.619292114609736,5897.280885813628
0.64,-1.6023924150573379,5907.70784273099
0.644,-1.5764607964032884,5900.813157086436
0.648,-1.543538417468322,5901.312908773039
0.652,-1.508274816235826,5902.88459755238
0.656,-1.477138812950363,5907.809250278582
0.66,-1.4570473330046616,5899.594965184562
0.664,-1.4536604401181303,5895.7431715248285
0.668,-1.469793399477153,5908.6300897897645
0.672,-1.5044930974778954,5908.568268564355
0.676,-1.5531564890530654,5909.334059673038
0.68,-1.608672688210199,5900.36478824713
0.684,-1.6631640964078631,5903.897700155057
0.6880000000000001,-1.7096874020217747,5906.943719049993
0.6920000000000001,-1.7433331616676777,5894.718948862331
0.6960000000000001,-1.761527077350417,5889.023136641719
0.7000000000000001,-1.763792037885428,5900.275871625707
0.704,-1.7514297581787754,5903.49361654562
0.708,-1.7273667344549395,5894.841657280478
0.712,-1.6960396584178643,5902.6486895294265
0.716,-1.663044104251794,5908.917924113719
0.72,-1.6344120670180127,5906.616086342336
0.724,-1.6156212401826606,5898.0831001689485
0.728,-1.6105915098652785,5898.800270890986
0.732,-1.6209407960025513,5902.959646842382
0.736,-1.6456612111926576,5894.970813669602
0.74,-1.6811999509448103,5904.719013726603
0.744,-1.721841139026299,5898.929765403491
0.748,-1.7603818357101229,5901.5614041275785
0.752,-1.7892124014099668,5894.590595628588
0.756,-1.8017844723051861,5895.6040428546
0.76,-1.7941282017384919,5907.233350379132
0.764,-1.7659081760684583,5895.19959680185
0.768,-1.7206419852983568,5893.577136310709
0.772,-1.6649714242921714,5898.351962584648
0.776,-1.6071240873133341,5900.889828328491
0.78,-1.5549566546840383,5902.051618238237
0.784,-1.5141886521444186,5901.265265885276
0.788,-1.487426659037321,5899.393383209137
0.792,-1.4742418296777242,5899.440387721093
0.796,-1.4720671662251732,5900.2413458241335
0.8,-1.4773553360099163,5910.096653045671
0.804,-1.4865026776682013,5906.69575218144
0.808,-1.4964138908040026,5908.673517776868
0.812,-1.5049068543928816,5900.541621886942
0.8160000000000001,-1.5111378545816114,5892.468150319592
0.8200000000000001,-1.5159205287752247,5903.802459273658
0.8240000000000001,-1.5215772037695543,5906.577156166123
0.8280000000000001,-1.5310838725206941,5902.661124027335
0.8320000000000001,-1.5466861588391512,5908.11883133166
0.836,-1.5685597697930624,5896.498287492957
0.84,-1.5941792810539481,5896.1136063712365
0.844,-1.6187630873819296,5899.167630802778
0.848,-1.6366448557664692,5900.322055885676
0.852,-1.643007915642985,5901.220772415924
0.856,-1.6353570117183691,5898.482474875831
0.86,-1.614338501521892,5896.672888768411
0.864,-1.5837767196199661,5906.3052199314725
0.868,-1.5499116955683614,5897.827170999743
0.872,-1.5199218664319019,5896.818108890712
0.876,-1.5000398824878995,5907.268992101321
0.88,-1.4938294482445518,5892.907001954889
0.884,-1.5012525587722383,5908.651719083394
0.888,-1.518883552050768,5904.8010370078655
0.892,-1.5411162920635992,5901.48727579832
0.896,-1.5617776459962964,5904.425425636913
0.9,-1.5755128175251276,5895.0270575529385
0.904,-1.5786392621346168,5906.922824514701
0.908,-1.5695336954734096,5896.532794758727
0.912,-1.5487253546420845,5906.521719337823
0.916,-1.5187711964734867,5898.211661177326
0.92,-1.483895387665827,5893.787421137707
0.924,-1.449359737852824,5911.155047185348
0.928,-1.4205958437245108,5902.636032919367
0.932,-1.4022869912732532,5893.346608509794
0.936,-1.39770652426268,5901.271277389006
0.94,-1.4084834645168205,5900.844944263954
0.944,-1.4346377116761377,5904.522258118346
0.948,-1.4745762280242172,5902.407602733793
0.952,-1.5249711013073926,5902.559959074115
0.956,-1.5807842711374807,5896.366267240907
0.96,-1.6357512108632808,5898.028857000872
0.964,-1.6833293710535808,5899.836579611008
0.968,-1.7177914034127824,5889.896538525087
0.972,-1.7351190817900966,5898.377629454658
0.976,-1.7335946662030817,5896.249200357667
0.98,-1.7141871358091216,5893.325947586752
0.984,-1.680785918743876,5895.388814002781
0.988,-1.6401222496355858,5906.961025341303
0.992,-1.6010558037047762,5911.072833916268
0.996,-1.5729697119913593,5893.569979114711
1.0,-1.5633805459709562,5898.919894610201
1.004,-1.5754025179370368,5901.679122339058
1.008,-1.606056832045851,5901.818710051622
1.012,-1.6462819772351638,5892.326210647568
1.016,-1.68291477797346,5895.046651222473
1.02,-1.7021998281017547,5906.994027401931
1.024,-1.6938816576697515,5893.599499248959
1.028,-1.6547751962737365,5901.937126451537
1.032,-1.590809096558135,5902.045241458725
1.036,-1.5167767410752357,5899.962264735439
1.04,-1.4534475262427513,5897.888748120965
1.044,-1.422350927820239,5900.128144029479
1.048,-1.4392825186858758,5901.940298577524
1.052,-1.5080461271501886,5898.689594492758
1.056,-1.6159549870316394,5901.546873375321
1.06,-1.732315782988974,5900.658463807316
1.064,-1.8107529621335259,5900.762875606114
1.068,-1.7957945149700512,5902.057849546018
1.072,-1.6333816649313355,5904.71805201787
1.076,-1.2837468747498966,5907.276334736995
1.08,-0.7337516076792594,5895.975248053085
1.084,-0.004945931539582209,5904.062622046269
1.088,0.8460960194694223,5902.4685585934185
1.092,1.7368121418275846,5900.2442118992085
1.096,2.5754873077842393,5921.490083647398
1.1,3.2809320918267377,5919.838162683907
1.104,3.7986831902474476,5934.749593351969
1.108,4.1091237760220825,5946.8174787610615
1.112,4.226421231524648,5969.880152438948
1.116,4.190229674370029,5975.531276066909
1.12,4.053585677024567,5995.641175234229
1.124,3.8705088764537288,6013.679153854636
1.128,3.686055655875629,6023.3825979785415
1.132,3.530394887883485,6032.211083235231
1.136,3.4172250607073367,6048.195389807157
1.14,3.345846716258346,6053.306229610514
1.144,3.3056248449837504,6059.208863891827
1.148,3.281405138753449,6073.955157461901
1.152,3.2585591829750222,6080.36710285299
1.156,3.2266230746951834,6088.213704260695
1.16,3.180928250647644,6102.336534289668
1.164,3.122187329379764,6119.323129754263
1.168,3.054605092572961,6123.056085095757
1.172,2.983521187456083,6131.774372407051
1.176,2.913591709433062,6150.049794345845
1.18,2.8480208528456767,6156.774893002171
1.184,2.788669785702807,6157.687046610291
1.188,2.736458704424059,6160.773622713924
1.192,2.691557614518158,6180.3813926455405
1.196,2.653258208968755,6191.25518440819
1.2,2.6197784467545886,6198.76493109025
1.204,2.588348152671993,6211.416463993133
1.208,2.555760519028966,6216.700290941901
1.212,2.519279968458134,6226.513129426634
1.216,2.4775457150865314,6229.504185323068
1.22,2.4310512282954284,6235.9705162504215
1.224,2.3819359202863306,6259.564975514154
1.228,2.3331099305310823,6259.829282068044
1.232,2.2870439850367896,6267.4524162984935
1.236,2.244771932408013,6264.959916194766
1.24,2.2056209126992306,6286.525191028512
1.244,2.1678407736957896,6285.363474579751
1.248,2.1297947921889113,6295.365328308035
1.252,2.0910189344079346,6298.513414077749
1.256,2.052552959228529,6305.031823344907
1.26,2.0164645308129154,6302.039305098323
1.264,1.9850010849422175,6316.241654969634
1.268,1.9598834118197423,6319.289040488128
1.272,1.9419285390137877,6332.18923001954
1.276,1.930874579101784,6331.965204143849
1.28,1.9252527263965484,6339.578484307821
1.284,1.9222901250661164,6344.786601122105
1.288,1.9179327787710563,6361.005224772895
1.292,1.9071401023947983,6361.661269964509
1.296,1.8846115546345028,6363.25729109427
1.3,1.8459376286318572,6370.434564961269
1.304,1.7888529763756433,6367.461285085929
1.308,1.7140803397097861,6388.480814906813
1.312,1.6253721670983678,6385.453604841704
1.316,1.5287029871317928,6384.0136765365
1.32,1.4309733630763357,6392.026758271183
1.324,1.3388471561697568,6399.759287052878
1.328,1.2581991220866648,6397.205507332806
1.332,1.1941143410626835,6412.036714390386
1.336,1.1509174422286315,6406.616279690685
1.34,1.1317437708983604,6406.551258008569
1.344,1.1375951288139372,6414.75329671169
1.348,1.1662516582207534,6427.216624140035
1.352,1.2116248147874444,6424.763984339208
1.356,1.2641174412859242,6431.471312334499
1.36,1.312276900526131,6426.686974817631
1.364,1.3454927806036958,6428.30990808897
1.368,1.3568926999459463,6443.541157046608
1.372,1.3452684868193698,6447.422521765468
1.376,1.3151084193969615,6446.735935557068
1.38,1.274614723292212,6454.579123366672
1.384,1.2325543346260928,6457.52914913673
1.388,1.195342022972991,6451.663511733696
1.392,1.1655447891357955,6464.475378207859
1.396,1.1422041340758933,6465.446766270596
1.4,1.1225121359277945,6469.395666404366
1.404,1.1038676381071748,6471.738991111017
1.408,1.0853278076323114,6479.242508160749
1.412,1.0679007448957483,6481.152842183294
1.416,1.0537602773234334,6481.36078944026
1.42,1.0449494001240918,6479.714658097446
1.424,1.0422338689717157,6489.4121356957
1.428,1.0445176467291566,6492.6404133067
1.432,1.048885844131753,6489.697526142685
1.436,1.0511452141838653,6499.097963996029
1.44,1.0467380876791288,6503.645908035947
1.444,1.0319253025659123,6501.409031980089
1.448,1.0049972764624402,6499.978619761728
1.452,0.967096855110816,6500.910003184073
1.456,0.9222720071449457,6515.509787022693
1.46,0.8766504514903815,6513.425707829168
1.464,0.8369463968654496,6513.729616400245
1.468,0.808715391955607,6503.138486316995
1.472,0.7948392800969964,6511.845461639787
1.476,0.7946612480989811,6523.659347790369
1.48,0.8040279663939102,6510.149642473734
1.484,0.8162745458554002,6515.693668091462
1.488,0.8239318641115491,6518.050639876384
1.492,0.8206882200031222,6532.659443973203
1.496,0.8030215176849563,6538.633891636338
1.5,0.7710544863266855,6528.35029288265
1.504,0.7285111015262604,6524.062916175592
1.508,0.6819121690162854,6525.614649414193
1.512,0.6391866971302262,6528.031519073195
1.516,0.6078475443821907,6534.16481848878
1.52,0.5930063772161559,6539.275388669137
1.524,0.5957473498382315,6537.6931030757405
1.528,0.6125002063643131,6536.002580540942
1.532,0.6358554842973685,6544.158227650501
1.536,0.6567339842768197,6540.560994240449
1.54,0.6671795585377711,6552.351534947166
1.544,0.6626908164231046,6546.360762310418
1.548,0.6432393178465976,6548.666708662714
1.552,0.6127906932712139,6548.946499769001
1.556,0.5777595957952847,6554.4156507793605
1.56,0.5450629290236609,6547.336239200447
1.564,0.5203502790664857,6567.189104843896
1.568,0.5067851082176333,6564.259033660829
1.572,0.5045636438916611,6563.145472111215
1.576,0.5112339885321396,6556.287463833879
1.58,0.5227191394496303,6560.896511264741
1.584,0.5346904322907088,6568.407571211941
1.588,0.5437810107538431,6560.913274882223
1.592,0.5482868671168847,6560.6277360465165
1.596,0.5483384985801327,6568.108695266904
1.6,0.5457092351623127,6570.781658408567
1.604,0.5433386454648202,6561.100748455782
1.608,0.5444921607105768,6572.417611308784
1.612,0.5515390358777583,6568.669056216789
1.616,0.5646502947201525,6567.13085046241
1.62,0.5810077537016469,6578.242483756991
1.624,0.5950654735890574,6566.561002671243
1.628,0.599996785607941,6572.576408908782
1.632,0.589924670293723,6576.727156611228
1.636,0.5621334242236041,6571.502208459886
1.64,0.5183744783634783,6562.645395443572
1.644,0.4646820182017387,6581.879200212679
1.648,0.40970777226643323,6579.099632435834
1.652,0.36218099085401245,6583.837554367816
1.656,0.32840894200252074,6578.68807351843
1.66,0.3106758614368416,6578.548499507595
1.664,0.3070634108497525,6579.97729062356
1.668,0.31272042783124226,6584.666551048835
1.672,0.3220858809269544,6587.146799944486
1.676,0.3311823569059183,6583.577464706616
1.68,0.33902916608703637,6589.344212784611
1.684,0.347599811746592,6592.395586805737
1.688,0.360451783543118,6595.881685793016
1.692,0.38077233812687833,6586.181080756853
1.696,0.40973944047275884,6590.505795049295
1.7,0.44580879652007105,6585.334594236691
1.704,0.48508108908432973,6596.552032474232
1.708,0.5224846582278663,6580.38278203679
1.712,0.5532310349028084,6596.072328039608
1.716,0.5739791333654196,6602.395685820351
1.72,0.5833978557367338,6594.700497088349
1.724,0.5821325318792202,6587.948352668446
1.728,0.5723305751648626,6597.52462902491
1.732,0.5568992794554932,6598.849085240485
1.736,0.5386939819789696,6593.480227501867
1.74,0.5198551837014476,6599.076464961422
1.744,0.5014619901521921,6599.965104126011
1.748,0.48357909350169115,6591.771764871413
1.752,0.465677019587654,6603.735552830542
1.756,0.4472784233300599,6602.4703891779845
1.76,0.4285680715929003,6593.175511296597
1.764,0.4106978896789008,6601.44806102059
1.768,0.3956441725460458,6603.879630483278
1.772,0.3856694030099647,6600.260876614403
1.776,0.3826201170245809,6603.342117050599
1.78,0.38735402278697395,6600.202120904683
1.784,0.3994697632985967,6608.453637034568
1.788,0.4172983807646973,6603.927981752356
1.792,0.43800981031972075,6600.927521385427
1.796,0.4577913648467671,6602.407360551701
1.8,0.4722442083625346,6606.254395648976
1.804,0.4771885935280012,6606.672100667716
1.808,0.46984472124697557,6607.041311882787
1.812,0.4499793795774499,6600.852235556007
1.816,0.420400905707468,6610.162456274201
1.82,0.3864096728431089,6597.915545655654
1.824,0.3543605629427608,6600.413934597284
1.828,0.32994087760596097,6598.007747086731
1.832,0.3168016272355037,6605.081397458342
