时间(s),电压(V),幅值(高频80K)
0.0,-1.3113179527490941,5900.899521302046
0.004,-1.340147572946278,5899.830107585691
0.008,-1.3690633616937993,5898.892435316853
0.012,-1.3974837468503543,5901.991160478425
0.016,-1.4250201182104851,5886.9922457740695
0.02,-1.4514807852076528,5900.338880060379
0.024,-1.4766768720006271,5901.658455790808
0.028,-1.500169389621366,5897.443999266081
0.032,-1.5211664393488173,5902.777214568456
0.036,-1.5386860113115972,5907.412438226265
0.04,-1.5518856836124646,5891.050804690391
0.044,-1.5603277033754595,5902.999276691686
0.048,-1.5640597046100357,5896.895254898323
0.052,-1.5636172312846401,5898.862291372845
0.056,-1.5600728351907438,5894.467381279043
0.06,-1.555008438554163,5899.199594327783
0.064,-1.550149211464344,5902.011037739364
0.068,-1.5466798056097715,5894.384032495934
0.072,-1.5446932962168385,5909.383035087237
0.076,-1.5432556723688435,5899.922327492608
0.08,-1.5411215060454109,5901.246464636244
0.084,-1.5376609893715232,5902.732113069736
0.088,-1.533461463727182,5900.772093416861
0.092,-1.530328745869597,5906.650747892245
0.096,-1.5307383788819833,5905.452826191947
0.1,-1.536952584699396,5903.006558131129
0.104,-1.550052807482292,5903.992610071851
0.108,-1.569174405602666,5894.151829812081
0.112,-1.5912683356885842,5894.6605339978005
0.116,-1.611617485660052,5898.857392591544
0.12,-1.625044869459817,5903.140562740503
0.124,-1.6274153371607054,5899.630270762941
0.128,-1.6168948214683545,5892.761376202482
0.132,-1.5945821013968,5900.149196456014
0.136,-1.5643912522741263,5902.582191694194
0.14,-1.5322197178553922,5907.289631044967
0.144,-1.5045223200736804,5901.918592001164
0.148,-1.486603378320135,5900.20957959387
0.152,-1.4811791433716655,5898.8145773707165
0.156,-1.4877458670883692,5895.27313090316
0.16,-1.5029149753021025,5898.76256363337
0.164,-1.5214589016651872,5907.080650518697
0.168,-1.5376660704201175,5904.875263908558
0.172,-1.5466843245872912,5898.527993077326
0.176,-1.5456256051857586,5895.134821494691
0.18,-1.5342382242894725,5901.674230156721
0.184,-1.514989139171911,5888.992577097719
0.188,-1.4925021218940342,5905.56574388322
0.192,-1.4724565569900743,5906.152352164936
0.196,-1.460189650860255,5897.053174268213
0.2,-1.4593208202412822,5904.332924136209
0.204,-1.4707487003552926,5896.106621113016
0.208,-1.4923386564909014,5887.8264342926
0.212,-1.51944747561567,5894.644096298164
0.216,-1.546131686543591,5903.075977248816
0.22,-1.5666354905220965,5907.547376297557
0.224,-1.5767330373952069,5896.681028130725
0.228,-1.5746530786301995,5901.30133922218
0.232,-1.5614444472641404,5897.698770591341
0.236,-1.5407014601138662,5901.117950271362
0.24,-1.5176653672034346,5902.626924977231
0.244,-1.4978934718449817,5898.554375990283
0.248,-1.4858732197724904,5896.91967337168
0.252,-1.484036500864498,5899.866658639915
0.256,-1.4924927619805315,5894.792215976113
0.26,-1.5094882912935383,5903.154559121051
0.264,-1.5323052761464302,5891.061307161528
0.268,-1.5581835183205133,5900.453182359589
0.272,-1.5849067175635791,5892.24654929293
0.276,-1.6109144282979064,5898.551086371169
0.28,-1.635069259148686,5895.293428928561
0.284,-1.6563596930492277,5903.525845210961
0.288,-1.6737835730793336,5894.60298530306
0.292,-1.6864972639704028,5904.259820354839
0.296,-1.6941187693947253,5902.471418502335
0.3,-1.69694044004854,5904.934057708684
0.304,-1.6958487314614514,5899.251848515296
0.308,-1.6919505382766866,5889.280538008786
0.312,-1.686092302527608,5902.275214507112
0.316,-1.6785010565189247,5900.737294534191
0.32,-1.6687241289796777,5899.027679054385
0.324,-1.65595473558899,5899.118386992584
0.328,-1.6396596954466582,5896.825580702146
0.332,-1.6201975993419928,5895.132396732872
0.336,-1.5990148164920819,5899.29106368653
0.34,-1.578195401017978,5902.592146589036
0.344,-1.5595744795796413,5899.7458498886745
0.348,-1.544000555426945,5897.2746008076265
0.352,-1.531280741783821,5910.03296097997
0.356,-1.5208439282501636,5903.700268066838
0.36,-1.5126273220709479,5901.5449615795
0.364,-1.5075410452501665,5892.8010541791855
0.368,-1.507165193996632,5898.057141824864
0.372,-1.5128715390688916,5900.805153264838
0.376,-1.524958077344683,5902.825291818182
0.38,-1.5423202181474198,5892.409175704823
0.384,-1.5627442031414163,5904.624333714244
0.388,-1.583526333819463,5897.969033342083
0.392,-1.6020741470359379,5900.823829707573
0.396,-1.6163258122035302,5893.913336628032
0.4,-1.6249875761572987,5902.272700871042
0.404,-1.6276339344188948,5901.6442534720345
0.408,-1.624691340146098,5898.127506924534
0.412,-1.6172959641579974,5909.574825665111
0.416,-1.6070001428013554,5894.563370829652
0.42,-1.595334509284829,5898.007261095861
0.424,-1.583344887510965,5910.641495892143
0.428,-1.571340129681205,5899.408879975725
0.432,-1.5590451869599744,5897.8427208858175
0.436,-1.5461075276698037,5899.221775700441
0.44,-1.5326539866318862,5902.067110560473
0.444,-1.5195733257986879,5898.694847654595
0.448,-1.5083817738861884,5895.467631314886
0.452,-1.500714973093136,5891.54543998442
0.456,-1.497628081176452,5901.055218500407
0.46,-1.4990402421024207,5901.720421163357
0.464,-1.5037008068042466,5898.227747648107
0.468,-1.5097666453085408,5889.364595984772
0.472,-1.51561484912585,5907.1837268169165
0.476,-1.520336053680389,5897.493978775671
0.48,-1.5236411361672806,5906.236275440955
0.484,-1.5253708117883866,5889.509809649598
0.488,-1.5250558506239618,5900.002858883273
0.492,-1.5219036371039336,5895.492351185019
0.496,-1.515256596936442,5902.272105320114
0.5,-1.5051976517293422,5894.602126593831
0.504,-1.4928605163960171,5902.725175883095
0.508,-1.4802618386997826,5899.667733710946
0.512,-1.4698648465272983,5894.408589696902
0.516,-1.4642069502711252,5898.054004909658
0.52,-1.4656715128628972,5903.677556289694
0.524,-1.476185720079508,5902.2701446194405
0.528,-1.496647233145536,5892.96774024186
0.532,-1.526193511230342,5892.736546947022
0.536,-1.5617006080389786,5891.666756172459
0.54,-1.5979185644867822,5902.644378677673
0.544,-1.6284402989823967,5907.784950213482
0.548,-1.6473471320167603,5889.351640776165
0.552,-1.6509956478550305,5897.531953106911
0.556,-1.639220816638459,5901.150031499537
0.56,-1.6154079514926045,5886.530948586738
0.5640000000000001,-1.5853756986553578,5910.827740853483
0.5680000000000001,-1.5555439259100912,5901.012720397429
0.5720000000000001,-1.5311523022170672,5898.05437376743
0.5760000000000001,-1.5152036795879114,5897.799418353142
0.58,-1.5083841514939984,5892.513990124879
0.584,-1.5097127095000846,5902.983600287971
0.588,-1.5174023422685996,5907.402563382241
0.592,-1.5294873206847044,5900.700001448972
0.596,-1.5440507414500506,5892.208805118675
0.6,-1.5591480507889468,5897.7772687768565
0.604,-1.5726436971503082,5905.82985116382
0.608,-1.5821719396001337,5902.160242451081
0.612,-1.5853605357926184,5900.546334574439
0.616,-1.5803450435896442,5904.499189130369
0.62,-1.5664579034452955,5900.405968455021
0.624,-1.5448565026614274,5892.824398752175
0.628,-1.5188281397409709,5898.112146343915
0.632,-1.4935716289436267,5890.757412778388
0.636,-1.475375821949021,5897.422740065103
0.64,-1.4702936903251436,5899.707663702622
0.644,-1.4826047061832748,5897.595457446657
0.648,-1.5134828429788632,5894.1816167682
0.652,-1.560285534697219,5902.974435219514
0.656,-1.6167339636732727,5896.336990672004
0.66,-1.6740074265830023,5900.018134488706
0.664,-1.7225247964789778,5892.720570039988
0.668,-1.7540063138589908,5906.06176413231
0.672,-1.7633122266060874,5895.731298949802
0.676,-1.7495725083924427,5903.449163789484
0.68,-1.716289600552835,5898.409571067361
0.684,-1.6703757683543916,5898.771477042651
0.6880000000000001,-1.6204009344718941,5899.727721322724
0.6920000000000001,-1.5745966178045994,5903.569218320554
0.6960000000000001,-1.539248205647299,5897.262829950026
0.7000000000000001,-1.517887885355362,5900.278178510234
0.704,-1.5112860339277676,5895.035182494532
0.708,-1.5179350949649617,5892.678980212971
0.712,-1.5346999147182199,5903.661899078203
0.716,-1.5574711658665479,5896.391482215574
0.72,-1.5817958884636854,5904.874346549302
0.724,-1.6034697287854527,5903.597638017148
0.728,-1.6190289913292448,5903.913409074984
0.732,-1.6260885007910155,5894.458787317193
0.736,-1.6235356078797691,5897.831565124152
0.74,-1.6116314966866694,5895.18942169006
0.744,-1.592040120549551,5896.871760776327
0.748,-1.5677279006590612,5895.751293079996
0.752,-1.5426260895159998,5903.051185875735
0.756,-1.5209925561036364,5897.42172336116
0.76,-1.5065525653698477,5901.18307832276
0.764,-1.5016436779591718,5901.430389988614
0.768,-1.5066369147179397,5901.2102182422495
0.772,-1.519840291202026,5891.422985100051
0.776,-1.5379316999357295,5890.41648878553
0.78,-1.556753284726553,5890.281258556225
0.784,-1.5721598806660226,5902.118555239184
0.788,-1.5806713414769096,5900.975016909495
0.792,-1.5798660056325025,5900.058565011846
0.796,-1.5685943668577393,5896.521219545247
0.8,-1.5470985492592157,5907.957650901039
0.804,-1.517040607772365,5895.546289544086
0.808,-1.4813804415207166,5894.193505808467
0.812,-1.4440616587763218,5906.335725548575
0.8160000000000001,-1.4095234684793407,5902.323477499621
0.8200000000000001,-1.3821075716518423,5906.232240685868
0.8240000000000001,-1.3654677210718944,5904.955967434497
0.8280000000000001,-1.3621044017367303,5907.026285072112
0.8320000000000001,-1.3730906532669858,5895.111135590534
0.836,-1.3979321739602968,5903.62486463694
0.84,-1.4344452391298081,5887.448453865503
0.844,-1.4786661682898021,5902.44963333612
0.848,-1.5250168742923054,5894.664997843557
0.852,-1.5669799123238457,5896.020951056952
0.856,-1.5983173654364489,5900.512939850198
0.86,-1.6145614716022236,5900.886047121845
0.864,-1.6142661667604978,5899.439368635627
0.868,-1.5994724089544272,5905.022383323683
0.872,-1.5751142133362706,5895.680060284306
0.876,-1.5475555275383752,5905.063446090986
0.88,-1.52278803984708,5908.553907322895
0.884,-1.5048750641713105,5897.063512712735
0.888,-1.4950929853926227,5906.934179034325
0.892,-1.4920123912949854,5898.240728139507
0.896,-1.4924738564862947,5895.158572845746
0.9,-1.4930755472693014,5896.915194581191
0.904,-1.491561190798569,5916.869517501686
0.908,-1.4875599494698606,5899.634301220333
0.912,-1.4824950339923832,5905.032882941417
0.916,-1.4788993226386105,5900.47959216419
0.92,-1.479553721538044,5898.706038125309
0.924,-1.4867601481329025,5902.244207539616
0.928,-1.5018760063220626,5900.502413176206
0.932,-1.5251141823453975,5896.2631964266775
0.936,-1.5555554443439215,5907.254525160538
0.94,-1.5913137333695078,5907.208094779735
0.944,-1.6298251204948582,5899.558238530804
0.948,-1.6682410180661684,5903.943180881823
0.952,-1.703856552289091,5911.073887889482
0.956,-1.734455386894527,5900.741736552937
0.96,-1.7584829015834544,5899.970910497915
0.964,-1.7750381650917877,5897.412635585998
0.968,-1.7837283388758371,5897.515315454964
0.972,-1.7844768847418524,5909.180300638933
0.976,-1.777428460466527,5900.18736826748
0.98,-1.7630450861466707,5899.917767883717
0.984,-1.7423123431007563,5909.25771241646
0.988,-1.716849973409271,5903.223634648674
0.992,-1.6888002955432204,5896.320441108936
0.996,-1.6605486089442099,5898.711802649761
1.0,-1.6344100862887407,5903.292840339359
1.004,-1.6123616165820183,5895.507421046256
1.008,-1.5958160374515804,5908.18733571127
1.012,-1.585412140446652,5895.152585747059
1.016,-1.580847129145159,5898.215702702932
1.02,-1.5808843200084215,5898.184127861612
1.024,-1.583699619497285,5901.811007623455
1.028,-1.5875445923941756,5907.312715818828
1.032,-1.5913986317758846,5900.432180757867
1.036,-1.59518336664295,5904.85267603266
1.04,-1.5993932311809902,5902.262194423367
1.044,-1.6044163987289335,5903.600475222343
1.048,-1.6099821717573115,5898.518288091106
1.052,-1.614982877770721,5895.79936420914
1.056,-1.6176298436243235,5898.628545829916
1.06,-1.6157643689737708,5901.425117771985
1.064,-1.6072193435598456,5905.915211857636
1.068,-1.5902930930507484,5892.0475374159305
1.072,-1.5644151977237353,5900.520386647515
1.076,-1.5308497562082042,5900.913508009589
1.08,-1.4930108906077182,5909.664800816364
1.084,-1.4559859208394879,5897.967305524175
1.088,-1.425261733174501,5896.0370794172895
1.092,-1.4051633361456257,5902.917238544161
1.096,-1.3977259576169558,5900.106756939389
1.1,-1.402452585008396,5894.591595947335
1.104,-1.4168877053225943,5900.417112144853
1.108,-1.4375590777661869,5902.5007392840425
1.112,-1.460804245101591,5898.716587185839
1.116,-1.4832315029163552,5898.908340266951
1.12,-1.5018727626727926,5906.917455270389
1.124,-1.5142982984479125,5897.804847990364
1.128,-1.5189476065560894,5903.72589548467
1.132,-1.515655015057866,5893.934352884153
1.136,-1.506025381502621,5900.573229336212
1.14,-1.4932672822448665,5900.886753566912
1.144,-1.4813824585961335,5912.191746124812
1.148,-1.473992012863076,5890.627856893934
1.152,-1.4732974572457123,5897.663441923688
1.156,-1.479644041595275,5891.190186950455
1.16,-1.4918944816591782,5897.924796033347
1.164,-1.5084189819484117,5892.352648271906
1.168,-1.5281555730910437,5894.53077245735
1.172,-1.5511334187877288,5903.790177044719
1.176,-1.5781663495589113,5901.1758785793045
1.18,-1.6099129957552458,5904.585044613829
1.184,-1.6458288221419002,5894.329270351201
1.188,-1.6835475829164632,5895.020343491783
1.192,-1.719019670356604,5894.654760688752
1.196,-1.7474288800787572,5909.166763182864
1.2,-1.7645589602220786,5903.867523832705
1.204,-1.7680172382319304,5907.407035994052
1.208,-1.7577728379766497,5890.9285959191775
1.212,-1.735864966266513,5898.676455945654
1.216,-1.7055851277857066,5899.940131415861
1.22,-1.670603683098272,5897.118842757041
1.224,-1.6343473894127005,5892.355220692248
1.228,-1.5996624219590945,5894.705958638368
1.232,-1.568660883786501,5897.587240029226
1.236,-1.5426902073616633,5905.776695220929
1.24,-1.5224350440216852,5895.597096938118
1.244,-1.508126428964902,5893.620784219437
1.248,-1.4997255096004332,5896.746502228446
1.252,-1.4969192783069585,5904.272821290975
1.256,-1.4989090634054483,5893.424358158085
1.26,-1.504207497698736,5900.610509891585
1.264,-1.5107720169534673,5900.841746161726
1.268,-1.516631825235854,5903.087112185501
1.272,-1.5208021934683238,5904.472554752148
1.276,-1.524039131875999,5896.122669251729
1.28,-1.529062018537694,5912.782390158994
1.284,-1.5401051717053476,5902.77126672566
1.288,-1.56179473173803,5895.483451068618
1.292,-1.5973547344824126,5892.661196509101
1.296,-1.6461837162563682,5905.914084834109
1.3,-1.7010676012523667,5895.48225520776
1.304,-1.745756186183146,5898.415836625447
1.308,-1.7541499983204207,5909.028857207828
1.312,-1.6924890823041872,5909.361765176452
1.316,-1.5253082249761485,5904.873542580376
1.32,-1.2245391718112504,5898.449484351268
1.324,-0.779502969623402,5897.273246981052
1.328,-0.2043937511325288,5895.296269340622
1.332,0.46010852618906195,5896.717214688509
1.336,1.152886864400944,5887.4949025421
1.34,1.8050551719140924,5903.029767042967
1.344,2.355300201075005,5929.081737710196
1.348,2.7626823695034255,5941.296701404924
1.352,3.0129219782560104,5959.127189418261
1.356,3.117118214057184,5982.31367340457
1.36,3.1046855612596134,5989.117153438773
1.364,3.0137672994556954,6017.44211709745
1.368,2.8822679439054437,6033.580887162549
1.372,2.741498269838294,6050.9726774672
1.376,2.6130757502295476,6063.615996289957
1.38,2.5087190159428086,6084.741886912139
1.384,2.4320040898687414,6085.411534920368
1.388,2.3809390711726173,6105.133854918955
1.392,2.350375356778887,6127.61173078539
1.396,2.3337498466514623,6139.97964415139
1.4,2.3241733340747013,6146.233298453415
1.404,2.3151582040028944,6155.361533969706
1.408,2.3012417612300093,6177.553106044729
1.412,2.278544705312121,6182.000651705898
1.416,2.2451162456611313,6200.428116041353
1.42,2.2009141754379558,6216.636981892408
1.424,2.14744087134766,6221.273029221311
1.428,2.0872238536930072,6232.320707470888
1.432,2.023325903073001,6244.85302460632
1.436,1.95893845584967,6261.007414328638
1.44,1.8970387234589254,6266.710804638329
1.444,1.840151124929721,6284.263587202238
1.448,1.7903103173324892,6299.708264838945
1.452,1.7492101333341161,6303.179306146199
1.456,1.7183034409560358,6318.433013772623
1.46,1.6985680269801124,6327.507327787822
1.464,1.6899126484330633,6325.340375666031
1.468,1.6905450834551625,6341.42209045622
1.472,1.696731837984161,6359.022440626862
1.476,1.7031820053296254,6368.944003118039
1.48,1.703985067493216,6367.821829365024
1.484,1.6938357995579327,6392.370231856774
1.488,1.669253345725557,6385.062738345705
1.492,1.6295613128650788,6397.611892913305
1.496,1.5774227163730385,6405.386845266072
1.5,1.5187074710492303,6415.332981383998
1.504,1.4615107123023112,6421.100798704457
1.508,1.4143404521233538,6441.077888746488
1.512,1.3838608418139358,6440.129842088531
1.516,1.3729274220023266,6443.968046851531
1.52,1.3796693446958446,6460.599609727015
1.524,1.3979711224731928,6459.918723095338
1.528,1.419177536215087,6473.546804482817
1.532,1.4344806986479834,6477.567455008045
1.536,1.437246652491046,6492.185517444863
1.54,1.4245044107746738,6490.522675889066
1.544,1.3971366322237697,6502.256161644172
1.548,1.3589413882735135,6511.340118622846
1.552,1.3152268324353698,6520.65098545398
1.556,1.2715719776159682,6520.084000307734
1.56,1.2329812860645775,6512.528078077125
1.564,1.2033358389213487,6533.873775039214
1.568,1.1850155946221457,6541.810707618281
1.572,1.1786588750328109,6549.317203910238
1.576,1.1830477647393733,6547.236018262999
1.58,1.195125151432215,6550.990815563493
1.584,1.2102459049841174,6558.672939045849
1.588,1.222822871824727,6559.763141997952
1.592,1.2274175257978197,6567.555023857941
1.596,1.2201082105960723,6578.07003572759
1.6,1.1997750443304596,6582.540559725285
1.604,1.1688222611748447,6585.79392162041
1.608,1.1328778401359767,6592.431919313785
1.612,1.0992943919825244,6595.817973948881
1.616,1.0748245126357787,6603.0612378697415
1.62,1.0633419260367065,6605.24626523809
1.624,1.0645236202308823,6602.275816833919
1.628,1.0739574928840492,6608.595853797822
1.632,1.0845379541931075,6627.559485271723
1.636,1.0885964576623328,6614.648887906238
1.64,1.0800943657812379,6626.589996638054
1.644,1.0563016240421772,6629.048275416584
1.648,1.0185414479569583,6628.833724667335
1.652,0.9717600749807994,6641.608297759312
1.656,0.923004823305259,6644.568084345758
1.66,0.8793447267657262,6651.572050296828
1.664,0.8460296261438688,6646.019173667739
1.668,0.8255094751071721,6652.67734972789
1.672,0.8174638192728599,6663.9372459267
1.676,0.8195575888863602,6660.672938444198
1.68,0.8284666874624583,6659.429675817469
1.684,0.840797964245981,6670.878466932022
1.688,0.8536869940770463,6659.005702520127
1.692,0.8649751135786952,6673.417392118296
1.696,0.8730075710509543,6679.3217740844575
1.7,0.8762927008023333,6687.029286132582
1.704,0.8733608090475651,6683.265967738324
1.708,0.8630213335465202,6679.2898270469705
1.712,0.8449265045471529,6691.219310216289
1.716,0.8201142813755685,6690.628986986174
1.72,0.7911615222243539,6693.469098724264
1.724,0.7617597549524213,6699.273834769822
1.728,0.7358322800172018,6692.122717734375
1.732,0.7165325516681892,6701.940584799501
1.736,0.7054577222789602,6711.79649548629
1.74,0.7022587560267182,6704.115526621341
1.744,0.704702868443322,6712.8825742677145
1.748,0.7091939363719899,6712.854657265301
1.752,0.7117077523973713,6716.469797211593
1.756,0.7089801248190009,6711.736390404195
1.76,0.6996121147935062,6716.820271079463
1.764,0.6846604612365341,6726.930083390373
1.768,0.667414105295299,6717.206288848098
1.772,0.6523986702574449,6726.8712681869965
1.776,0.6439922226381203,6722.573412954343
1.78,0.6451845608179643,6732.276030910137
1.784,0.6569029353286039,6737.793151646015
1.788,0.6780044798462099,6738.5396443825775
1.792,0.7056927736365364,6730.357047598939
1.796,0.7360203717939845,6751.05079032532
1.8,0.7643380667123961,6742.047801195362
1.804,0.785786773305973,6746.118838209755
1.808,0.7959621092243426,6740.165507190231
1.812,0.7917469335336076,6735.353162657455
1.816,0.7721552339402499,6746.381551590233
1.82,0.7389361205064581,6748.57099774662
1.824,0.6966723235428274,6752.869045352012
1.828,0.6521910544462158,6753.019380408068
