时间(s),电压(V),幅值(高频80K)
0.0,-1.483267244669651,5893.087881275923
0.004,-1.4850295953121397,5890.847066787326
0.008,-1.477937665212972,5907.810203223472
0.012,-1.4557577536420978,5897.031325262013
0.016,-1.4168363529406454,5903.217860638021
0.02,-1.365279918405678,5899.029129548574
0.024,-1.3103494860141416,5900.801291952923
0.028,-1.2638859604567823,5894.455591659125
0.032,-1.2365958132335189,5901.590309975236
0.036,-1.2346152481635544,5892.937727262813
0.04,-1.2575650428810332,5896.226057329331
0.044,-1.2986156253090277,5896.874241893118
0.048,-1.3464136365825705,5903.938059163209
0.052,-1.3882555713812856,5904.1226541346
0.056,-1.4135373838886853,5895.118507726727
0.06,-1.4163509030751669,5907.96884067117
0.064,-1.3964148233863425,5907.4574360155175
0.068,-1.3582735848551841,5901.141823434676
0.072,-1.3093867162412551,5887.579128863675
0.076,-1.257952081118718,5904.479488663679
0.08,-1.2110846351160243,5902.368250018959
0.084,-1.173617459742616,5897.208668801012
0.088,-1.1475801461283741,5898.588831742107
0.092,-1.1323805998540057,5890.530031949282
0.096,-1.1256699737707025,5888.820749119408
0.1,-1.1246408664532448,5901.854313230958
0.104,-1.1272495825668332,5894.906900221689
0.108,-1.132872856481911,5899.479740789581
0.112,-1.142228911380538,5903.731542366009
0.116,-1.1567081663452128,5900.47947155862
0.12,-1.1773861221212156,5893.3950109682255
0.124,-1.2040495102900954,5897.640823806184
0.128,-1.2346243362662666,5899.100594077493
0.132,-1.2653068533730765,5907.232542546273
0.136,-1.2914340408543559,5900.857377297057
0.14,-1.308859386969514,5894.295340363123
0.144,-1.315418123281367,5889.596158384407
0.148,-1.3119736877596708,5899.149487343064
0.152,-1.3025993370524076,5896.053650944364
0.156,-1.2936951814094284,5891.3783012130725
0.16,-1.2921686478754693,5899.048395079273
0.164,-1.3031366560271194,5901.198896367803
0.168,-1.3279126178288876,5912.875833665374
0.172,-1.3631445891873017,5897.284915560513
0.176,-1.4016082068996811,5906.519194820042
0.18,-1.4343766276168726,5909.282783982956
0.184,-1.4534010153331058,5903.5807939481
0.188,-1.453478444296249,5896.3271118883085
0.192,-1.4331546053541422,5892.349106109095
0.196,-1.3947439453076127,5897.4990720888245
0.2,-1.343832600172423,5893.943161090825
0.204,-1.288403644257244,5901.973976885709
0.208,-1.237521584008119,5900.90179538238
0.212,-1.1995978678185497,5902.122941317713
0.216,-1.1805165569399738,5900.31272552601
0.22,-1.1820923334453495,5905.613983437956
0.224,-1.2013672419602557,5899.719751928619
0.228,-1.2311352393190635,5907.834041585773
0.232,-1.2617662877186229,5899.57996435018
0.236,-1.2838708745534577,5901.496743993767
0.24,-1.290869212864377,5902.327857649026
0.244,-1.280526044031969,5901.081327827295
0.248,-1.2550402158752523,5899.745308060536
0.252,-1.2199128764055207,5894.872027014631
0.256,-1.1821662081187927,5905.29972976394
0.26,-1.148536239440525,5901.6260961154585
0.264,-1.1241401546356067,5899.611453465223
0.268,-1.1118400905716774,5890.022082237995
0.272,-1.1121860536309447,5897.07509684983
0.276,-1.1236648380931678,5900.338579819221
0.28,-1.1430962610620738,5894.73196276676
0.284,-1.1661929866706664,5896.276988123919
0.288,-1.1883350544393614,5890.4194647970735
0.292,-1.205520733047794,5901.382467370478
0.296,-1.2153237258993843,5902.436869142136
0.3,-1.217565760485981,5900.89008464347
0.304,-1.2143947147773522,5904.821912628384
0.308,-1.2096215451321832,5898.976110723158
0.312,-1.2074635148281765,5899.791444231001
0.316,-1.2111133130194898,5897.27508181563
0.32,-1.2216649994134892,5904.094666349276
0.324,-1.2378201343696418,5900.705599002627
0.328,-1.2564967642749287,5903.269393191218
0.332,-1.274073594605987,5900.229275187139
0.336,-1.287708303370785,5906.611532508694
0.34,-1.2961752858387388,5906.501758915279
0.344,-1.2999961145643308,5899.94379826782
0.348,-1.301027384914251,5897.920828068144
0.352,-1.301817590923451,5891.147031800824
0.356,-1.3049148637548835,5896.832562352142
0.36,-1.312154626714226,5900.337956496573
0.364,-1.3240014087829006,5905.129808667184
0.368,-1.3391880025692164,5895.329158859649
0.372,-1.3549319855576814,5905.599774057451
0.376,-1.3677986127984127,5899.415553704743
0.38,-1.3749633943287474,5895.549839755607
0.384,-1.37541317395932,5900.8105356959295
0.388,-1.370569705892338,5905.348777253868
0.392,-1.3639282747104906,5896.933264665925
0.396,-1.3596682963990954,5891.877855590491
0.4,-1.3607637410023044,5890.175688319125
0.404,-1.3675122068360268,5902.939555068588
0.408,-1.3772591391027378,5893.705175890587
0.412,-1.3855012396036628,5903.672799518359
0.416,-1.387883725673184,5892.595518829004
0.42,-1.382200350975243,5901.221629982022
0.424,-1.369545921864713,5900.063033232727
0.428,-1.3541990433494895,5907.315823329142
0.432,-1.3423228329067214,5895.358262891262
0.436,-1.3398925016489733,5911.201726612324
0.44,-1.3504192846469405,5904.593178685977
0.444,-1.3731936017476445,5902.240258400487
0.448,-1.402840038162978,5898.131126015922
0.452,-1.4306821999104664,5900.53705913226
0.456,-1.4476539204607755,5897.753383780852
0.46,-1.4476071152380485,5890.1480702771
0.464,-1.4294942028644504,5897.425610978154
0.468,-1.3974381337093067,5905.090611737755
0.472,-1.3588316283290727,5897.541759052879
0.476,-1.321537251538618,5898.412940474065
0.48,-1.2914568826021247,5893.79230959996
0.484,-1.2712859497828655,5897.879481017951
0.488,-1.2605865637553362,5899.69472969772
0.492,-1.2567885860172787,5905.67566502019
0.496,-1.2565393234552447,5896.915984182422
0.5,-1.25690336573615,5893.737437265411
0.504,-1.2560777271880048,5897.839622091017
0.508,-1.253484633664967,5903.236868872143
0.512,-1.2493915503090844,5901.995714923409
0.516,-1.2444517881007189,5895.3468077470725
0.52,-1.2394981479965212,5897.2150413008485
0.524,-1.2355801466305627,5898.627685484461
0.528,-1.233961880674342,5903.208315613365
0.532,-1.2358518052253276,5895.101383646008
0.536,-1.241921948133043,5892.03726561435
0.54,-1.2518944940858021,5901.231282648972
0.544,-1.2644439231855198,5899.61443161635
0.548,-1.2774588729693948,5898.050422885675
0.552,-1.2885290745390254,5889.273056002593
0.556,-1.2954771263844935,5896.253803073608
0.56,-1.2968161047835163,5890.848163646434
0.5640000000000001,-1.2921001952049984,5895.145411629821
0.5680000000000001,-1.2821608860631206,5895.073690556384
0.5720000000000001,-1.2691544852952115,5900.425542833033
0.5760000000000001,-1.2562763451349888,5908.339921762049
0.58,-1.2470625156733945,5901.5147561512695
0.584,-1.244410382503158,5903.156802357154
0.588,-1.249640924382581,5903.802989024724
0.592,-1.2619506725945624,5902.42213780994
0.596,-1.2785023614596125,5905.801643340233
0.6,-1.2952709803682325,5907.4804039786495
0.604,-1.3085397768483145,5893.08553359659
0.608,-1.3165738516082957,5895.575071271338
0.612,-1.3206979517186643,5893.405025553778
0.616,-1.3251043746367643,5896.085290741409
0.62,-1.3352831600448163,5909.860206001983
0.624,-1.3556869525718616,5904.772347345093
0.628,-1.3876647611568032,5892.241850608992
0.632,-1.4285636579340633,5893.145186132661
0.636,-1.4723312554758166,5904.210101094277
0.64,-1.5113296189452448,5895.921653621869
0.644,-1.5386721926121194,5896.211839661532
0.648,-1.5502651241291971,5904.186647108325
0.652,-1.5458505040653319,5903.168209156522
0.656,-1.5287207733527481,5890.50403014474
0.66,-1.5043044960984597,5895.013283663033
0.664,-1.4782455327623372,5900.439319010289
0.668,-1.4546877721177307,5896.309204000022
0.672,-1.435268259292421,5909.2233916126925
0.676,-1.419008357465413,5911.528025583055
0.68,-1.4030081617037633,5897.620090395576
0.684,-1.383616643957694,5907.904017051708
0.6880000000000001,-1.357629312243662,5903.317716967164
0.6920000000000001,-1.3231702634047338,5912.998979333084
0.6960000000000001,-1.2801808748474766,5900.389140329504
0.7000000000000001,-1.2305882537885038,5897.933184026264
0.704,-1.178147070643045,5904.653121341679
0.708,-1.1278620492248297,5898.41666233153
0.712,-1.0850261530223544,5901.732136357613
0.716,-1.054145092283726,5894.571041323306
0.72,-1.0380985280432464,5895.826495471464
0.724,-1.0377462579816752,5902.846622599628
0.728,-1.0519901746138858,5907.471592660977
0.732,-1.0781915567914298,5903.160119296232
0.736,-1.1127858849624928,5903.926572130526
0.74,-1.151880496416704,5895.226375169757
0.744,-1.1916490741414703,5893.582735581614
0.748,-1.2285123852974542,5897.457794468598
0.752,-1.25927092921559,5898.731971780215
0.756,-1.2813600092287938,5892.896302192238
0.76,-1.2932619323469523,5903.566892843919
0.764,-1.2949805372362366,5905.827579756284
0.768,-1.2884255130767917,5900.458221484268
0.772,-1.2775277673586416,5902.583880477699
0.776,-1.2678976254565886,5902.383421492661
0.78,-1.265919418924629,5901.463603488578
0.784,-1.277379550324961,5904.655110012061
0.788,-1.3059256127223386,5904.700624782536
0.792,-1.3517254374762486,5887.729133388738
0.796,-1.4106876860227127,5900.2136721131965
0.8,-1.474597847827093,5901.128500817043
0.804,-1.5324093032559172,5898.595755375802
0.808,-1.5725775800495212,5901.427156831858
0.812,-1.585858044347022,5907.430666024316
0.8160000000000001,-1.5677105840712497,5909.291750199851
0.8200000000000001,-1.519566468553491,5902.8011740130205
0.8240000000000001,-1.4486400091655633,5897.237391452811
0.8280000000000001,-1.3664514824232867,5905.816967741463
0.8320000000000001,-1.286531911130336,5899.751280576668
0.836,-1.2218610564069796,5907.172698946204
0.84,-1.1825500580873045,5899.294435436759
0.844,-1.1741724720414743,5899.866559331106
0.848,-1.196951376322388,5899.396290327534
0.852,-1.2457899364183478,5899.748175000834
0.856,-1.3110292718164263,5908.145712052231
0.86,-1.37985978771522,5898.958590686058
0.864,-1.4383637793363249,5898.368430477774
0.868,-1.474068097215397,5899.357860042318
0.872,-1.4786126166673188,5901.056040674055
0.876,-1.4498596934882313,5895.179644519023
0.88,-1.3927259056251355,5888.726252031994
0.884,-1.3183140773759463,5895.957098604289
0.888,-1.2414315974175147,5904.505283767225
0.892,-1.1770803477651144,5893.480489705589
0.896,-1.1368379747166066,5901.5745478763365
0.9,-1.1261271450714998,5904.94535893477
0.904,-1.143150430351487,5893.460149252766
0.908,-1.1797990275433037,5898.829348966354
0.912,-1.2242328374127633,5891.773906513573
0.916,-1.2642644889691492,5908.872363560766
0.92,-1.2904333651811177,5893.572480018541
0.924,-1.2978950783525283,5905.0936768378815
0.928,-1.2868361706127307,5903.261884592427
0.932,-1.261696294648574,5897.276925950019
0.936,-1.229741444249142,5903.164118177885
0.94,-1.1994356247169125,5891.076793059017
0.944,-1.1788221113232609,5907.315097363748
0.948,-1.1740096975419885,5894.902627808894
0.952,-1.187905858351888,5901.856112386356
0.956,-1.2194111838594475,5915.039760057743
0.96,-1.263303993440778,5905.191303817452
0.964,-1.3109951651237535,5896.68650004824
0.968,-1.352193862827197,5890.770638993476
0.972,-1.377282338426764,5900.711334053091
0.976,-1.37990367766542,5897.305727117519
0.98,-1.3590193703092455,5908.465306494449
0.984,-1.3196569128936002,5901.407285032271
0.988,-1.2718946862619904,5892.593061275183
0.992,-1.228266611719094,5899.303547872261
0.996,-1.2004034786191966,5896.063930157089
1.0,-1.1960086932785714,5891.485851297664
1.004,-1.2170502626738156,5901.514817074845
1.008,-1.2595046628700364,5904.768374645089
1.012,-1.3144616126129667,5899.321145884504
1.016,-1.3701370952500096,5900.924165261703
1.02,-1.414312304964788,5896.368228736224
1.024,-1.4367505780371181,5908.025539547218
1.028,-1.4311721629663585,5901.835835691215
1.032,-1.3964320040313671,5899.49478004853
1.036,-1.33670001589154,5898.033984137489
1.04,-1.2606728763039552,5898.684237873113
1.044,-1.1800418440567082,5910.625016815078
1.048,-1.1074986804071536,5901.5625896704605
1.052,-1.05454554845166,5909.252565896248
1.056,-1.0294228089975557,5902.96338146254
1.06,-1.0355520874971347,5901.093390526969
1.064,-1.070869087939907,5895.30553187
1.068,-1.1282661571624863,5900.5895222715935
1.072,-1.1971533482452272,5900.227494052109
1.076,-1.2659007815809624,5896.349711202041
1.08,-1.3246387824978276,5898.673652207102
1.084,-1.3676479347644486,5899.259351666736
1.088,-1.3945390844979526,5908.349351813519
1.092,-1.4097419723138525,5895.468082371898
1.096,-1.4204305769338217,5901.494849411965
1.1,-1.4336055239082819,5899.986191788606
1.104,-1.4533162694469743,5908.610170749831
1.108,-1.478908252149035,5904.934857848469
1.112,-1.5048740955066617,5893.504182835195
1.116,-1.5224223489149624,5903.321138485073
1.12,-1.5222760031484552,5888.961111394942
1.124,-1.4977204574849026,5893.726688800348
1.128,-1.4468563525115417,5902.484150974241
1.132,-1.3734157691225701,5899.704343554747
1.136,-1.2860946690485526,5901.371163317897
1.14,-1.1968026680593995,5906.656298277398
1.144,-1.1183687033995795,5899.288761551838
1.148,-1.0621604541165515,5902.852271044768
1.152,-1.0359838368312275,5900.639542016515
1.156,-1.042606273517966,5907.477449219399
1.16,-1.0792191107429747,5898.372950937404
1.164,-1.1380308915549429,5901.784853184816
1.168,-1.2079186735937186,5906.469101855905
1.172,-1.276712798322208,5893.869780988944
1.176,-1.3334634272824204,5898.447289613038
1.18,-1.3701392212353714,5907.354780478851
1.184,-1.3825735439447269,5902.965575573003
1.188,-1.3707878882696187,5900.416194774673
1.192,-1.338832979775838,5898.599311156191
1.196,-1.2940792795390321,5905.010623380146
1.2,-1.2458315982312054,5897.977731010856
1.204,-1.2034469825164265,5902.027008755588
1.208,-1.1745021648932579,5895.932188097825
1.212,-1.163544943577468,5902.648536562724
1.216,-1.1716111923907953,5899.165701228068
1.22,-1.1964078548225077,5901.880721397146
1.224,-1.2330246370550255,5903.144936509084
1.228,-1.2750725036454722,5902.619567195919
1.232,-1.316113808017953,5907.598123057603
1.236,-1.3511358336381698,5899.497540332801
1.24,-1.3776560657172028,5897.677508790414
1.244,-1.395985134171699,5896.923041288439
1.248,-1.408424060612739,5909.478610370811
1.252,-1.41769446607187,5897.769434793772
1.256,-1.4253399486430633,5902.233392468496
1.26,-1.4308657250772918,5902.887781815803
1.264,-1.4320011886429722,5896.484062989924
1.268,-1.42594852384409,5899.951766888714
1.272,-1.4110791387078994,5900.185024303567
1.276,-1.3883535497884871,5898.147159174554
1.28,-1.3617952629605785,5902.068867168857
1.284,-1.3376755078402283,5890.072306254458
1.288,-1.322601301618255,5897.618542110407
1.292,-1.3212128322476653,5903.977889063034
1.296,-1.334402664911979,5904.448935621306
1.3,-1.3587532528435866,5906.95625008255
1.304,-1.3874024738508275,5904.191648944608
1.308,-1.4120507033275267,5901.170141036474
1.312,-1.4254728598756634,5900.459748615526
1.316,-1.4237469971491898,5903.061469744405
1.32,-1.4074954573379015,5893.103238435552
1.324,-1.3817374667827163,5903.154884657412
1.328,-1.354378542821863,5899.027519107151
1.332,-1.3338051300534999,5893.233760440536
1.336,-1.3263666399435123,5893.320706007487
1.34,-1.334537911046986,5900.189429038922
1.344,-1.3562565738850971,5897.041662712658
1.348,-1.3855368106903887,5894.191366656814
1.352,-1.4141562502864609,5899.376914255174
1.356,-1.4339862118529958,5896.254343447768
1.36,-1.4393532215300684,5903.3818386188095
1.364,-1.4287664979507357,5901.229501551576
1.368,-1.4054918916525254,5893.204652066929
1.372,-1.3767473090931681,5901.586803339078
1.376,-1.3516695289796772,5903.679117677637
1.38,-1.3385929678377917,5896.808098032902
1.384,-1.3424391844065284,5907.900238121879
1.388,-1.363008138378994,5896.269924963815
1.392,-1.394716209756276,5904.004743175085
1.396,-1.4279374995359453,5894.145386772558
1.4,-1.4516362631907858,5899.682321854537
1.404,-1.4565602073361137,5897.648233266229
1.408,-1.438114974873272,5895.5548617205495
1.412,-1.398228270418125,5899.307506579715
1.416,-1.3458183727643533,5899.0137506744
1.42,-1.2956693535612347,5892.010973703074
1.424,-1.2656506935923388,5894.112422230824
1.428,-1.2725228709443817,5903.219188800635
1.432,-1.3270139742219906,5897.175196030801
1.436,-1.4291379182832709,5894.688085039357
1.44,-1.5647045588054684,5903.659784271549
1.444,-1.7038471736697485,5887.248871016291
1.448,-1.8023734129134068,5900.2003185446265
1.452,-1.806715717031589,5899.668517684171
1.456,-1.6628615685258157,5906.062371490965
1.46,-1.3285741053698061,5906.235311367337
1.464,-0.7865254456163002,5900.802444420756
1.468,-0.05432969414560026,5895.090196386406
1.472,0.8129927213602361,5907.794412726508
1.476,1.7309108773082662,5888.498040833588
1.48,2.6026773095375586,5900.977218832061
1.484,3.3408718555652808,5925.925257485049
1.488,3.8859808069192767,5931.678204660393
1.492,4.2162180589258575,5938.912749718598
1.496,4.346621399595807,5947.120828631726
1.5,4.319371560091517,5961.167699059839
1.504,4.189646308224718,5974.289470013756
1.508,4.0117036441540375,5985.214688921625
1.512,3.828674736238485,5987.525698114372
1.516,3.66759653408741,5998.913506670051
1.52,3.5394304042111964,6009.057439016981
1.524,3.4426884657212393,6017.503382411524
1.528,3.3688323852991986,6028.32832886367
1.532,3.30764289776915,6032.403068407104
1.536,3.2511589145755075,6044.580529883484
1.54,3.1954620150555924,6047.305241138709
1.544,3.140369735764538,6057.489537082004
1.548,3.0877562387654693,6070.451603045956
1.552,3.039524090022912,6064.749164109574
1.556,2.9961331992215854,6088.371406965436
1.56,2.956163651182087,6080.395064141577
1.564,2.9168779426938922,6101.299062569077
1.568,2.8753764311955625,6103.489022930552
1.572,2.8298007610422595,6115.972050592608
1.576,2.780093082532576,6124.627585419634
1.58,2.7280059555581007,6126.114680508197
1.584,2.6763552860225275,6131.33227041063
1.588,2.627825475466234,6139.493875048503
1.592,2.5837982019866774,6152.678632395419
1.596,2.543628222523883,6150.536832822352
1.6,2.504646216782132,6154.055947727366
1.604,2.462974117574236,6174.65052295372
1.608,2.4149344026786412,6172.559755010812
1.612,2.358518854059534,6177.208433013842
1.616,2.294287086778313,6185.328265089421
1.62,2.225283061360073,6184.732578172925
1.624,2.155984004131987,6191.969755173839
1.628,2.090734637472775,6198.914009868482
1.632,2.0323556520814052,6199.724978954688
1.636,1.9815262326169234,6207.159115721838
1.64,1.9371730788005261,6208.446119088523
1.644,1.897611424590789,6216.6928402524845
1.648,1.8617975131687556,6222.989722059809
1.652,1.8300175800557728,6219.19923467312
1.656,1.8037328212478116,6237.151466081226
1.66,1.7848264137975163,6245.725958198417
1.664,1.7747216381275233,6230.5921706118925
1.668,1.7736784530038299,6250.178319170293
1.672,1.7803480967343925,6240.850915470984
1.676,1.7916183965482038,6263.732964442579
1.68,1.8028412810997108,6263.16266006219
1.684,1.8085298286441023,6264.001551223696
1.688,1.8034871899010922,6271.831949628736
1.692,1.784123700483704,6279.676730619798
1.696,1.7495420437883482,6277.07524106649
1.7,1.7019611443669667,6280.692968370938
1.704,1.6462663033835643,6287.814537495015
1.708,1.5888185832929773,6288.477314924154
1.712,1.5359293425562646,6289.611048265084
1.716,1.4924742217865996,6289.019958806236
1.72,1.461000345961411,6301.75069854754
1.724,1.441451980975087,6309.797274912024
1.728,1.431419939013137,6300.873533034585
1.732,1.4267357959756424,6303.915545187493
1.736,1.4222814250845048,6303.892236876276
1.74,1.4129384704119021,6311.530071143545
1.744,1.3945876431678497,6318.371024299627
1.748,1.3650025220710003,6320.046396471119
1.752,1.324415684603967,6321.476531900606
1.756,1.27555906987464,6321.133067950985
1.76,1.2231513754013874,6324.762043689594
1.764,1.1730135674867093,6326.813319168402
1.768,1.131063968933457,6333.991115895813
1.772,1.1023519868432359,6326.371743653035
1.776,1.0901807188567294,6341.46363630537
1.78,1.0953791282121172,6338.447238895631
1.784,1.1158980116449344,6350.478702043989
1.788,1.1469832883887698,6341.367384393341
1.792,1.1820862405858037,6345.903937917782
1.796,1.214380183568633,6356.422389065553
1.8,1.238417164334913,6358.278855824353
1.804,1.2513139946633867,6351.298865461817
1.808,1.2530314752559908,6362.799375095778
1.812,1.245707786125253,6354.666484309697
1.816,1.232389813732343,6363.167408265199
1.82,1.2156784839602148,6363.663619853113
1.824,1.1967399700098547,6363.263510721734
1.828,1.1749577340042674,6366.920739299699
