时间(s),电压(V),幅值(高频80K)
0.0,-1.9284458361918602,5906.104830592227
0.004,-1.8232446906845876,5896.103544882335
0.008,-1.731091543151416,5900.218560121783
0.012,-1.6623170368054572,5898.9628562225535
0.016,-1.6228227148821597,5908.194009902529
0.02,-1.613166219359105,5894.019808906539
0.024,-1.6288092081274852,5900.210923466018
0.028,-1.6615336221062285,5894.547156444677
0.032,-1.7016568331886075,5900.351735143722
0.036,-1.7402850564643506,5891.881999790673
0.04,-1.770802952666752,5905.234847956806
0.044,-1.7892847823446034,5910.09681643283
0.048,-1.794186035894945,5900.18013547851
0.052,-1.785945104643129,5900.00526848007
0.056,-1.7667971134458205,5902.614642183264
0.06,-1.7405876636770745,5891.118170462649
0.064,-1.712224198799015,5901.201826076854
0.068,-1.686717052398299,5894.808310013295
0.072,-1.6681405520681978,5894.4024746159
0.076,-1.6589003399675826,5902.246557042582
0.08,-1.6594477971646475,5899.236135875152
0.084,-1.6683242868710164,5906.000014519634
0.088,-1.6823783039138696,5891.814107664947
0.092,-1.6971755177466197,5911.761087228808
0.096,-1.7077699339469623,5903.120307968527
0.1,-1.7098815690153446,5906.783484071534
0.104,-1.7012050184838696,5897.304891065745
0.108,-1.6823502721406598,5904.186123909023
0.112,-1.656954695696351,5898.996544790203
0.116,-1.6307633719998107,5895.724443261131
0.12,-1.6098717425548517,5902.95603476136
0.124,-1.598740753822324,5900.360751651892
0.128,-1.5988030347302615,5902.649920812634
0.132,-1.608257305716914,5898.731919343926
0.136,-1.6230429729537414,5900.495410932565
0.14,-1.6383947982192686,5889.410064531248
0.144,-1.6502258223113322,5897.768843986116
0.148,-1.6559260174669748,5900.046545799868
0.152,-1.654647116460082,5898.947246153208
0.156,-1.6473464029789526,5907.433709468671
0.16,-1.636659256546579,5895.490688671398
0.164,-1.6263842395978463,5887.326640591104
0.168,-1.620425391025366,5908.161516863899
0.172,-1.6214559782582851,5900.935215385731
0.176,-1.62991561741046,5900.295163796162
0.18,-1.6438612430815305,5897.059222172239
0.184,-1.6597318485822017,5903.325633837133
0.188,-1.673628035591407,5905.732322193234
0.192,-1.6825400737938518,5906.571957836122
0.196,-1.6850954891674106,5905.80645840378
0.2,-1.6816872556153681,5885.30510941755
0.204,-1.6741276802357739,5906.488876574698
0.208,-1.6651053891050989,5897.378780758911
0.212,-1.6576390521068252,5909.693909430508
0.216,-1.6545512459503433,5885.049694731972
0.22,-1.6579219125212612,5900.759685753263
0.224,-1.6685587418620982,5895.829135987234
0.228,-1.685638654683083,5896.355071951514
0.232,-1.70671109442564,5896.409171124955
0.236,-1.7281444241494321,5899.072493901042
0.24,-1.745899564103955,5906.817948486488
0.244,-1.7563787930922077,5902.5269898111
0.248,-1.75710686553105,5899.505807593367
0.252,-1.7471259151193468,5894.518081758926
0.256,-1.727133527594018,5901.633119582269
0.26,-1.6994446204615155,5910.318955628952
0.264,-1.6677758748955795,5898.314520082344
0.268,-1.6367818584212828,5897.997261076726
0.272,-1.6113487522266163,5904.270451516466
0.276,-1.5957758993471935,5905.909202986632
0.28,-1.5929896850847696,5901.233621638523
0.284,-1.603891860247666,5892.594463055579
0.288,-1.626975038771176,5909.57337333141
0.292,-1.6583771763005744,5895.78824087054
0.296,-1.6924573348766176,5900.4918060787895
0.3,-1.7228099806437287,5902.134761442907
0.304,-1.7435277903046926,5906.038565028904
0.308,-1.750471832620003,5910.267197220729
0.312,-1.7422701085056878,5892.909680941034
0.316,-1.7207739403568947,5897.308128582288
0.32,-1.6907735893246514,5902.142248116931
0.324,-1.6588997130098615,5893.16333133239
0.328,-1.6318698454944705,5899.029456266578
0.332,-1.6145834368904364,5897.301463047211
0.336,-1.6088077537836687,5906.952103212389
0.34,-1.6130460738138863,5902.267060703597
0.344,-1.6236353095011444,5903.940852605007
0.348,-1.6365244616654158,5900.691143849055
0.352,-1.6489092404064365,5899.357515533236
0.356,-1.6600401499248851,5897.667572978619
0.36,-1.6709499762271987,5887.21835147436
0.364,-1.6833728932963927,5900.822508973263
0.368,-1.698502402585908,5904.281068319473
0.372,-1.7162077785107268,5901.18669158305
0.376,-1.734926717821231,5906.20203604074
0.38,-1.7520302546345279,5911.391727435591
0.384,-1.7643319095682601,5891.811976943992
0.388,-1.7685876947760693,5905.911215407179
0.392,-1.7620587788191695,5899.404174179731
0.396,-1.7432305880727181,5902.880526607196
0.4,-1.7125754033598977,5902.440124591248
0.404,-1.673026513233106,5902.819869813778
0.408,-1.6298244418054257,5899.282648357441
0.412,-1.5896177680420447,5894.648524187584
0.416,-1.5589872609570021,5900.038495994595
0.42,-1.5427699592531274,5906.163908976098
0.424,-1.5426767484389543,5898.171465374815
0.428,-1.5567049077076256,5904.031348125387
0.432,-1.5796503480060509,5900.543093461008
0.436,-1.6046286823367373,5899.343439883723
0.44,-1.6251207341137164,5894.139541251933
0.444,-1.6368668531819177,5901.830091482159
0.448,-1.638981332759324,5893.008426822257
0.452,-1.6339051667862843,5902.053170642951
0.456,-1.6262264620837064,5894.694630554989
0.46,-1.6208356512384055,5900.973552944191
0.464,-1.6211204825617156,5893.125143101998
0.468,-1.627834481242563,5896.107308489415
0.472,-1.6389644921666011,5903.012160503453
0.476,-1.6505262434064196,5904.51950996541
0.48,-1.6579030788850821,5896.776547152594
0.484,-1.657243037397456,5894.537045412262
0.488,-1.6465297432446633,5893.395034683959
0.492,-1.6261205228646365,5905.198185271081
0.496,-1.5986963185103416,5906.480934977875
0.5,-1.5686590515568375,5891.282191778329
0.504,-1.5410876884074074,5905.1954422687
0.508,-1.5204899962481608,5900.336353851422
0.512,-1.5097115023014527,5891.548377905932
0.516,-1.5093467660699338,5900.147641128017
0.52,-1.5178285153687432,5896.972545851902
0.524,-1.5321666866454433,5902.758829043438
0.528,-1.5491195706735703,5906.721044313257
0.532,-1.5663952723762986,5894.707062046438
0.536,-1.5833977403074229,5904.02950909684
0.54,-1.6011658392127583,5899.162282232532
0.544,-1.6214840659023604,5905.680406574416
0.548,-1.6455346526157792,5896.219805603623
0.552,-1.672731790211274,5906.65136687374
0.556,-1.7003419733070961,5901.321904117957
0.56,-1.7241138696120906,5892.857672748793
0.5640000000000001,-1.7396285924134889,5907.949015037541
0.5680000000000001,-1.7437476852373908,5903.501323510664
0.5720000000000001,-1.7355715136205776,5893.13576930762
0.5760000000000001,-1.716656195171814,5898.662586501169
0.58,-1.6905900489239927,5899.61298312333
0.584,-1.6621844850257974,5901.398827989437
0.588,-1.6365325491387932,5900.301035862719
0.592,-1.6181619318018132,5900.679956969513
0.596,-1.6104464126346831,5901.952941949229
0.6,-1.6152784132428226,5893.908845109971
0.604,-1.632847876252515,5912.602801690486
0.608,-1.661400010295018,5906.5418514606345
0.612,-1.6970509629148334,5901.999571399028
0.616,-1.7339320422459803,5899.962227521692
0.62,-1.7649379622632304,5887.714940332663
0.624,-1.783120145582674,5902.1962947450365
0.628,-1.7833828945146586,5899.309111743181
0.632,-1.7638606608576253,5897.768635711422
0.636,-1.7264230500318443,5910.272480407178
0.64,-1.6761480027594131,5901.9138434635415
0.644,-1.6200441672759196,5898.195006586052
0.648,-1.5655232489795825,5896.909754285414
0.652,-1.5190648525586048,5898.113142508152
0.656,-1.485316881577689,5895.06503966838
0.66,-1.4667038753031625,5903.985830925768
0.664,-1.4635201290803417,5897.787790597727
0.668,-1.4744008602089578,5902.9912321015845
0.672,-1.4969661683583566,5906.387002795666
0.676,-1.52838646856125,5900.874775081945
0.68,-1.5657089597909377,5903.770572631798
0.684,-1.6059917827019499,5901.664855118774
0.6880000000000001,-1.646439866102738,5898.989642262422
0.6920000000000001,-1.6846675998064713,5901.299795944709
0.6960000000000001,-1.7190085747356971,5903.7551770835
0.7000000000000001,-1.7486707389971674,5898.60675200557
0.704,-1.773592775605185,5897.694564338067
0.708,-1.7940159457426046,5900.606762732954
0.712,-1.809926822510881,5893.645243243331
0.716,-1.82059190429637,5895.837093436052
0.72,-1.8243963915410752,5901.471624892853
0.724,-1.819139194842507,5907.738158251656
0.728,-1.8028215844405542,5897.843726942342
0.732,-1.7747571242040834,5898.775538061205
0.736,-1.7365637980903743,5893.907412486705
0.74,-1.69249173513018,5903.646517841428
0.744,-1.6487870773155966,5899.490097711483
0.748,-1.6122736201325076,5897.828500899525
0.752,-1.588701974395199,5893.308227693634
0.756,-1.5814615497802178,5895.467299549394
0.76,-1.5910227472927676,5900.688457248955
0.764,-1.615138934554862,5900.172151988683
0.768,-1.6495612306073506,5899.128893072226
0.772,-1.6889253154717458,5898.438035485178
0.776,-1.7275635517116388,5906.746420896643
0.78,-1.760171100913443,5900.881198801239
0.784,-1.7823726770958874,5895.88919674342
0.788,-1.79123162875721,5902.818865808786
0.792,-1.7856708911151251,5899.749525086831
0.796,-1.766714905054876,5904.402635484847
0.8,-1.7374289961036753,5901.452480841479
0.804,-1.702457691740314,5906.575348544142
0.808,-1.667202863480964,5905.9100090637
0.812,-1.6368677208692526,5906.984350641202
0.8160000000000001,-1.6156440363000388,5902.666228761465
0.8200000000000001,-1.606197651628008,5894.942457292803
0.8240000000000001,-1.6094642577957807,5896.5726711862335
0.8280000000000001,-1.6247097149466962,5898.985378488926
0.8320000000000001,-1.6497938859382113,5898.988158623123
0.836,-1.6815536391660617,5894.716672941272
0.84,-1.7162062943960146,5899.965122879605
0.844,-1.7497053911205582,5900.29987182802
0.848,-1.7780680925598444,5890.251059072016
0.852,-1.7977816610880366,5903.032122343215
0.856,-1.8063674131137282,5901.238627645346
0.86,-1.8029931116039977,5898.135453016884
0.864,-1.7888305159982039,5902.133111117345
0.868,-1.7668704728242437,5906.031353807567
0.872,-1.741157654193825,5897.343945190739
0.876,-1.715700519981051,5897.671775669218
0.88,-1.6934731919052253,5893.964657452257
0.884,-1.6758952902631579,5906.76265287161
0.888,-1.6629472683222597,5899.213498310271
0.892,-1.6537466751014123,5889.308767290779
0.896,-1.6472011263064819,5901.215146153364
0.9,-1.642413714935762,5897.286763423347
0.904,-1.6387504138292854,5904.205119592067
0.908,-1.6356813729218378,5900.763454001948
0.912,-1.6325654023211325,5899.66998685325
0.916,-1.6285023099491445,5896.7705869353695
0.92,-1.6223456338251385,5902.984930944351
0.924,-1.6129534353487465,5888.993601910502
0.928,-1.599645324125555,5901.272435031651
0.932,-1.5826516146692913,5907.257204973469
0.936,-1.5632903686560533,5899.473349380391
0.94,-1.5437708208467185,5894.327052024565
0.944,-1.5267228670271142,5889.546845156105
0.948,-1.514623097900186,5900.376325490324
0.952,-1.5092581850806206,5896.422175231722
0.956,-1.5113438512194504,5905.663999953774
0.96,-1.5204227439166376,5896.546945213756
0.964,-1.5351205196550337,5892.063281580173
0.968,-1.5536843382148295,5896.878213701156
0.972,-1.5745409273332336,5896.059386144872
0.976,-1.596565369902331,5889.989555085423
0.98,-1.6189182030953204,5904.413832819814
0.984,-1.6405914317002481,5902.350789372511
0.988,-1.6600333706636035,5899.932606293843
0.992,-1.6752382053785795,5894.611123938766
0.996,-1.6844233514773945,5904.673400404359
1.0,-1.6869998669036619,5897.314258537851
1.004,-1.6842543729062247,5898.800298550353
1.008,-1.6792437440090877,5896.320040299476
1.012,-1.6758215168819175,5906.745982250634
1.016,-1.6771797691791268,5897.0476845526855
1.02,-1.6845339182908312,5901.574946202382
1.024,-1.6965311718740448,5895.481857215541
1.028,-1.7096740569258388,5900.652255793806
1.032,-1.7196123870952629,5904.329432450194
1.036,-1.7227545500908916,5904.258862119204
1.04,-1.7174979033691544,5905.005862903466
1.044,-1.7045701134723938,5901.967765172773
1.048,-1.686400648244124,5902.699077791166
1.052,-1.665862467725527,5901.410882746789
1.056,-1.6449557025122183,5904.551473531999
1.06,-1.624029234509689,5904.328703831926
1.064,-1.601954369081819,5901.997732509721
1.068,-1.5772392439803324,5892.626489522653
1.072,-1.5495459387069168,5912.286485789487
1.076,-1.5208039896022698,5896.664881344994
1.08,-1.4953116744003438,5897.266776429149
1.084,-1.4787150396298876,5896.597199506336
1.088,-1.476246320113454,5902.9202592475685
1.092,-1.4908794343024574,5896.048457546953
1.096,-1.5220399734298786,5898.009844906013
1.1,-1.5652641410542865,5900.021280454815
1.104,-1.6129148308975072,5900.43670222049
1.108,-1.6558183430598161,5901.314431703083
1.112,-1.6854532044801256,5907.012237041736
1.116,-1.6961375063608728,5904.001816470269
1.12,-1.6866283191190674,5906.18563975494
1.124,-1.6607162592559896,5895.721917648637
1.128,-1.6267109351068858,5896.596201593643
1.132,-1.5959989362988667,5897.956598717377
1.136,-1.580941506240355,5900.940267275643
1.14,-1.5922778125679888,5896.926751471246
1.144,-1.636122671659595,5902.44545111123
1.148,-1.710785871281203,5903.081870187929
1.152,-1.803979140859177,5897.151516247008
1.156,-1.8913197669963902,5901.161550385937
1.16,-1.9371872425259162,5904.240554480628
1.164,-1.898824973609927,5901.645206908976
1.168,-1.733972752565105,5889.567457392622
1.172,-1.4111671970820814,5909.544876226646
1.176,-0.9203867263409704,5898.711150201118
1.18,-0.28058555234145477,5897.137240303001
1.184,0.4593822287249968,5902.952641071787
1.188,1.2283276546009314,5890.749570923986
1.192,1.9474745675358929,5902.524427758919
1.196,2.547758830036031,5923.138470196564
1.2,2.9838020308332696,5941.816430308482
1.204,3.2404448590088752,5945.272536800773
1.208,3.331103632439412,5963.811207848436
1.212,3.290053212408139,5964.951602164751
1.216,3.161978424572761,5977.500209523234
1.22,2.991911559037587,5993.147788106507
1.224,2.8176092755846813,6013.720540960936
1.228,2.6652045944108465,6016.412807047022
1.232,2.5480638825241955,6024.452887267033
1.236,2.4682592921175535,6034.755114166096
1.24,2.4197890215960784,6052.741633837764
1.244,2.392540284613131,6056.11990496266
1.248,2.3759972576827133,6061.791175838534
1.252,2.361912329547869,6080.035277693739
1.256,2.3455934731700263,6084.766541128641
1.26,2.3259239560300853,6088.6382457402415
1.264,2.304467667874614,6098.704122440176
1.268,2.2840287494456697,6107.511731942299
1.272,2.2670521872022604,6118.749592889518
1.276,2.254336533634128,6131.931537312556
1.28,2.2444919464557076,6138.742438766454
1.284,2.2342948621496355,6141.345990292062
1.288,2.2197166507152444,6160.113155430667
1.292,2.1971816764980994,6159.349113199692
1.296,2.1646141213148855,6172.205823950775
1.3,2.1219641337529707,6172.975104378284
1.304,2.0710890043408887,6179.477925497504
1.308,2.015102113689645,6183.773388998271
1.312,1.957502066301659,6197.558233342771
1.316,1.9014002348697636,6208.939050841432
1.32,1.8489974000107525,6214.914105367344
1.324,1.80132670285968,6224.595122585766
1.328,1.7582776328138205,6215.615191813769
1.332,1.7189181988710536,6229.54056146423
1.336,1.6820351589659523,6233.1727942140815
1.34,1.6466973456990308,6247.525784622265
1.344,1.6126415180116525,6249.392511382903
1.348,1.5803980136490607,6255.231318352915
1.352,1.5512159928631934,6259.440357833543
1.356,1.5268819123713557,6266.098856313942
1.36,1.5094172133322212,6269.64994261721
1.364,1.5005413575181208,6275.169556677358
1.368,1.5008874054320946,6280.32227956595
1.372,1.5092421568222576,6291.123010121494
1.376,1.5222692868576213,6295.819381196018
1.38,1.5350049282150648,6296.040839970053
1.384,1.541983530807937,6306.190216309302
1.388,1.5385168479360498,6305.453159644989
1.392,1.5216515602767604,6311.413895131273
1.396,1.490593275064584,6315.315199513658
1.4,1.4466524479692113,6316.88696934182
1.404,1.3928750773062988,6324.453413499089
1.408,1.3334994060055085,6330.464574936382
1.412,1.2733402086473875,6332.978225089613
1.416,1.217190768482794,6334.279825203734
1.42,1.16932802762135,6344.41699967659
1.424,1.1331717195646611,6346.85409283114
1.428,1.1110599482965802,6355.077909310719
1.432,1.104002030780428,6352.85455546209
1.436,1.1112827002620043,6357.727758920994
1.44,1.1300069604788339,6359.573952580938
1.444,1.1549580374425332,6359.0500350419925
1.448,1.179200438670422,6374.692379721235
1.452,1.195544492701798,6377.4519841825695
1.456,1.1984647429563098,6377.061086698249
1.46,1.1856984775033597,6382.404437247866
1.464,1.1588199558282604,6379.215241195127
1.468,1.1225544977733675,6393.010160686064
1.472,1.0831582564236903,6380.178721859297
1.476,1.0465289942898621,6390.967157739064
1.48,1.0167068438957598,6395.811554927745
1.484,0.9951578509591336,6402.931892863638
1.488,0.9809115602193241,6409.239882274106
1.492,0.9714026875286899,6404.093726769727
1.496,0.9637294666751861,6404.794648908704
1.5,0.9559144887874104,6414.57395113138
1.504,0.9476944311259122,6411.976236500845
1.508,0.9404976461177246,6411.001550813058
1.512,0.9366045272489595,6411.314413889963
1.516,0.9378827158320928,6420.065712403198
1.52,0.9447179319341739,6422.373242105583
1.524,0.9556432131960215,6431.077292937516
1.528,0.9677712042495726,6425.704858462542
1.532,0.9777455903923102,6426.599738352236
1.536,0.9827593005553624,6434.958687480696
1.54,0.9812311900473439,6424.782750861652
1.544,0.9729308010458111,6432.189784285216
1.548,0.9586353706422097,6449.419964562166
1.552,0.9396320676165203,6437.750690503705
1.556,0.917369396915467,6439.82870532418
1.56,0.8933458804174488,6448.100614235006
1.564,0.8691009890768929,6445.869363983553
1.568,0.8460964507033805,6458.592436789484
1.572,0.8253753626833243,6450.383504473617
1.576,0.8071113209384813,6444.58522593069
1.58,0.7903605533020533,6451.857670297775
1.584,0.7733004655993092,6446.58288381379
1.588,0.7539396610888925,6457.0909778428695
1.592,0.7309546137479037,6460.754708029595
1.596,0.7042236473415253,6463.026282277413
1.6,0.674834066440105,6457.87807403919
1.604,0.6446620033000988,6471.719985907106
1.608,0.6158504861688813,6467.97503323771
1.612,0.5904896682041584,6468.996420456516
1.616,0.5705507160821117,6464.610352352709
1.62,0.557868169166336,6472.191157756964
1.624,0.5539382313182798,6476.125150074194
1.628,0.559490193912764,6468.784924474224
1.632,0.574008978656436,6479.871794822086
1.636,0.5954979895033488,6476.579793100445
1.64,0.6207069182359439,6471.411377617583
1.644,0.6458137624298023,6476.401412550218
1.648,0.6672899857364246,6484.866090130812
1.652,0.6825872101428856,6481.784693707491
1.656,0.6904160238643514,6488.53159521294
1.66,0.6906309692708915,6484.973899932256
1.664,0.68391358745085,6483.221661728183
1.668,0.6714410702134767,6487.737786486967
1.672,0.6546021617782505,6483.77953429681
1.676,0.6347391462589763,6493.233240022889
1.68,0.6129152702240107,6485.350398512423
1.684,0.5897597441981114,6492.905092423551
1.688,0.5654583100249604,6489.55339741231
1.692,0.5399230404380982,6489.4007332134925
1.696,0.5131151874359662,6498.846305678711
1.7,0.48544409923441023,6483.577037500744
1.704,0.4581257598378667,6492.753089847313
1.708,0.4333484058093349,6498.61816515248
1.712,0.41410544524517556,6496.315539797033
1.716,0.4036610741926248,6502.020341199176
1.72,0.40475126598922323,6487.639396398369
1.724,0.4187025130182606,6510.833102671767
1.728,0.4446928416177211,6500.91830433474
1.732,0.47943746760675365,6502.088543522408
1.736,0.5175720009065837,6503.184587570826
1.74,0.5527854161437494,6505.69153171656
1.744,0.5793737055038288,6504.3495616942055
1.748,0.5936262235712462,6502.606622294574
1.752,0.5945413441339209,6510.287811530183
1.756,0.5837158664593929,6497.27152606989
1.76,0.564610791627709,6501.7142828187725
1.764,0.541586275302319,6506.68928594347
1.768,0.5190682212209122,6514.802350203569
1.772,0.5010098276097333,6515.9979726145175
1.776,0.4905975098622397,6502.902411168296
1.78,0.4900534823504049,6508.398101140146
1.784,0.5004038828036141,6511.50767575172
1.788,0.5211656892950012,6504.945439321286
1.792,0.5500361799770382,6509.079657656615
1.796,0.5827883959082373,6510.605287573348
1.8,0.6136056934309728,6520.916686892438
1.804,0.6359870237503693,6512.08728754275
1.808,0.6441431099775631,6513.193067447334
1.812,0.6345731515184506,6507.159347944224
1.816,0.607355388284004,6514.012558379784
1.82,0.5666479612062991,6508.647595415908
1.824,0.5200398967816806,6525.189961745554
1.828,0.47675392753607465,6518.306915692803
1.832,0.44515622540459415,6518.4997469211785
