时间(s),电压(V),幅值(高频80K)
0.0,-1.2639181698183137,5897.49514351506
0.004,-1.2647131992238403,5893.095005070226
0.008,-1.2730884757574388,5905.784336396573
0.012,-1.2924867668087923,5893.824012075797
0.016,-1.3216349784677506,5894.076483936752
0.02,-1.3551351717980713,5903.043302626063
0.024,-1.3853842015985418,5893.320725417308
0.028,-1.4048074994427093,5894.726966393743
0.032,-1.4077435612257925,5893.424045371521
0.036,-1.39173889397612,5898.971230994256
0.04,-1.3581383486585632,5896.294577373465
0.044,-1.31184671923646,5901.63674179225
0.048,-1.260256755580505,5909.000000424579
0.052,-1.2115845097689977,5905.397445762123
0.056,-1.1730322083634093,5907.2021684130095
0.06,-1.1491940212762133,5900.918032569495
0.064,-1.1410234798831353,5902.001788998454
0.068,-1.1456302208205282,5898.7675176365055
0.072,-1.1570926159480905,5903.9636352073685
0.076,-1.168180990955677,5903.724116556541
0.08,-1.1724649591896479,5907.772062704315
0.084,-1.1660744171360586,5902.326713420501
0.088,-1.1485987216746094,5906.024131473083
0.092,-1.1230355614747591,5901.979085320727
0.096,-1.0949522231452573,5901.04071273942
0.1,-1.0710206146808046,5892.750186100258
0.104,-1.057154346974139,5896.40923043303
0.108,-1.0567789505985696,5902.36340274476
0.112,-1.0699507989152832,5896.400147135445
0.116,-1.0937064283365927,5905.726051436782
0.12,-1.123348656925587,5903.635164489601
0.124,-1.1539373407600464,5904.779075123178
0.128,-1.1813566140614242,5898.042065156256
0.132,-1.2027507681425835,5906.001375468482
0.136,-1.2164617189514455,5894.817462297183
0.14,-1.2217393046968046,5902.390945081764
0.144,-1.2185411110381532,5900.694427656887
0.148,-1.2076799179581608,5899.458229318842
0.152,-1.1912942946154237,5903.646691780426
0.156,-1.173226262180241,5903.596785158135
0.16,-1.1587411503697986,5899.118206016893
0.164,-1.1533287289358276,5900.916389235516
0.168,-1.1609099945655936,5901.010174315031
0.172,-1.182214760415106,5899.665062401771
0.176,-1.2140804795829443,5897.877341801962
0.18,-1.2500170782814404,5902.308482519336
0.184,-1.281870285846046,5903.64784965838
0.188,-1.3020083877361024,5903.515171311709
0.192,-1.3052752010945645,5901.526986904834
0.196,-1.2900773967839916,5902.172576534693
0.2,-1.2583486076312618,5905.644465110289
0.204,-1.2145586095268819,5906.799110056859
0.208,-1.1642501453599636,5896.634113413717
0.212,-1.112715621871113,5891.004676125211
0.216,-1.0643032005233415,5898.797305985002
0.22,-1.0224525983506194,5895.499084257982
0.224,-0.9901121592592987,5902.001120648724
0.228,-0.9700213605714884,5892.81923062205
0.232,-0.9645599504141014,5895.010412350342
0.236,-0.9752183974580169,5906.81516934515
0.24,-1.0019607383777585,5908.86575646787
0.244,-1.0427690003306251,5897.164935112394
0.248,-1.0935482559829024,5906.720884202258
0.252,-1.1484273409978587,5900.012053691454
0.256,-1.2003969417731586,5898.399831417937
0.26,-1.2422117084817776,5902.524890602169
0.264,-1.267491408616057,5912.707732013033
0.268,-1.2719064813448628,5898.159026242258
0.272,-1.2542151917156932,5899.269166605863
0.276,-1.2168299922374122,5894.54109069894
0.28,-1.1656612312985064,5902.95786359074
0.284,-1.1092331935270463,5899.51345223348
0.288,-1.0573182035843325,5905.452267632644
0.292,-1.0194019764751954,5901.461884247772
0.296,-1.0031964830966273,5885.352525917856
0.3,-1.013322256219298,5902.004879389305
0.304,-1.0502996010286407,5895.723313082684
0.308,-1.1100799194019075,5902.860172718538
0.312,-1.1843745839716397,5891.497717697798
0.316,-1.2618999557604271,5891.149274306987
0.32,-1.3303902896301505,5896.734272215086
0.324,-1.3789381855353489,5892.463430313793
0.328,-1.4000336523498247,5897.800301196659
0.332,-1.3907527185363102,5901.365462792476
0.336,-1.3528994487170547,5908.380588998274
0.34,-1.2922620542407377,5894.414331177209
0.344,-1.2172871458673837,5896.97355806122
0.348,-1.1374773696330143,5897.236295419855
0.352,-1.0618085149963856,5902.28027424845
0.356,-0.9974462013751222,5885.082981653851
0.36,-0.948971851626933,5904.2937674947925
0.364,-0.9181770259764961,5904.995934414156
0.368,-0.9043161788567838,5902.54077972815
0.372,-0.9046669921601096,5898.079773945051
0.376,-0.9153352290544113,5893.67721937043
0.38,-0.9322517006534133,5892.975895627795
0.384,-0.9521671243286484,5909.231334145747
0.388,-0.9733460853535635,5894.086578729831
0.392,-0.9957367369894393,5893.885628684724
0.396,-1.0205705300449404,5905.903483415378
0.4,-1.049518668754288,5903.332438280006
0.404,-1.083681710425572,5898.305618448523
0.408,-1.122775045404867,5903.209138754272
0.412,-1.1648043257589393,5898.68889012055
0.416,-1.206311670814705,5895.113153577112
0.42,-1.2430630727094125,5901.936095872007
0.424,-1.2709440967139756,5894.77340761122
0.428,-1.2868097538203371,5894.312968368162
0.432,-1.2890812394948317,5888.480657666229
0.436,-1.2780245185994112,5903.466473653318
0.44,-1.2557766297726516,5900.09298439699
0.444,-1.2261351963489369,5895.373505342564
0.448,-1.1939882707251486,5897.939813082056
0.452,-1.1643247938183856,5907.450478394655
0.456,-1.1410703675620202,5900.539313021528
0.46,-1.1262389325250948,5904.540084819326
0.464,-1.1197994444140797,5891.796686986232
0.468,-1.1202506917899695,5895.7298164362455
0.472,-1.1254797892622443,5905.431013402128
0.476,-1.1333905889205287,5900.138099645308
0.48,-1.142094736242545,5908.534736101352
0.484,-1.149863339312387,5902.833369057616
0.488,-1.1551698770888374,5895.66074381719
0.492,-1.1569512937442699,5888.662044094339
0.496,-1.1549289746180755,5904.2519704239385
0.5,-1.149727997417869,5909.156974373927
0.504,-1.1426885594783,5896.195284794643
0.508,-1.135540843518586,5897.747844687335
0.512,-1.1302113213945104,5904.488483526197
0.516,-1.128781262520953,5905.468369995055
0.52,-1.1333087312344605,5894.790255663903
0.524,-1.1452738641987565,5905.153514948384
0.528,-1.1647839499427393,5901.507621190512
0.532,-1.1899628324054554,5902.86496647305
0.536,-1.2169149492022504,5897.455895782752
0.54,-1.240419248499915,5904.014429461017
0.544,-1.2552461474838539,5916.575793412362
0.548,-1.257741235739566,5900.741087660023
0.552,-1.247101415576163,5907.884335135442
0.556,-1.2257287181432004,5904.538018052782
0.56,-1.1983612492090712,5896.958781542472
0.5640000000000001,-1.1702866028947505,5902.101417865899
0.5680000000000001,-1.1454813989730408,5903.474077399296
0.5720000000000001,-1.1256030832521546,5894.239112858179
0.5760000000000001,-1.1102766293508022,5902.538858859651
0.58,-1.0983657418205077,5908.326237354476
0.584,-1.0894155698171708,5906.538235349988
0.588,-1.0844912794326222,5902.563337784377
0.592,-1.0860423570153601,5893.081505838336
0.596,-1.096863841537662,5898.377730351842
0.6,-1.11855813514039,5905.030674730926
0.604,-1.1501174762462678,5898.247925756061
0.608,-1.187293707548592,5900.107252410137
0.612,-1.2231998578093315,5896.135656984377
0.616,-1.250086038408434,5904.503739993342
0.62,-1.2616497104517912,5900.7006336245695
0.624,-1.254935178307637,5901.490452781021
0.628,-1.231072127850573,5901.474036723602
0.632,-1.1946640128734227,5897.610497858736
0.636,-1.1522068003462744,5890.640790752901
0.64,-1.1102133783559855,5906.330188000798
0.644,-1.0736803140462297,5906.111302952327
0.648,-1.0452857922664256,5902.740970324722
0.652,-1.0254064221395225,5904.217547724814
0.656,-1.0127701536749973,5898.673917121528
0.66,-1.0053824055522993,5904.364854296689
0.664,-1.0013458986514945,5903.870128172984
0.668,-0.9993432385578475,5903.221510254955
0.672,-0.9987582267140866,5890.253893296066
0.676,-0.9995550719086754,5906.175868527902
0.68,-1.0020711214486837,5897.692199129381
0.684,-1.0068472038048089,5903.038416218442
0.6880000000000001,-1.0145612419957784,5905.418089629087
0.6920000000000001,-1.0260301572484825,5899.368643674789
0.6960000000000001,-1.0421111766796662,5899.437944655015
0.7000000000000001,-1.0633107460067295,5902.8874598843295
0.704,-1.0891332048781819,5901.581824889274
0.708,-1.1175180291441535,5900.26719016601
0.712,-1.144787728385944,5897.691724397154
0.716,-1.1662839174057562,5898.936560696032
0.72,-1.1775558419238064,5898.419295408226
0.724,-1.1757586555173694,5895.950576911957
0.728,-1.1607835614713957,5903.154155850837
0.732,-1.1356154915324639,5895.2053302079285
0.736,-1.1056565550886475,5911.399997119149
0.74,-1.0772255403225062,5907.794952426425
0.744,-1.0558167228633248,5904.356445471081
0.748,-1.0447132761276738,5899.320601054556
0.752,-1.0442939374553977,5896.05289492663
0.756,-1.0521220242549092,5886.643511470912
0.76,-1.0637609748084473,5905.826814596192
0.764,-1.074120470633049,5905.484317360705
0.768,-1.0789839272756474,5896.278070825772
0.772,-1.0762981380466217,5900.281454551126
0.776,-1.0668396784470826,5895.429530810138
0.78,-1.0539875785999897,5906.57261576274
0.784,-1.0425764981946024,5898.23643924252
0.788,-1.0371871988841745,5898.545507958663
0.792,-1.040568353797633,5897.762610634849
0.796,-1.0528734805713085,5902.877499468931
0.8,-1.071925491836645,5903.095402688861
0.804,-1.0941131333352787,5908.412800563136
0.808,-1.1153001015427506,5904.662684149178
0.812,-1.1314423259570991,5906.139359921873
0.8160000000000001,-1.139067528463237,5898.513577517824
0.8200000000000001,-1.135887025839832,5900.902306437351
0.8240000000000001,-1.1215304903490801,5896.654732239869
0.8280000000000001,-1.098071579984494,5899.92416296612
0.8320000000000001,-1.0699609177375433,5892.52591946326
0.836,-1.0432331874769722,5891.581147715076
0.84,-1.024220904032055,5901.737863606843
0.844,-1.0182404816663035,5897.171327505696
0.848,-1.0286723300085818,5908.089927253301
0.852,-1.0565998816169924,5906.257630978919
0.856,-1.1009048888384658,5897.494872684684
0.86,-1.1585990937081134,5908.850403673508
0.864,-1.225222778955283,5903.926646607221
0.868,-1.2952657448437157,5898.848588480983
0.872,-1.3626436946523954,5899.704598444072
0.876,-1.4212402330807963,5903.677079015868
0.88,-1.4654744122948173,5903.302982683118
0.884,-1.490866483897078,5905.598306938214
0.888,-1.4946277018779868,5895.441903112784
0.892,-1.4762916950638016,5897.673313443612
0.896,-1.438268730887742,5903.060538212789
0.9,-1.3860107784536233,5903.880268889348
0.904,-1.327428171783884,5897.170084673161
0.908,-1.271437009552526,5891.331814288104
0.912,-1.2259540392125783,5898.381792571116
0.916,-1.1960541937056397,5898.533964869891
0.92,-1.1830875808003583,5904.690217255893
0.924,-1.1851317578044145,5899.290224716411
0.928,-1.1984123172669499,5895.824262415215
0.932,-1.2188190596248925,5902.102257735458
0.936,-1.2427749328901467,5890.861351888468
0.94,-1.2672944580738066,5897.498487773811
0.944,-1.2895926257239467,5908.475554995221
0.948,-1.3067592320286823,5906.140313258085
0.952,-1.315820875935162,5893.118610103816
0.956,-1.31417592061842,5899.901739381578
0.96,-1.3001286285717752,5910.459995049105
0.964,-1.2732201230887117,5896.57029916785
0.968,-1.2342591469461233,5897.240407909264
0.972,-1.1852174434941103,5892.937851865214
0.976,-1.129221561381315,5903.336215985639
0.98,-1.0706451803148473,5907.15377159215
0.984,-1.0149966286469838,5896.137685361507
0.988,-0.9682671377014489,5895.859781357474
0.992,-0.9357438979640799,5899.289823405427
0.996,-0.920682301755702,5895.681698149399
1.0,-0.9233550836996225,5901.6588459184
1.004,-0.9408541725345625,5902.19719442135
1.008,-0.9677675856112261,5904.274518782197
1.012,-0.9975722665712622,5902.238750658142
1.016,-1.024332265346347,5899.82933632399
1.02,-1.0441611973356955,5901.998806932285
1.024,-1.0559874488511227,5902.499302652655
1.028,-1.061471783679382,5893.440303243135
1.032,-1.0642995322444808,5902.920848891759
1.036,-1.0691946651993016,5899.322065428311
1.04,-1.080818938945283,5896.120097766113
1.044,-1.1025505785748488,5899.690633111454
1.048,-1.135244086762597,5904.514960006326
1.052,-1.1763201461451713,5897.389955682906
1.056,-1.2196559409705747,5900.524620994795
1.06,-1.256632523606484,5898.528122768583
1.064,-1.2783245057238513,5904.264672949439
1.068,-1.2782419130506644,5889.586365623975
1.072,-1.2545626822982527,5898.503514415456
1.076,-1.210867306470232,5900.098001706672
1.08,-1.1550806660811286,5902.439019633295
1.084,-1.097152963581519,5905.068109555155
1.088,-1.046418909877034,5902.366380127392
1.092,-1.0094921568217476,5898.407177426427
1.096,-0.9892269256551459,5904.39689841908
1.1,-0.984842672898676,5902.123573491327
1.104,-0.9928709226361723,5901.240898387164
1.108,-1.0084121825734416,5905.478310310924
1.112,-1.0263663294070775,5898.621762759825
1.116,-1.0425070490413018,5899.457894813352
1.12,-1.0542566808538834,5890.4471804957175
1.124,-1.0609407599870078,5904.736951733783
1.128,-1.0634016639339143,5905.827837539777
1.132,-1.0631139825911764,5902.639161269301
1.136,-1.0612179519774565,5893.943313679179
1.14,-1.0580136759835188,5898.328493427532
1.144,-1.053282202013659,5902.147566490526
1.148,-1.0473026913774017,5905.629895110407
1.152,-1.041888101784674,5897.90488452413
1.156,-1.040592524821171,5905.5286972564345
1.16,-1.0476688807340915,5897.849465878851
1.164,-1.0661485251147647,5897.522383498813
1.168,-1.0960561670362314,5902.225757354517
1.172,-1.1338155080892798,5891.388649148345
1.176,-1.1732617386826665,5892.022146041081
1.18,-1.2077535540344069,5897.676968692928
1.184,-1.232307334130596,5904.615204538519
1.188,-1.2448185561651797,5895.074380188693
1.192,-1.246070283642039,5900.234842381121
1.196,-1.238817056229526,5893.438740863364
1.2,-1.2264496436794303,5905.0928786621735
1.204,-1.2116983493451912,5902.694207193736
1.208,-1.195764181040834,5900.150493347048
1.212,-1.1782006782121173,5902.687116137485
1.216,-1.1576601865406106,5888.870139667
1.22,-1.133250142789501,5897.585368345301
1.224,-1.1058923043416877,5895.24436871514
1.228,-1.0789546117614262,5902.537652258446
1.232,-1.0576734926898357,5901.272140739032
1.236,-1.047466221871182,5905.131241484372
1.24,-1.0518405300928897,5899.635250397126
1.244,-1.0708365943964215,5908.499580911425
1.248,-1.1006399814466477,5900.737020545915
1.252,-1.1344328100845424,5903.326014785556
1.256,-1.1641032137124923,5901.265655166274
1.26,-1.1823012353300035,5906.114632635356
1.264,-1.1843866842863604,5903.778552028041
1.268,-1.1698362737662835,5897.377801524203
1.272,-1.1426371276552587,5899.908726955435
1.276,-1.110311329078697,5897.568131854563
1.28,-1.0816709978580368,5900.658450603051
1.284,-1.0640379465815957,5898.285751986214
1.288,-1.0610488208300892,5890.326133980583
1.292,-1.0719662509863521,5909.057204234472
1.296,-1.0926723496222184,5891.852826455736
1.3,-1.1176823061140917,5899.841385408259
1.304,-1.1421358074643333,5897.935338553327
1.308,-1.1629861029468154,5910.193747934601
1.312,-1.1791839313936905,5916.225322090698
1.316,-1.1911180970008142,5898.849471724447
1.32,-1.1997712028902625,5904.604126909833
1.324,-1.206012476667513,5897.03345894094
1.328,-1.2102541292824414,5907.515246811018
1.332,-1.2124808398499647,5896.404323892707
1.336,-1.212547642084073,5889.505548105807
1.34,-1.2105966919010538,5896.994188116411
1.344,-1.207379483755177,5899.712706422272
1.348,-1.2042474976761175,5902.697427337535
1.352,-1.2027277419136706,5899.870307668976
1.356,-1.2039000371520425,5895.442301848869
1.36,-1.2079940702616703,5899.568035084483
1.364,-1.2144941901322623,5900.116146490527
1.368,-1.222647691721997,5907.309051649602
1.372,-1.2319597188120597,5913.2295817326
1.376,-1.2422798349862387,5898.623779766691
1.38,-1.2534200751898115,5903.548258352035
1.384,-1.2646645665153093,5906.124562393805
1.388,-1.2746728473936615,5902.488228277769
1.392,-1.281930797714373,5895.715452021109
1.396,-1.285380497446589,5911.466647159452
1.4,-1.2847143390513058,5904.767974170938
1.404,-1.280148168630978,5906.6014706942815
1.408,-1.2719126791293665,5902.167479433342
1.412,-1.2598883707425566,5901.895790535592
1.416,-1.2436988242308864,5898.392733315971
1.42,-1.2232719870327033,5903.85123738568
1.424,-1.1995592696789108,5893.825446451797
1.428,-1.1749549094443512,5906.63373849574
1.432,-1.1530831240801547,5895.450920488013
1.436,-1.1379716704384342,5902.017266402104
1.44,-1.1329757914852125,5903.221950862535
1.444,-1.1398821480332377,5907.898939861248
1.448,-1.1584085210706212,5896.9258507717495
1.452,-1.1860934044463698,5896.186150314552
1.456,-1.2185174329072304,5905.5510260059655
1.46,-1.2498594812213206,5900.614409292924
1.464,-1.2738467908743765,5903.131777348142
1.468,-1.2851131709855477,5903.258710172972
1.472,-1.2807631217187028,5911.568302944727
1.476,-1.261640115165149,5898.119124400185
1.48,-1.23266986621502,5896.444801294
1.484,-1.2018716502459512,5906.1942239728905
1.488,-1.1781380505144128,5903.532964855912
1.492,-1.1684415323029043,5906.917101903756
1.496,-1.1754541408939034,5897.4667109029415
1.5,-1.1964883915700808,5893.983447457004
1.504,-1.2242226738190667,5901.944075447896
1.508,-1.249033856574537,5902.899490041705
1.512,-1.26213665022969,5887.784784278866
1.516,-1.258395001872155,5892.904197545328
1.52,-1.237819542632858,5901.782795177331
1.524,-1.2053094770713924,5898.322577766637
1.528,-1.1688452197927253,5895.852360709783
1.532,-1.1368463430431832,5892.27661843451
1.536,-1.1156519228207094,5900.969617002903
1.54,-1.107970815617752,5910.027992695748
1.544,-1.1127032469229174,5901.457262088527
1.548,-1.125964525397655,5888.94249537497
1.552,-1.142725735884294,5903.711664908054
1.556,-1.1583925485897333,5905.214345190468
1.56,-1.1698743991800156,5902.091871667002
1.564,-1.17605090733024,5897.828652330746
1.568,-1.177722311336418,5903.904039227937
1.572,-1.1770788679197854,5894.699050546339
1.576,-1.1767143519369905,5893.404210898048
1.58,-1.178435759914077,5903.697130630982
1.584,-1.1823762807498275,5900.387612623507
1.588,-1.186854512743894,5900.094836910369
1.592,-1.189021678994877,5896.972919260186
1.596,-1.1859335495657604,5899.797182790337
1.6,-1.175566656370128,5903.096483439996
1.604,-1.157451038692258,5899.584761408478
1.608,-1.1328176872655833,5892.169312905432
1.612,-1.1043392979348037,5902.998089217468
1.616,-1.0756478950032087,5902.600562063946
1.62,-1.050803475062541,5898.077664952271
1.624,-1.0337906489820448,5899.615114874599
1.628,-1.0280417641674793,5902.446517095924
1.632,-1.0359584691309984,5904.665821125893
1.636,-1.0584203706629915,5897.928366576258
1.64,-1.0943722792927766,5899.280805293283
1.644,-1.1407069677724373,5905.000628065804
1.648,-1.1926105801412845,5903.54173660317
1.652,-1.2442927570675797,5899.514658383834
1.656,-1.2898228836927002,5898.428587108879
1.66,-1.3238130751703039,5889.324698975969
1.664,-1.3418694893856873,5904.318977326111
1.668,-1.3409318494308258,5892.696593521498
1.672,-1.319707297816702,5903.053449512478
1.676,-1.279284507437799,5899.7262830369855
1.68,-1.2237229789442199,5900.525992139394
1.684,-1.1601563842845206,5907.142745314758
1.688,-1.0979712426238608,5900.072303585524
1.692,-1.0470030823082244,5904.943712889578
1.696,-1.01523695344395,5901.901795822572
1.7,-1.0068495972134148,5900.952266231554
1.704,-1.0213447848066706,5904.369934371576
1.708,-1.054074388693103,5885.170623752871
1.712,-1.0978899341727704,5891.557948411328
1.716,-1.1452809442501493,5897.96255134538
1.72,-1.1902135701633811,5893.416342835272
1.724,-1.2290223736487698,5904.8435207476505
1.728,-1.2601553295081003,5885.658948898574
1.732,-1.283154948243424,5890.566308098683
1.736,-1.2975947925977884,5896.629955228094
1.74,-1.302557079574556,5899.633569950193
1.744,-1.2968208846695901,5896.317567491643
1.748,-1.2795744463090546,5898.404118837007
1.752,-1.2512907434288503,5899.265119841954
1.756,-1.2143437521085763,5900.670903578833
1.76,-1.173007594071667,5904.207269192842
1.764,-1.132761875274331,5906.014936424261
1.768,-1.099211283506392,5900.542573785521
1.772,-1.0770725777507306,5898.64558074691
1.776,-1.0694264648341412,5899.773789079259
1.78,-1.0771061129123232,5900.698942194117
1.784,-1.0981386395390393,5895.7161816176485
1.788,-1.127509646630343,5900.345082157643
1.792,-1.1577230221977588,5899.7983208242285
1.796,-1.180410868725447,5901.1739270013495
1.8,-1.1887405769908037,5898.890966386312
1.804,-1.1798960741334026,5901.951921464077
1.808,-1.156765961525482,5898.108096097209
1.812,-1.1281842377156186,5905.207339756843
1.816,-1.1074272948199049,5894.4736132649205
