时间(s),电压(V),幅值(高频80K)
0.0,-1.321943653772755,5905.232861151981
0.004,-1.3769591781662092,5900.118340104231
0.008,-1.426434621163877,5902.749831411779
0.012,-1.4654214855894292,5898.539258529518
0.016,-1.4907425077723813,5898.406243806842
0.02,-1.5015781814764702,5905.259641700651
0.024,-1.4993842977098029,5892.375527431477
0.028,-1.487172400563161,5904.764439208188
0.032,-1.4685360203472824,5903.146639256376
0.036,-1.4468518710023732,5888.262474379796
0.04,-1.4248329475642207,5900.142910168736
0.044,-1.40436551736657,5899.429959564299
0.048,-1.3865285894828898,5895.981302640447
0.052,-1.3717793766878426,5892.612539433541
0.056,-1.360282802584571,5908.184304628412
0.06,-1.3522346300764316,5904.084863653758
0.064,-1.3479734671498507,5901.322861862614
0.068,-1.3478246335287045,5896.64204601482
0.072,-1.3518061685370741,5899.628639591423
0.076,-1.359361434669244,5895.980958309632
0.08,-1.3692276501324063,5904.848445804631
0.084,-1.379539992057063,5898.277095356726
0.088,-1.3882628298868107,5897.514540167756
0.092,-1.393910732866108,5898.752263949995
0.096,-1.3962712182780912,5906.609602353823
0.1,-1.3966544847599665,5899.387284973702
0.104,-1.39733128257924,5891.696502022924
0.108,-1.4003117541943784,5898.291404109962
0.112,-1.406115517331241,5896.960701575224
0.116,-1.4132530825641167,5896.212619539675
0.12,-1.4187174178288169,5897.564783216249
0.124,-1.419237344728717,5895.898219648518
0.128,-1.412749966930116,5897.385796423047
0.132,-1.3995332046172877,5900.175853384562
0.136,-1.3825385619219768,5901.508955783394
0.14,-1.3666784490591914,5905.5792807993885
0.144,-1.3572372918157196,5900.642454208688
0.148,-1.3580470357076981,5902.864217790583
0.152,-1.3702494990722014,5895.373443754554
0.156,-1.3921676241319034,5901.509729717467
0.16,-1.4202108548601204,5901.991773815104
0.164,-1.4502591737861836,5902.457785544932
0.168,-1.478875893427085,5896.2930957440585
0.172,-1.503921352179893,5905.217154512413
0.176,-1.524451404622529,5898.170268913324
0.18,-1.540076448024814,5906.952699307688
0.184,-1.550198629007496,5901.127847851327
0.188,-1.5536074132607267,5893.917912717407
0.192,-1.5486790380097422,5896.918124029909
0.196,-1.534029657372714,5898.995217384908
0.2,-1.509225941247066,5900.386065911105
0.204,-1.4752154271018785,5904.839826623002
0.208,-1.434368526084464,5908.062076591835
0.212,-1.3902081410514509,5909.36544891232
0.216,-1.3469602968942531,5897.659169873874
0.22,-1.30902915190655,5890.531900010326
0.224,-1.2804435583832783,5900.04434177396
0.228,-1.2642913572320156,5892.3565077945095
0.232,-1.2621815562648262,5892.892788131295
0.236,-1.2738420556818577,5902.0167971849705
0.24,-1.2970091439481168,5897.7174009401415
0.244,-1.3277258806493348,5898.28704302638
0.248,-1.3610471341285024,5901.34087784625
0.252,-1.392018843375259,5889.535003541222
0.256,-1.4167028777412136,5906.926823859954
0.26,-1.432970766516106,5896.121286221326
0.264,-1.4408104346535726,5899.595598808131
0.268,-1.4420052614983847,5893.733067352443
0.272,-1.4392652513546458,5899.186462013525
0.276,-1.4351561118596246,5901.641743578197
0.28,-1.4313047564852894,5905.924039389717
0.284,-1.428200930921041,5890.462833023489
0.288,-1.4255589787041405,5890.879376021607
0.292,-1.422933235799926,5903.583725400984
0.296,-1.4202358646545172,5896.876638428376
0.3,-1.4179126348304159,5898.693330918432
0.304,-1.416719851161026,5902.498111361831
0.308,-1.4172728260410619,5907.681055477278
0.312,-1.4196623478909123,5904.119385750779
0.316,-1.4233542402434471,5899.654256350118
0.32,-1.4274061248046344,5893.158304654787
0.324,-1.4309129557434788,5900.897231158794
0.328,-1.4335261829049097,5895.277976463412
0.332,-1.4358258908355386,5904.324334072023
0.336,-1.4393183040473145,5904.3511453448655
0.34,-1.4459601159721014,5900.147628153962
0.344,-1.4573339910779703,5893.631472671682
0.348,-1.4737960488196247,5890.513388049789
0.352,-1.493976845606517,5898.371348148066
0.356,-1.514885877819656,5895.711589834495
0.36,-1.5325958439141785,5903.978385687635
0.364,-1.543228993901941,5899.956197638345
0.368,-1.5438867767118452,5897.456372692209
0.372,-1.5332652112563039,5899.48487737405
0.376,-1.5118724099859453,5900.21703703184
0.38,-1.4819030589371298,5899.148285718894
0.384,-1.4468801553412953,5906.414407572328
0.388,-1.4111732985153482,5886.826040766493
0.392,-1.3794914888606364,5901.502591637011
0.396,-1.356394699920796,5919.340603437845
0.4,-1.3457546326972942,5901.101205942569
0.404,-1.3500706327452314,5905.781926696521
0.408,-1.3697325684376542,5905.58241678267
0.412,-1.402542689484047,5900.977000410043
0.416,-1.4437946922334859,5901.684671582912
0.42,-1.4869671485098956,5901.860575164802
0.424,-1.5248494447141199,5899.648838461461
0.428,-1.5508288449980605,5901.05066135774
0.432,-1.5600928717290923,5899.448239179121
0.436,-1.5505428880557393,5901.078802914383
0.44,-1.5232336820855428,5895.414416737068
0.444,-1.4822008686078791,5905.387739317833
0.448,-1.4336708093681836,5901.534257055985
0.452,-1.384832706721963,5889.413322996903
0.456,-1.342488909522672,5904.68621725617
0.46,-1.311919916707205,5902.822855365727
0.464,-1.2962064183270452,5902.14901286081
0.468,-1.2960905955329198,5907.342151928959
0.472,-1.3103006486502933,5900.36800074199
0.476,-1.33614811838241,5898.260553219498
0.48,-1.3701455884419154,5901.533662673804
0.484,-1.4084170918317562,5898.516340888706
0.488,-1.446833384073677,5898.119489114079
0.492,-1.4810362410272853,5898.152823714996
0.496,-1.5066289023897934,5902.7661800605365
0.5,-1.5196904265903632,5903.072763190012
0.504,-1.5175388212759873,5898.918513877562
0.508,-1.4995148113699637,5891.5062434981055
0.512,-1.4675203783657005,5900.680558883757
0.516,-1.42605958145046,5895.486117338901
0.52,-1.3816121142483424,5900.653825302742
0.524,-1.3413673731634501,5901.180316321576
0.528,-1.311591128175149,5899.688075741302
0.532,-1.2960745843488037,5901.261665963925
0.536,-1.2951643519219425,5896.388634205664
0.54,-1.3057445611204528,5895.002732829814
0.544,-1.3222341475689487,5899.853094904826
0.548,-1.3383056014512966,5897.056238644538
0.552,-1.3487959910878113,5898.887377205775
0.556,-1.3512101412205173,5908.408410404381
0.56,-1.346309589578774,5903.331116047385
0.5640000000000001,-1.337588814962419,5905.313595995218
0.5680000000000001,-1.3298975023316157,5906.166206174042
0.5720000000000001,-1.327811541975327,5900.7845213161145
0.5760000000000001,-1.3343585830892055,5896.493876778529
0.58,-1.3504101008798384,5898.684579357984
0.584,-1.3747152124337891,5907.881320229241
0.588,-1.4043798847813387,5910.553199010879
0.592,-1.4356008942996896,5894.274784818955
0.596,-1.4645337611934854,5902.314543197073
0.6,-1.4881964758818969,5897.530295236055
0.604,-1.5052389358129457,5898.904613847016
0.608,-1.516299659951217,5904.752316701139
0.612,-1.523684688304248,5898.627508693861
0.616,-1.5303467658893402,5902.276524318536
0.62,-1.5385010051141272,5901.988863055669
0.624,-1.5484280321197625,5893.051558864026
0.628,-1.5579623838458294,5907.843813662741
0.632,-1.5629366698398963,5892.178534326848
0.636,-1.5585608803031477,5897.869351543351
0.64,-1.5413652848733184,5902.299333214305
0.644,-1.5109822918461102,5898.901468720378
0.648,-1.4709200067577375,5908.638140145308
0.652,-1.4278064858216657,5902.3448135025465
0.656,-1.3892869173896751,5905.253989276715
0.66,-1.3614491276860945,5902.293861912199
0.664,-1.3469041029503326,5897.035765580085
0.668,-1.3443109985974158,5901.772658238139
0.672,-1.3494405909484743,5897.482081417366
0.676,-1.3572123561133234,5895.915770748376
0.68,-1.363804864964357,5905.158166790871
0.684,-1.3680107602368208,5903.23847902647
0.6880000000000001,-1.3714071745533976,5900.0892729205725
0.6920000000000001,-1.377430811175291,5898.702481907223
0.6960000000000001,-1.3898230149579243,5906.180713832368
0.7000000000000001,-1.4110121161862084,5901.732730101535
0.704,-1.4409143516969187,5897.570487172322
0.708,-1.476494841212259,5888.51560302483
0.712,-1.5122313417005888,5906.755983580067
0.716,-1.5413409580865507,5890.705160442311
0.72,-1.5574005427016606,5893.930945172407
0.724,-1.5559479611665938,5896.988775620379
0.728,-1.535707236072508,5900.158952436886
0.732,-1.4991135156636761,5895.196006133004
0.736,-1.4519066736711408,5899.471783266549
0.74,-1.4018409653474995,5897.335674196828
0.744,-1.3569156624225398,5898.848838478188
0.748,-1.3236954925964508,5899.771433759071
0.752,-1.3061340666425765,5896.538406944521
0.756,-1.3050167094512881,5896.858767837594
0.76,-1.3179749329661534,5893.014652427857
0.764,-1.3400245830567596,5913.855785774579
0.768,-1.364566279935108,5894.5264645272655
0.772,-1.3847085757535864,5910.888796404855
0.776,-1.394718560330941,5900.665420906937
0.78,-1.3913500468136581,5895.122230759645
0.784,-1.3746925021819463,5899.364725497634
0.788,-1.3481589573537225,5908.414856721183
0.792,-1.3174723975269957,5900.340555710411
0.796,-1.2889633120841573,5903.21495825221
0.8,-1.267848881845525,5909.352862860609
0.804,-1.25713840210276,5900.580846591109
0.808,-1.2574147212328095,5892.347016358084
0.812,-1.2672876271249136,5895.990813699071
0.8160000000000001,-1.2841130478873066,5888.59991630932
0.8200000000000001,-1.3046772627680683,5895.670610491028
0.8240000000000001,-1.3257689070490317,5913.123726223782
0.8280000000000001,-1.3446915077050243,5904.682508771071
0.8320000000000001,-1.3597503846290455,5896.831948154279
0.836,-1.3706461229704763,5897.999247031887
0.84,-1.3786003609124056,5902.915592686245
0.844,-1.3860086383529209,5899.980337489933
0.848,-1.3955547560107304,5899.709208811897
0.852,-1.409031163116713,5897.15556106098
0.856,-1.426372066592942,5891.629331070803
0.86,-1.4453544734728034,5902.979416510747
0.864,-1.4620860382513317,5904.1832363504045
0.868,-1.4720660997361577,5904.521991873124
0.872,-1.4714539050115782,5908.777491135671
0.876,-1.4581654501057972,5897.566730937753
0.88,-1.432496247941345,5898.459346753866
0.884,-1.3971352071647711,5902.424249509684
0.888,-1.3566466656702516,5896.353780201749
0.892,-1.316646335909438,5902.755871260929
0.896,-1.2829168697852464,5902.006967579772
0.9,-1.2606297802796314,5897.333805978106
0.904,-1.253741757869686,5898.562433583963
0.908,-1.2645572944932524,5904.835516584458
0.912,-1.2933960897009837,5898.80959551201
0.916,-1.3383021036439602,5894.648556758604
0.92,-1.3948300298790894,5894.019190347842
0.924,-1.4561115306106716,5897.209522803947
0.928,-1.5134951813419082,5901.659208032705
0.932,-1.5579263971658532,5905.07781301794
0.936,-1.5818840451205176,5896.923683566407
0.94,-1.5813110461315416,5901.438416321789
0.944,-1.5568389964925653,5907.584662029271
0.948,-1.5138312789976864,5899.3284386011055
0.952,-1.4612105320288795,5907.108159041038
0.956,-1.4094375412501317,5890.636867944351
0.96,-1.3682120087729308,5904.253896040904
0.964,-1.3444601432963266,5902.754469395335
0.968,-1.3410330550130483,5903.776968867088
0.972,-1.3563528730001502,5900.686937457762
0.976,-1.3850470745026553,5906.248539563866
0.98,-1.4193969791858452,5896.231801917718
0.984,-1.4512338108326932,5899.4671872242825
0.988,-1.4738246065293001,5899.615521106428
0.992,-1.483310945096388,5899.477696481301
0.996,-1.4793678247913762,5905.776371560438
1.0,-1.464954761251396,5900.20270627748
1.004,-1.4453070251186424,5899.437325250481
1.008,-1.4265180095403143,5898.266743697625
1.012,-1.4140976217201973,5897.057173803571
1.016,-1.4118235768866567,5906.449310992416
1.02,-1.421116458194928,5905.864969679426
1.024,-1.4410366968438475,5894.410089045568
1.028,-1.4687933799502129,5894.181575200159
1.032,-1.5004753756270093,5909.515852746004
1.036,-1.5317124040840886,5900.931100004495
1.04,-1.5581376434568273,5899.446451283967
1.044,-1.5756896281992403,5895.40263608336
1.048,-1.5808656936159042,5902.3293015719855
1.052,-1.5710611881987824,5891.142094343326
1.056,-1.5450912843384241,5901.802121948801
1.06,-1.503834463353992,5896.591106848019
1.064,-1.450730172084179,5909.565456012499
1.068,-1.3917854397343747,5903.1143300399735
1.072,-1.3348697914726346,5893.364082988388
1.076,-1.288328411417899,5904.701897132891
1.08,-1.259202834375739,5895.616445798475
1.084,-1.251526142467669,5902.191086497901
1.088,-1.2652131199138241,5898.693073438768
1.092,-1.2959815825385876,5899.040598981295
1.096,-1.336485567183557,5900.479110146233
1.1,-1.378409289043285,5892.601708525369
1.104,-1.4148151731743228,5908.276033042666
1.108,-1.4418484384058337,5909.669857465353
1.112,-1.4591605077456262,5896.963487591583
1.116,-1.4690010924739292,5905.8902645248345
1.12,-1.474503174706012,5900.497144570781
1.124,-1.477969052044359,5900.984422559556
1.128,-1.4798891146237378,5910.43654771093
1.132,-1.4790624685431386,5904.258812387508
1.136,-1.4736791763499535,5900.833378753599
1.14,-1.4627704010418783,5902.489672053131
1.144,-1.4472689624109927,5903.320763863982
1.148,-1.4301433665659629,5901.229280100157
1.152,-1.4155200033267776,5898.473699561752
1.156,-1.4071622136512296,5898.151433093297
1.16,-1.40698441573926,5897.70905021464
1.164,-1.4143020542853777,5911.957146777979
1.168,-1.4261602385748346,5896.9640041044295
1.172,-1.4385201291639647,5900.737004013103
1.176,-1.447692902887327,5903.540540051451
1.18,-1.4514209536140146,5902.3240835117895
1.184,-1.4493070687298526,5907.050864618712
1.188,-1.4426294314870214,5903.564669429069
1.192,-1.4337800619817243,5902.9141027676815
1.196,-1.4255858169078437,5900.21609141271
1.2,-1.4206708465721285,5899.33868589089
1.204,-1.420907418095139,5890.958104417776
1.208,-1.4269723508632832,5911.708284420324
1.212,-1.4380832480886976,5896.147171734957
1.216,-1.4520372962349015,5904.635268521841
1.22,-1.4656245582148966,5905.3635036661735
1.224,-1.475359460258332,5910.623861396366
1.228,-1.478363392815064,5899.84689189768
1.232,-1.4731787880723988,5896.648326872349
1.236,-1.4602732213966103,5900.5256664375975
1.24,-1.442014647675982,5886.017321985071
1.244,-1.4220452453321655,5900.712302426608
1.248,-1.404250426580468,5904.395382019003
1.252,-1.3917277227735672,5912.927137822322
1.256,-1.3861091239872028,5904.88293163372
1.26,-1.3873445533399622,5895.776768877533
1.264,-1.3938887351228977,5893.7935538517295
1.268,-1.4032508428227672,5907.730225063254
1.272,-1.4128696589782017,5895.148139063807
1.276,-1.4211131633611398,5899.276866068067
1.28,-1.4280082305188762,5895.010237194907
1.284,-1.4353143053255524,5903.764713687365
1.288,-1.4458119487726435,5900.448257789768
1.292,-1.46204093276838,5893.296419545094
1.296,-1.4849867065845215,5904.021965925147
1.3,-1.513220619155338,5894.114565969872
1.304,-1.5427762017968978,5892.554585250063
1.308,-1.5677970675365778,5905.802076853935
1.312,-1.5818454510729991,5904.638378895842
1.316,-1.579632692941325,5902.656028231762
1.32,-1.5587539754600297,5894.842143713188
1.324,-1.5208694645285685,5905.857294066726
1.328,-1.4718162073687682,5902.133041143403
1.332,-1.4204339107483999,5901.630364299915
1.336,-1.3763700625538815,5902.647476713362
1.34,-1.3475547305507198,5902.742814229846
1.344,-1.3381595351844868,5901.634623832354
1.348,-1.3476443477297644,5894.360833011731
1.352,-1.3711131142378574,5905.032986191278
1.356,-1.4008239922002297,5899.628668455569
1.36,-1.428398652590476,5894.424564865593
1.364,-1.447072204756383,5895.44525697937
1.368,-1.4533026935617313,5902.637104735432
1.372,-1.4473058548491788,5889.33006780071
1.376,-1.432505702679362,5893.680749235498
1.38,-1.4142431381982266,5899.668051122328
1.384,-1.3982147456313443,5891.350265797916
1.388,-1.3890836405383282,5893.906652407393
1.392,-1.3895942635282759,5897.747663287929
1.396,-1.4003193393537323,5907.498115565734
1.4,-1.419898086561269,5903.3527888996805
1.404,-1.445444293307974,5894.863498898781
1.408,-1.472850653835988,5895.907998546198
1.412,-1.496970203340735,5895.699393810374
1.416,-1.511937977141421,5899.630277805195
1.42,-1.511973354685975,5905.5936497649645
1.424,-1.4927708763353518,5892.071026706685
1.428,-1.4532012885324468,5902.413300017098
1.432,-1.3967778445413872,5906.411604167927
1.436,-1.332312238459172,5899.198712980837
1.44,-1.2733221519842444,5899.278494236984
1.444,-1.2359674649550483,5898.932224872989
1.448,-1.2355601392974793,5896.281344210575
1.452,-1.2820418113338754,5900.688960758966
1.456,-1.3752577151017653,5903.46353207935
1.46,-1.5012565023299618,5909.096194963424
1.464,-1.6309867386681305,5899.314525636663
1.468,-1.722479196707704,5904.019535746798
1.472,-1.7269231356920227,5905.263618135784
1.476,-1.5980941200198724,5892.213785592336
1.48,-1.303500716794797,5891.5695793369
1.484,-0.8346165271723116,5900.374410462339
1.488,-0.21305911871750757,5895.802327498779
1.492,0.5100132930297334,5909.304774641425
1.496,1.2624191098813038,5899.547945069626
1.5,1.9658175873129278,5903.640178353476
1.504,2.5525547306873233,5931.069679003215
1.508,2.979031218089453,5941.781997343531
1.512,3.2317289150455,5954.21301387584
1.516,3.325244155215125,5978.786569739756
1.52,3.2944416446077844,5990.70855232956
1.524,3.184010723880315,6010.671314663209
1.528,3.0384430655310144,6017.742619133361
1.532,2.8944445981104225,6043.208103274777
1.536,2.776628985793282,6059.73994564364
1.54,2.6963856899303975,6065.6031605834805
1.544,2.6532628504060365,6080.281422093872
1.548,2.6380398017284263,6087.103302979207
1.552,2.6366874013585075,6109.706226814252
1.556,2.6344488045208125,6123.556587698298
1.56,2.619335987386556,6147.350051601498
1.564,2.5845072245759133,6150.374828903312
1.568,2.52922783155229,6159.771597594037
1.572,2.458345640038516,6179.512657982087
1.576,2.380450837989206,6191.806299269014
1.58,2.3051822763870615,6196.1779303704
1.584,2.240438041334779,6209.892169957356
1.588,2.1903616381229916,6217.863454907095
1.592,2.154710903541869,6235.344665488477
1.596,2.1296330754527713,6236.919023141251
1.6,2.1093351888424694,6250.324523193226
1.604,2.0879697426698876,6268.767702903024
1.608,2.0611996761755935,6278.726786464569
1.612,2.027122980794196,6277.942595523406
1.616,1.9864282254939967,6295.505747261506
1.62,1.9418561233612897,6305.323685899498
1.624,1.8972224399073134,6317.729735896628
1.628,1.8563141063589628,6318.013594601583
1.632,1.8219182425232585,6340.989124499506
1.636,1.7951855085520319,6341.243521726165
1.64,1.7754733392024793,6341.98005794216
1.644,1.7606876503420907,6352.175184133891
1.648,1.7479625692945624,6365.800130839176
1.652,1.734420676625965,6377.139138642282
1.656,1.7178160436512326,6384.059712771201
1.66,1.696987734980545,6383.558431925376
1.664,1.6721058398151682,6396.210782982793
1.668,1.6446645193325076,6405.939295072929
1.672,1.6171654730157277,6413.420771989282
1.676,1.592499801995516,6419.276757423556
1.68,1.5731378611227678,6422.704541060966
1.684,1.560321329896483,6436.029024727067
1.688,1.5535039263284156,6438.429406857012
1.692,1.5502759506384365,6455.872994755451
1.696,1.5468765098003527,6455.175582350143
1.7,1.5391623412869222,6463.618109936086
1.704,1.5236998348893307,6474.631575818126
1.708,1.4986230145297539,6457.630827085212
1.712,1.4640530855074882,6485.447591731932
1.716,1.4220495134800606,6484.055213144575
1.72,1.376136081855389,6491.26733219483
1.724,1.3304671368469336,6498.147360943427
1.728,1.2887839273846888,6508.96033865194
1.732,1.253456525624712,6507.991846625244
1.736,1.2249860450415877,6516.029249725743
1.74,1.2022273047581693,6511.628337982616
1.744,1.1832701853836096,6521.287630822609
1.748,1.1665514182495966,6527.403281947757
1.752,1.151620627127357,6529.297319913153
1.756,1.139187562037886,6538.413514469003
1.76,1.130505173993654,6552.83513475971
1.764,1.1265236310210116,6560.618992153379
1.768,1.127334551265924,6558.34891856001
1.772,1.1321379235141156,6559.638602496869
1.776,1.1395393359412067,6558.535557030296
1.78,1.1478157645149676,6568.73192792685
1.784,1.1549997890497934,6575.19973292405
1.788,1.1589392658085325,6582.224476869264
1.792,1.1575619411507794,6581.228620919596
1.796,1.1493818175637525,6587.770055762991
1.8,1.1340387131556653,6597.706042981748
1.804,1.1125773567204342,6592.048577092343
1.808,1.0873024688509132,6592.579540640923
1.812,1.0612629895713217,6606.435054285462
1.816,1.0375409413799808,6603.256789604771
1.82,1.0185198841994438,6604.591087540648
1.824,1.005300820645414,6618.761722693909
