时间(s),电压(V),幅值(高频80K)
0.0,-1.2544974015308314,5898.080422407797
0.004,-1.3673182191141506,5902.908420687883
0.008,-1.4693342261727678,5903.188759972566
0.012,-1.5509908569935746,5900.498968183213
0.016,-1.605467369835345,5907.025115374677
0.02,-1.6302687476272093,5904.277170784966
0.024,-1.6280674519880072,5900.030019194894
0.028,-1.6061374507945347,5902.730929340299
0.032,-1.5743978095536668,5900.211937057581
0.036,-1.5427613932669464,5897.700695730534
0.04,-1.5187228278211469,5901.718094611522
0.044,-1.5059418573265535,5903.135702922481
0.048,-1.5042002541134931,5901.472120094473
0.052,-1.5106311578001579,5902.362678483678
0.056,-1.5216487978625444,5898.217832460343
0.06,-1.5347681720390547,5900.403321916079
0.064,-1.549621603097961,5899.216854317061
0.068,-1.5678489979368757,5896.749490257718
0.072,-1.591968921735389,5900.346710123997
0.076,-1.6236912220857445,5901.979833815743
0.08,-1.6623250175766484,5901.30294286055
0.084,-1.7038978357360604,5900.682006966535
0.088,-1.7413441821227993,5900.485847504738
0.092,-1.765792223037611,5904.893835675446
0.096,-1.768710792342435,5904.622752881934
0.1,-1.744453890298706,5899.506018922224
0.104,-1.6925112793755535,5896.627731646344
0.108,-1.618656620752787,5898.262934210565
0.112,-1.5343603263570496,5902.556948153713
0.116,-1.4543572916224254,5896.640370928972
0.12,-1.3929772513369132,5902.57445892104
0.124,-1.3604049080592877,5901.100173844573
0.128,-1.3600992489463153,5906.096967772205
0.132,-1.388155138068577,5889.260014357087
0.136,-1.4347094048316105,5901.38987055992
0.14,-1.4868433528251168,5902.703112832491
0.144,-1.5320074130240122,5901.728671129476
0.148,-1.5609654851534438,5900.836842507646
0.152,-1.5696110704804886,5905.822178033748
0.156,-1.5594317223823955,5899.434618431591
0.16,-1.5366176009048231,5894.851687465904
0.164,-1.5099552000360454,5903.280858651221
0.168,-1.4880020047889575,5909.246808237831
0.172,-1.4764696811861777,5895.040090675968
0.176,-1.4767623781647232,5898.850198173106
0.18,-1.4860688231566754,5891.665751238921
0.184,-1.498738820329827,5904.029049702318
0.188,-1.5083544131579985,5895.978219393784
0.192,-1.509911375311497,5902.267324721007
0.196,-1.5015777628639868,5904.077772997591
0.2,-1.4855061871512163,5895.965528364794
0.204,-1.4673003634785209,5902.210894733679
0.208,-1.4541197416047114,5907.54553156816
0.212,-1.451963001412291,5911.583893753089
0.216,-1.463095852791512,5903.533808525103
0.22,-1.4846199584211333,5896.360484660415
0.224,-1.5088161724349984,5897.911488901046
0.228,-1.525308684669898,5898.051681047831
0.232,-1.5244627130061381,5903.461489672634
0.236,-1.5009124265119096,5897.618893800199
0.24,-1.455921881626157,5903.836804004733
0.244,-1.3975958453606872,5909.643178172071
0.248,-1.3387640709209407,5902.179224191947
0.252,-1.2933110773044414,5902.723489263008
0.256,-1.2723026065001155,5898.859501305848
0.26,-1.281206451450729,5897.641014556264
0.264,-1.318965231853599,5899.9428824194665
0.268,-1.378960137280902,5895.976323065009
0.272,-1.4512638658748114,5903.980019677973
0.276,-1.5252500929471697,5901.428477966239
0.28,-1.5917460998112531,5898.129629925173
0.284,-1.6443469946599396,5894.082047165299
0.288,-1.679931198190446,5897.163696292226
0.292,-1.6986072618442445,5902.891148622372
0.296,-1.7032599818225511,5900.1040382663205
0.3,-1.698696526950102,5890.5322147758125
0.304,-1.6903850050172518,5897.938905906652
0.308,-1.6830372851843411,5903.517340078159
0.312,-1.679523027493753,5901.234424502518
0.316,-1.680467231387907,5895.235224405075
0.32,-1.6845148046690246,5891.182948056999
0.324,-1.6890389397742331,5891.569086997403
0.328,-1.6910861401587647,5889.118228795511
0.332,-1.68836977224682,5900.912701039083
0.336,-1.680065794326321,5907.733442321209
0.34,-1.667129161521848,5894.7864571377295
0.344,-1.6519545401243134,5900.47149392268
0.348,-1.6374882443114784,5893.044935544873
0.352,-1.626210285970462,5901.239783502243
0.356,-1.6194581256957623,5899.095934718781
0.36,-1.617260334140071,5898.983432928761
0.364,-1.6184848845826287,5904.607501420795
0.368,-1.6210658177408164,5907.098934515879
0.372,-1.622340039149162,5893.919914614566
0.376,-1.6197011938070125,5894.017144346874
0.38,-1.6115865818108164,5897.550468326493
0.384,-1.5984340205058845,5901.34575524197
0.388,-1.5830593613052464,5901.254076830564
0.392,-1.570094970359443,5893.930612630955
0.396,-1.5645739293639926,5900.899425231775
0.4,-1.570158089754367,5901.99352528784
0.404,-1.5876592128091536,5903.144714947557
0.408,-1.6143825100225246,5905.528868535586
0.412,-1.6445552276057507,5896.643786914096
0.416,-1.6707544654564228,5902.173952305433
0.42,-1.6858983707542206,5898.4573808392925
0.424,-1.685204667772311,5904.845668132132
0.428,-1.667616554152017,5898.266219901561
0.432,-1.6363552198994658,5893.966489249012
0.436,-1.598353639763628,5891.146771510728
0.44,-1.5625268751778678,5890.451362931556
0.444,-1.537277530065509,5899.897068573187
0.448,-1.5280797346650987,5901.371963791623
0.452,-1.536040525139365,5904.823559894829
0.456,-1.557910924695636,5891.5914823502135
0.46,-1.5873873946110486,5891.335545170974
0.464,-1.6170845587123157,5901.815034715866
0.468,-1.6404559311927198,5899.426562272052
0.472,-1.6531212186568185,5903.9298017135325
0.476,-1.653383663420722,5902.924580014085
0.48,-1.6420572025989126,5898.735033572604
0.484,-1.6218983370128057,5895.111038208397
0.488,-1.5968718748560973,5897.930415172717
0.492,-1.5713331913597588,5901.213384905597
0.496,-1.5491796451350417,5902.093016360992
0.5,-1.5331021562024787,5907.410069222797
0.504,-1.524128880485534,5902.862070896651
0.508,-1.5216306799550998,5900.121265230854
0.512,-1.523851019763526,5899.654371439452
0.516,-1.528845817521474,5895.468838401545
0.52,-1.5355218768514216,5894.300631441212
0.524,-1.5443395381264875,5897.0884850281145
0.528,-1.5572878863298176,5903.410730842184
0.532,-1.5769884189646255,5900.574431458128
0.536,-1.6051817238681985,5891.768196162119
0.54,-1.6412372120398766,5899.654736532495
0.544,-1.6814662493210082,5908.574873457676
0.548,-1.7197433300309743,5896.891224182001
0.552,-1.7493170381360734,5897.498035243647
0.556,-1.7650717272285434,5911.476357890985
0.56,-1.7652645428545544,5901.029454559148
0.5640000000000001,-1.7520204669090043,5902.1963607695125
0.5680000000000001,-1.7304438992772435,5898.114696277945
0.5720000000000001,-1.706812553860948,5894.309895447768
0.5760000000000001,-1.686659997279074,5902.61244596203
0.58,-1.6734411693026068,5896.397177425239
0.584,-1.6680316476897021,5899.09239010591
0.588,-1.6689063680153857,5897.647581704381
0.592,-1.6727401560497683,5896.16999422082
0.596,-1.6752900955971877,5900.595690726783
0.6,-1.6724860437844689,5894.67384516972
0.604,-1.6615452507165487,5897.224173960891
0.608,-1.641780017615777,5898.37582819712
0.612,-1.6147776078660203,5898.336891415995
0.616,-1.583839490897232,5898.207784598139
0.62,-1.5528945305194661,5896.805565961872
0.624,-1.5254145700672446,5892.346666520949
0.628,-1.5039198929496143,5902.340282299911
0.632,-1.490260172690708,5900.982724486218
0.636,-1.4862055262574876,5900.752656210894
0.64,-1.4935883628599111,5903.038379695435
0.644,-1.5136316435307904,5895.27414892711
0.648,-1.5458076325897125,5897.164175265752
0.652,-1.5869666818773214,5912.266239702807
0.656,-1.6313416168438353,5899.239300496672
0.66,-1.6715976271987443,5891.198491387368
0.664,-1.7006517456510668,5899.22508270513
0.668,-1.7136727334902164,5899.0681278620095
0.672,-1.709550977938562,5893.409523899604
0.676,-1.6912778641087347,5901.903526729712
0.68,-1.6651008553940845,5903.836294251239
0.684,-1.6388018062185634,5900.412567336535
0.6880000000000001,-1.6196891000843896,5902.66118764318
0.6920000000000001,-1.6128552308607893,5890.31194638986
0.6960000000000001,-1.620091443418418,5897.100233738407
0.7000000000000001,-1.639654896460822,5901.226554945862
0.704,-1.6668545719506755,5907.795949520771
0.708,-1.6952353105925801,5893.725155029337
0.712,-1.7180686002631085,5902.133600690668
0.716,-1.7298411191008969,5894.993458732593
0.72,-1.7273944940911057,5895.612291508027
0.724,-1.7104067261517317,5901.540084814179
0.728,-1.6811374870154745,5904.582287863591
0.732,-1.6436691936490397,5899.6227468082025
0.736,-1.603011794217198,5891.3999553440535
0.74,-1.5643462463511157,5903.228923239261
0.744,-1.53250561974908,5906.347600483349
0.748,-1.5116248955245197,5893.589375145425
0.752,-1.5047597848570382,5904.644736772988
0.756,-1.5133126166482174,5899.817838508137
0.76,-1.5363980202963574,5907.049712117773
0.764,-1.570587415821944,5900.821253577581
0.768,-1.610403006871878,5897.901050808672
0.772,-1.6494851474579737,5897.718439456346
0.776,-1.6819509322263948,5900.117295803783
0.78,-1.7034281804900104,5889.065951327257
0.784,-1.7115162666534138,5899.698090790191
0.788,-1.7057231008571474,5902.213382912707
0.792,-1.6870963044565526,5890.02342557892
0.796,-1.6577964820127642,5896.641469762075
0.8,-1.6207587852852758,5900.499218062021
0.804,-1.5793864286746044,5900.62793412405
0.808,-1.537095949392609,5889.890850689324
0.812,-1.4966813010194326,5896.585253320157
0.8160000000000001,-1.4597632827046902,5902.055769864564
0.8200000000000001,-1.4266937789688137,5896.948680811935
0.8240000000000001,-1.3970638823300545,5901.792549137521
0.8280000000000001,-1.3706322794061079,5899.1241626930905
0.8320000000000001,-1.3482704693246317,5897.79294790691
0.836,-1.3324595602084108,5903.191822725402
0.84,-1.3269752168494149,5902.919874908876
0.844,-1.3357137119307803,5902.799328532794
0.848,-1.3610580727946302,5898.654770908601
0.852,-1.4024773867086335,5892.760995779136
0.856,-1.4559940234441318,5900.069221793812
0.86,-1.5147985167670934,5898.298093703442
0.864,-1.5708127234185365,5906.119683340364
0.868,-1.616600856833004,5898.420337026265
0.872,-1.646931591077903,5901.279518624681
0.876,-1.65955731454005,5898.455005418589
0.88,-1.6551644462724155,5897.052795753137
0.884,-1.6367164257067144,5905.170994855927
0.888,-1.6085279144682905,5901.58015546452
0.892,-1.5753954572000461,5902.717303580436
0.896,-1.541950237771783,5899.441210867592
0.9,-1.5121994949913231,5894.461920019762
0.904,-1.4891627652622614,5904.524024046896
0.908,-1.4745931458393886,5907.685146003087
0.912,-1.4688462136487148,5906.519462210382
0.916,-1.470932551772121,5900.276781326888
0.92,-1.4787462365034296,5898.536870150461
0.924,-1.489497417450475,5893.749203368681
0.928,-1.5003962760832044,5894.382206911947
0.932,-1.509471343809278,5895.599375805245
0.936,-1.516169890287493,5891.780669230692
0.94,-1.5214079477256277,5895.652271968559
0.944,-1.5270628643465638,5903.432070977183
0.948,-1.5352140895560933,5884.470414065559
0.952,-1.5475003838354497,5903.452500145728
0.956,-1.5648291023357985,5896.597209457642
0.96,-1.5874711803717312,5896.050898711938
0.964,-1.6153708489101777,5901.129308341521
0.968,-1.6483765664497865,5900.543579734357
0.972,-1.6861578431498219,5893.030229915767
0.976,-1.7278057909872524,5903.644534299218
0.98,-1.7713600543125558,5904.730632875871
0.984,-1.8135734472196514,5909.63523791445
0.988,-1.85010500520538,5902.497853822115
0.992,-1.8761662985310963,5907.872408278568
0.996,-1.887510218080248,5898.105868426827
1.0,-1.8814928095304388,5906.087559015832
1.004,-1.8577908357656527,5902.659543290925
1.008,-1.8184232129672193,5900.06640582306
1.012,-1.7670910314837398,5892.919645196251
1.016,-1.7082634742372993,5899.45206409902
1.02,-1.6465309579603815,5904.3225644059685
1.024,-1.5864375819011083,5902.878775502645
1.028,-1.5325514979120465,5899.942109498315
1.032,-1.4893116652557516,5901.037941694918
1.036,-1.4604052473978804,5895.603444781616
1.04,-1.4478939947975298,5910.869533231553
1.044,-1.4515879681472452,5904.058820100681
1.048,-1.4690391983968638,5899.447248515371
1.052,-1.49616509912996,5898.860732574798
1.056,-1.5282126584854139,5898.116313741725
1.06,-1.5607053969090234,5889.950719164578
1.064,-1.590138434393846,5906.810068215758
1.068,-1.6143544016325924,5898.382896209808
1.072,-1.632647810120512,5904.391088438259
1.076,-1.6456903805730008,5894.47976795007
1.08,-1.6553294888670051,5902.110522642748
1.084,-1.664221370160127,5898.585892605989
1.088,-1.675247352945907,5900.426112870959
1.092,-1.6907817291228078,5894.632213065762
1.096,-1.7120072478818473,5904.416191015656
1.1,-1.7384645630287017,5888.15994163211
1.104,-1.7679007259347603,5898.840125574176
1.108,-1.7963900275031328,5897.80107538555
1.112,-1.8187181020905454,5903.141709124145
1.116,-1.8290840132999984,5899.392267387664
1.12,-1.8221561962643378,5893.569289565207
1.124,-1.794370458426478,5901.926584879011
1.128,-1.7451668446865733,5894.360722453565
1.132,-1.6777638356389755,5890.761504925583
1.136,-1.5991760186668262,5896.59344379135
1.14,-1.5194982576996374,5907.862645051163
1.144,-1.4507805423957612,5899.541950721074
1.148,-1.4057767141014506,5904.483049818815
1.152,-1.3964533343400731,5904.446733290708
1.156,-1.431830402427003,5909.05721161826
1.16,-1.5149407197465126,5899.5472607314905
1.164,-1.6393823853032903,5897.040576060381
1.168,-1.7865762627122725,5901.186100640096
1.172,-1.9249846296049196,5893.575909743213
1.176,-2.0122280199166522,5899.251845617908
1.18,-2.000516500622577,5898.679754571219
1.184,-1.8451457509213924,5896.303347686338
1.188,-1.514896563601367,5896.864978556703
1.192,-1.0021115807446672,5899.040595612284
1.196,-0.3293821304890645,5894.278487883515
1.2,0.450288931725742,5903.65273616204
1.204,1.2616520641714217,5891.18327727932
1.208,2.0225636520437744,5905.075667318076
1.212,2.6619480356822143,5916.551334469447
1.216,3.1341886856665284,5930.573383414651
1.22,3.4254290441201505,5942.058405576099
1.224,3.551010989313518,5961.733618004562
1.228,3.5465865174415,5965.777028552868
1.232,3.456808943844977,5984.384584653141
1.236,3.325053052829402,5990.900527942494
1.24,3.1861974042681864,6003.159965563542
1.244,3.06304539153335,6017.454053283366
1.248,2.9660248050270175,6027.75303633731
1.252,2.8953840791882053,6027.656233198422
1.256,2.8448946379801465,6048.040077837683
1.26,2.8059282079540737,6052.919315029907
1.264,2.7708042348783386,6060.121029162662
1.268,2.734628496937767,6076.398728814702
1.272,2.6954794425701865,6090.8139841812535
1.276,2.653515113581733,6092.853185597
1.28,2.6099131733079597,6095.200054882248
1.284,2.5662372414016112,6114.298434930531
1.288,2.5241633092188676,6117.064339247057
1.292,2.4851584314413966,6118.886493953016
1.296,2.4499496870807596,6139.144756050335
1.3,2.418073433436026,6148.98461807824
1.304,2.3879150461300247,6150.177247189624
1.308,2.3573301257932084,6159.473744178268
1.312,2.32451235701646,6166.122865572111
1.316,2.2885942914064596,6169.809924757645
1.32,2.249646766585346,6173.027692992376
1.324,2.2081666998691394,6195.807754138098
1.328,2.1645378132314534,6195.142721605931
1.332,2.1189979471667115,6196.2851796304585
1.336,2.0722327504153353,6197.33502728124
1.34,2.026113942418444,6219.137150700855
1.344,1.9838426294204525,6209.3189487269065
1.348,1.9491393077889263,6235.043907214999
1.352,1.924835357264783,6224.156333313158
1.356,1.9116379978560265,6238.214112641498
1.36,1.9076696563248408,6245.219211185797
1.364,1.908892171128944,6257.275150822006
1.368,1.910134517749731,6256.470332332519
1.372,1.9063069883041768,6257.40711324566
1.376,1.893430581761539,6269.719328123065
1.38,1.8692399563753954,6269.833750430429
1.384,1.83328890598702,6277.900204477579
1.388,1.7866684903532735,6289.256929218944
1.392,1.7315603470473098,6288.420395047101
1.396,1.6708045647741159,6295.3782191487135
1.4,1.607516680452004,6297.074472378922
1.404,1.5447298479985478,6303.95750558362
1.408,1.4851330665565057,6312.567502312714
1.412,1.4310498087943986,6308.366454777485
1.416,1.384681946615925,6321.863875277859
1.42,1.348406682489979,6324.149303029897
1.424,1.3247817780082687,6332.126054358081
1.428,1.3160147888491838,6327.245737335644
1.432,1.3229434345797761,6349.398174840539
1.436,1.34391116035171,6334.613792256952
1.44,1.3741209793336044,6336.720295487156
1.444,1.4059714531970748,6345.455668726998
1.448,1.4305274689479976,6352.621017847364
1.452,1.4398062016873927,6357.966964636629
1.456,1.4291548583534783,6353.220285531081
1.46,1.398836034230023,6355.240984136111
1.464,1.3541418842899076,6365.655966492512
1.468,1.3038814337887392,6370.548307452731
1.472,1.257688759311992,6377.22652176691
1.476,1.2230472302728315,6380.839319553271
1.48,1.2030826337118696,6377.609382972499
1.484,1.1959422901839818,6372.461547132794
1.488,1.1959495816015098,6382.188762613175
1.492,1.1959717054728036,6380.904307611912
1.496,1.1899699238243353,6381.014818820413
1.5,1.1747510863106363,6394.234759666557
1.504,1.1504306082221858,6398.339870349384
1.508,1.1197373695413728,6405.139706963762
1.512,1.0866960125042788,6396.362734308166
1.516,1.055265400369837,6407.341962868664
1.52,1.0282964637165954,6397.797008399168
1.524,1.0069137863456143,6408.520578534119
1.528,0.9903002433498329,6412.194961535521
1.532,0.9759002677568955,6404.041413055387
1.536,0.960105740548273,6416.233862727853
1.54,0.9393858618113505,6415.919949851195
1.544,0.9115932018483387,6425.500538013688
1.548,0.8770025795663262,6433.697518343002
1.552,0.8386577641521604,6424.559956793457
1.556,0.801818297952118,6435.202942233658
1.56,0.7726146846539831,6433.615442877587
1.564,0.7562851573877869,6433.974174746212
1.568,0.7554901335905239,6430.508089187466
1.572,0.7692247825002538,6440.364486769799
1.576,0.7927943103201164,6434.839848654826
1.58,0.8190289906694931,6440.539566827376
1.584,0.8403494720353266,6448.8778047736105
1.588,0.8507970628418313,6446.049060096514
1.592,0.8471794899626363,6446.9936992839175
1.596,0.8290851320379276,6451.737691426685
1.6,0.7981992954442545,6450.098147779145
1.604,0.7575782412868135,6456.159118226585
1.608,0.7112474018251562,6463.632769400356
1.612,0.6640661034958412,6456.345013263195
1.616,0.6215582624804797,6458.222159414403
1.62,0.5894098158590476,6452.597235506749
1.624,0.5725491655673889,6466.19774693929
1.628,0.5740566134119316,6470.868836336578
1.632,0.5943589561169794,6469.974362295008
1.636,0.6310726535897403,6470.967278290773
1.64,0.679547169961954,6468.303632500391
1.644,0.7338621716569402,6472.578912171987
1.648,0.7878851348395169,6471.860529927219
1.652,0.8360301371141102,6481.295858680702
1.656,0.8735747804568166,6474.8152381033005
1.66,0.8966951922639551,6474.245655711095
1.664,0.9025512250671365,6477.019928362178
1.668,0.889636351087836,6481.888761378233
1.672,0.8583067923374548,6484.526830652025
1.676,0.8112131071846953,6481.005899206845
1.68,0.7533972674516353,6471.857782374435
1.684,0.69194679558964,6481.406351444384
1.688,0.6351935803101056,6473.392121606942
1.692,0.5915220786584753,6481.016968452329
1.696,0.5679285866864775,6488.886534084994
1.7,0.5685540991800081,6486.67100709748
1.704,0.5935013357344243,6490.613346365672
1.708,0.6383012236389709,6491.439594139575
1.712,0.6943263476141627,6490.653808361365
1.716,0.7501944956418245,6495.591471814512
1.72,0.7938816494646492,6491.024910299084
1.724,0.8151097377114267,6487.2937589636
1.728,0.8075846679832834,6498.460122792409
1.732,0.7706058314608294,6495.357824602567
1.736,0.7094958033006322,6495.835666909249
1.74,0.6345163643665318,6503.027451141429
1.744,0.5584620407870811,6491.312522851929
1.748,0.49362662611121544,6503.522485303491
1.752,0.44905407593018065,6497.823874864873
1.756,0.42882971501997735,6505.940019378566
1.76,0.4317080839123114,6492.61112415247
1.764,0.45187932852836993,6512.19686676927
1.768,0.4804564965041976,6506.24890812029
1.772,0.5073655623104895,6497.537314474866
1.776,0.5234745456279438,6504.856874348984
1.78,0.5227183105347811,6504.48256402801
1.784,0.5036910059899301,6502.502093708878
1.788,0.47005061469513687,6504.049838242733
1.792,0.4294044307439591,6509.827543103736
1.796,0.39099937880214636,6509.783350856309
1.8,0.36307642841682564,6509.555569814187
1.804,0.35080093453311717,6503.013462858683
1.808,0.3553051667176075,6514.126227713127
1.812,0.37390748833880516,6503.780853154844
1.816,0.4012295136415643,6508.740682192052
1.82,0.4307720596875161,6515.584706121172
1.824,0.4565428102588739,6510.982737586722
1.828,0.47444698111943917,6506.378970944295
1.832,0.4831691124166894,6516.361299562101
