时间(s),电压(V),幅值(高频80K)
0.0,-1.67837630390408,5895.165472897324
0.004,-1.616789807794157,5899.231269357313
0.008,-1.5619317675991882,5891.741342672575
0.012,-1.5194262148143352,5898.550473275896
0.016,-1.4923927957083345,5900.537384040064
0.02,-1.4812270208771041,5897.394286553242
0.024,-1.4840356249565956,5907.454551033567
0.028,-1.4974863268523697,5901.79549390018
0.032,-1.517831530640286,5899.558116781258
0.036,-1.5418670187314423,5898.15354763506
0.04,-1.5675719105067984,5898.963380653624
0.044,-1.594193343063503,5898.956606801847
0.048,-1.6216794398486107,5901.61124730747
0.052,-1.6496766088546135,5899.713660883486
0.056,-1.6766296789730517,5901.118880226077
0.06,-1.699554568299128,5903.6337117176645
0.064,-1.7146912969341974,5892.257681699805
0.068,-1.7187424171004346,5902.193323096966
0.072,-1.7101086850666167,5902.276664887358
0.076,-1.6895736343670442,5909.797541302528
0.08,-1.6601657700454608,5905.467656412277
0.084,-1.6263120603245678,5900.046012433276
0.088,-1.5927245342328646,5897.470585967327
0.092,-1.5635178944948611,5906.81564734173
0.096,-1.541798603248723,5906.30302146986
0.1,-1.529619080158119,5900.043943425889
0.104,-1.5280100797296807,5898.917685850058
0.108,-1.5368976073603435,5902.103338633311
0.112,-1.5549788505370346,5897.741982102541
0.116,-1.5797742750531722,5906.119867627938
0.12,-1.6079094090543242,5896.942559176849
0.124,-1.6354492999125616,5897.648525463872
0.128,-1.6581391866338493,5905.598317614727
0.132,-1.6716333225110827,5901.6080600678
0.136,-1.6719168068691084,5893.800677137724
0.14,-1.6560313867645815,5899.270987901225
0.144,-1.6230299783731803,5907.372197528435
0.148,-1.5749267191822696,5897.2193389605945
0.152,-1.517286174259089,5905.269755599646
0.156,-1.4590188212765551,5898.333150747934
0.16,-1.4110537269938601,5910.960367194349
0.164,-1.3839487306070453,5902.678211665129
0.168,-1.3850235083702964,5898.000626795301
0.172,-1.41595182424677,5900.225958411327
0.176,-1.471729261870341,5895.021584475187
0.18,-1.5415253114577334,5902.533591702392
0.184,-1.611257853575665,5904.573913229644
0.188,-1.6670843076415147,5897.08267691628
0.192,-1.6987166853251265,5891.886820924639
0.196,-1.7016224857945368,5900.819029027257
0.2,-1.6775972571245255,5899.684283532761
0.204,-1.6337122445697607,5898.911539789254
0.208,-1.5801343416771902,5901.466451728329
0.212,-1.527607349083196,5898.449917218797
0.216,-1.485311891081566,5907.14656374402
0.22,-1.459465488292244,5892.7554725790615
0.224,-1.452689316253584,5894.921415578355
0.228,-1.4640634170039046,5892.502632057503
0.232,-1.4898118042377502,5897.889580802791
0.236,-1.5244783590703987,5896.600598823718
0.24,-1.5622694901560767,5893.530194273258
0.244,-1.5981677082070274,5889.087444623362
0.248,-1.6285828813069185,5905.555628402764
0.252,-1.6515635242390216,5905.562231714707
0.256,-1.6667245271689464,5895.943403094136
0.26,-1.675024966696949,5896.576100963502
0.264,-1.678484844538817,5891.371977251187
0.268,-1.6799243290173582,5899.705086896809
0.272,-1.6827212749733436,5898.247179215528
0.276,-1.6903760516706996,5900.055171934219
0.28,-1.7056269746517636,5903.524405807627
0.284,-1.7292277142521206,5902.360104463591
0.288,-1.7590145079570565,5893.044579420588
0.292,-1.7899760475965516,5893.149156441524
0.296,-1.815508372225817,5906.664510892978
0.3,-1.8293433459544104,5896.277671491017
0.304,-1.8273444978270692,5893.1987726195575
0.308,-1.808572001337852,5902.144006918139
0.312,-1.775424730291977,5898.576054912694
0.316,-1.7329802991269854,5899.573319383186
0.32,-1.6878051009798576,5896.941589379503
0.324,-1.6465598994491228,5892.0509176348405
0.328,-1.6147314899846181,5908.328724007481
0.332,-1.5957565032958383,5894.7634378501
0.336,-1.5906536076746587,5897.214544794055
0.34,-1.5981151687122794,5899.741253309849
0.344,-1.6149278877208748,5900.740460079358
0.348,-1.6366148198186106,5892.446230109432
0.352,-1.6582396798013215,5896.608259175096
0.356,-1.6752795523631148,5904.861237713032
0.36,-1.6843508920471257,5900.848197026002
0.364,-1.683537323232335,5893.288870306102
0.368,-1.6722763959619669,5901.336425155392
0.372,-1.6510876575088904,5895.656846108965
0.376,-1.6215131080913043,5902.024762897999
0.38,-1.5863455601572063,5898.913837118204
0.384,-1.5498244647862243,5903.461586542102
0.388,-1.5173694968694675,5897.392428912984
0.392,-1.494667620517621,5906.109792265791
0.396,-1.4863060276831603,5907.658940492837
0.4,-1.4944176727550378,5900.141907715705
0.404,-1.5178562091243717,5901.585304443246
0.408,-1.5522389031139798,5897.815667639954
0.412,-1.5909010588552774,5900.100209907262
0.416,-1.6265163118281456,5899.097585286769
0.42,-1.6529005980065565,5908.37886851777
0.424,-1.6664054492604317,5907.29152294849
0.428,-1.6664486687105904,5901.764433731178
0.432,-1.6551027087473391,5901.299664550286
0.436,-1.636014610984406,5899.470630564196
0.44,-1.6130809432590343,5897.522599802746
0.444,-1.5893084705488814,5902.679287385868
0.448,-1.5662541339057257,5907.035793158073
0.452,-1.5442890850498459,5893.141819383768
0.456,-1.5235853555295753,5896.258825593678
0.46,-1.5052948045012142,5898.326980060998
0.464,-1.4921577601779388,5899.410337200901
0.468,-1.4879803841696502,5904.543505549041
0.472,-1.4960507277228368,5901.57237417941
0.476,-1.5172741896021662,5900.016224887136
0.48,-1.5490641843932322,5903.218440619227
0.484,-1.5855804617840272,5901.815711198132
0.488,-1.619144629383677,5896.187473656743
0.492,-1.6421999333969806,5896.579886100396
0.496,-1.6491899767379454,5897.452783188017
0.5,-1.6378994292759714,5905.941973534732
0.504,-1.6099155584007103,5900.966979452013
0.508,-1.5700438668807872,5908.4712002956085
0.512,-1.5248454326818357,5902.921465742523
0.516,-1.4808114207381484,5907.940796932422
0.52,-1.4428364829187343,5899.262998693333
0.524,-1.4135271739496162,5904.197439772017
0.528,-1.3935290980173158,5909.0595078887145
0.532,-1.3825846112379963,5902.5005815115055
0.536,-1.3806619232120805,5904.0771782114325
0.54,-1.3884871390978144,5898.333118058194
0.544,-1.4072166047905679,5908.683338966624
0.548,-1.4375238278623959,5888.318478607356
0.552,-1.4786491648486544,5904.536409802954
0.556,-1.5278686097475267,5899.8211981645445
0.56,-1.5806114848359316,5905.731975720804
0.5640000000000001,-1.6312569449143148,5894.38369475168
0.5680000000000001,-1.6743838838814982,5899.918750474987
0.5720000000000001,-1.705960304059329,5905.378335622665
0.5760000000000001,-1.7239312890139629,5903.91891959736
0.58,-1.728041345715599,5899.196650761123
0.584,-1.7191859243064558,5901.192429853321
0.588,-1.6987416540993532,5903.03280347962
0.592,-1.6681925922317584,5905.028723643096
0.596,-1.6291790098222596,5897.73630130359
0.6,-1.5839024728366211,5893.528228600669
0.604,-1.5356124560954325,5905.0570911436025
0.608,-1.4888066632896384,5893.520904170732
0.612,-1.4489071340199386,5895.539340469543
0.616,-1.421424516859013,5903.143234469694
0.62,-1.4108363451316077,5898.295593913663
0.624,-1.4195236647620315,5895.0093958738535
0.628,-1.4470973563874572,5896.8358323717885
0.632,-1.4902768085920997,5907.440685478186
0.636,-1.54327535689648,5902.366354219226
0.64,-1.5985837220526935,5903.807873197517
0.644,-1.648114160793633,5899.596360454573
0.648,-1.6846500140037528,5903.796670707217
0.652,-1.7033259494498434,5891.192324669128
0.656,-1.7026535925307893,5898.34158027192
0.66,-1.6846890485063963,5903.453157940257
0.664,-1.654293095825923,5897.19937057355
0.668,-1.6177890228077505,5895.41114848234
0.672,-1.581501201950991,5896.303285445022
0.676,-1.550644338026472,5891.509229555715
0.68,-1.5288192325959664,5896.742258736928
0.684,-1.518023495798411,5900.446818991194
0.6880000000000001,-1.5188441288044434,5902.190477501368
0.6920000000000001,-1.5305477841207535,5896.107261181668
0.6960000000000001,-1.5510365442126204,5910.279476391639
0.7000000000000001,-1.5768539739253924,5899.94764940812
0.704,-1.6034565960205276,5897.511965983959
0.708,-1.6258420246172294,5895.620776549351
0.712,-1.639476295159887,5890.324650754929
0.716,-1.6413466458840213,5898.096445730051
0.72,-1.6308496573990456,5894.101579861633
0.724,-1.6101447679073402,5900.321041111593
0.728,-1.5836999299012433,5892.520425180524
0.732,-1.5570905080228954,5893.530013313837
0.736,-1.535515411339507,5909.300801691284
0.74,-1.5226499991785245,5903.402168811292
0.744,-1.5202020810341088,5904.284819221208
0.748,-1.5280879457361785,5895.998709650781
0.752,-1.544877915323351,5888.642195741023
0.756,-1.5682173155393817,5889.533180071253
0.76,-1.5951497861279262,5903.013303649671
0.764,-1.62243378042238,5903.748110252445
0.768,-1.6469467000472062,5904.185920340273
0.772,-1.666155337472278,5902.862656606482
0.776,-1.6785151626085055,5903.515216848849
0.78,-1.6836441214719189,5896.494518526468
0.784,-1.6822083829298702,5903.692333924466
0.788,-1.675582510498117,5904.548853376989
0.792,-1.665431711444971,5892.375791501267
0.796,-1.6533866952950667,5896.762665665102
0.8,-1.6409280126827845,5903.921549018223
0.804,-1.6294681500317711,5899.552740348362
0.808,-1.6204836895365444,5905.557218848242
0.812,-1.6154908467758522,5909.604618075827
0.8160000000000001,-1.6157151808689558,5894.705075614616
0.8200000000000001,-1.6214848568298328,5901.033585097141
0.8240000000000001,-1.6316080273892561,5899.6662491401685
0.8280000000000001,-1.643113684861975,5903.618931924543
0.8320000000000001,-1.6516281982724466,5902.295600896955
0.836,-1.6523899665709278,5907.3873047442685
0.84,-1.6416201077920842,5901.911360034249
0.844,-1.6177818736298346,5905.102593232298
0.848,-1.5822531707248226,5900.8001171514725
0.852,-1.5391372463572452,5901.22862053148
0.856,-1.4942777297665548,5900.993411169102
0.86,-1.453855824736847,5900.184465461839
0.864,-1.4230584725821211,5896.084078651508
0.868,-1.4051841103836713,5899.900084092453
0.872,-1.4013261664841477,5905.172680524608
0.876,-1.4105906660795373,5896.693078907342
0.88,-1.4306996677693897,5901.36989958724
0.884,-1.4587648965091893,5901.385780770933
0.888,-1.4919807090753052,5893.902250287286
0.892,-1.528034695666539,5907.01469147634
0.896,-1.5651690653347543,5897.814877292855
0.9,-1.6019635576770437,5900.244289268233
0.904,-1.6369983606701528,5900.202594346144
0.908,-1.6685993277448712,5907.691849587407
0.912,-1.694842490721873,5906.574591351833
0.916,-1.7138630317987695,5901.785001127628
0.92,-1.7243326757594688,5902.7242483648415
0.924,-1.7258745160227194,5907.108903354996
0.928,-1.7192447075383306,5898.881553834329
0.932,-1.706251931215737,5902.782670176272
0.936,-1.6894769893128336,5901.823075814168
0.94,-1.6718495423206212,5903.839575700607
0.944,-1.65612380357295,5888.1905533061445
0.948,-1.6443618719320816,5901.584865012927
0.952,-1.6376052649193742,5896.888025341345
0.956,-1.6358416483127842,5899.6881296844695
0.96,-1.6381951224217959,5899.991850005472
0.964,-1.6431837456315095,5908.666016425925
0.968,-1.6489633103864625,5895.000513053891
0.972,-1.6535750233890372,5906.677653261145
0.976,-1.6552194572025272,5896.61800795355
0.98,-1.652526050340855,5896.511881609973
0.984,-1.644764386654771,5900.29412530792
0.988,-1.631970138241264,5896.701251090692
0.992,-1.6149770598047524,5896.857575043821
0.996,-1.5953090728901296,5898.9790233212125
1.0,-1.5748727025472746,5901.023160802474
1.004,-1.5555170157149278,5906.396270841196
1.008,-1.5386963199324746,5890.45553944794
1.012,-1.5254365343495957,5901.638971049985
1.016,-1.5165564439881705,5896.39523024721
1.02,-1.512887386860919,5894.123925328892
1.024,-1.5152507915824638,5894.217791939816
1.028,-1.524134479521211,5895.951346042248
1.032,-1.53920703272304,5894.507961142394
1.036,-1.5589276634875384,5895.59086377957
1.04,-1.5805089976236162,5900.08773083174
1.044,-1.600353880574159,5895.467205756065
1.048,-1.6148452675911347,5901.625510805556
1.052,-1.6211729754216062,5895.096224231046
1.056,-1.617906307661895,5899.9867265989615
1.06,-1.6052279154374172,5903.066481305408
1.064,-1.5849027336200283,5896.400328875226
1.068,-1.5600417592600904,5895.804100928832
1.072,-1.5346297680563799,5899.814466031589
1.076,-1.5127714028303862,5896.904514784946
1.08,-1.4977330803321258,5900.021983425418
1.084,-1.4910531321132379,5900.57037028064
1.088,-1.4920965612355381,5899.806630172181
1.092,-1.4983136199674199,5901.942685258066
1.096,-1.506153435858434,5900.018709762426
1.1,-1.5122618111905421,5899.877473849846
1.104,-1.5144656276351338,5917.408841685587
1.108,-1.5122051278885011,5886.356458238584
1.112,-1.5063887281660724,5900.85530338216
1.116,-1.4988817254310842,5909.900891022433
1.12,-1.4919024444230329,5897.941450951599
1.124,-1.4875376041362145,5898.464479861403
1.128,-1.4874597082361865,5902.495778006874
1.132,-1.4927882708610725,5894.66861183163
1.136,-1.503976277240832,5899.451407036567
1.14,-1.52066763034654,5905.570776240524
1.144,-1.5415954322633834,5897.898559678472
1.148,-1.5646604822236552,5887.063245497635
1.152,-1.5872701399550717,5900.980216574239
1.156,-1.6068718474427806,5905.6534767879175
1.16,-1.6215103750856152,5910.637438496837
1.164,-1.6302318440038535,5897.315336923207
1.168,-1.6332101286513518,5905.018516589729
1.172,-1.6315517917560185,5904.603607184813
1.176,-1.6268320235465734,5903.517930236511
1.18,-1.620490422076296,5899.905566948584
1.184,-1.6132425388786207,5900.546067533624
1.188,-1.6046506038848127,5902.403119413068
1.192,-1.5930049475563401,5893.89238184776
1.196,-1.5757165969616431,5889.819685331482
1.2,-1.5503461565642884,5901.580098999366
1.204,-1.5160442938867296,5897.55458666364
1.208,-1.474797319748178,5917.588401572117
1.212,-1.431872315571821,5904.260781520578
1.216,-1.395248636800167,5893.827720155777
1.22,-1.3742473852753685,5898.15769632654
1.224,-1.3777864752514528,5909.57590171552
1.228,-1.412676863856988,5905.997825433939
1.232,-1.482161908919227,5899.678265383499
1.236,-1.5845832017896586,5896.083223412361
1.24,-1.7118808553622216,5899.002346188608
1.244,-1.847864505119631,5893.577476247178
1.248,-1.9668259530913468,5894.864900406074
1.252,-2.033722627424572,5902.957524431549
1.256,-2.0072958483624967,5898.591275432799
1.26,-1.8468062059294115,5898.961742721027
1.264,-1.5217279127689989,5897.175479362762
1.268,-1.022216483492559,5901.526477137742
1.272,-0.367012561601435,5889.164801142871
1.276,0.39475449054070333,5906.86705063207
1.28,1.1900831976937678,5890.340892708784
1.284,1.9362369934832813,5913.061423033098
1.288,2.558449281252154,5929.313128634325
1.292,3.0054509515977514,5946.48492114778
1.296,3.258167783897896,5970.307309316908
1.3,3.329863857521384,5976.618987158004
1.304,3.258946186247248,5994.031124756494
1.308,3.097483937473121,6016.523968811338
1.312,2.89899633513461,6035.621928913388
1.316,2.7084284355473702,6059.305168983053
1.32,2.555975744108716,6062.918041631184
1.324,2.455157022298171,6081.385487259774
1.328,2.404613774194951,6086.722932967379
1.332,2.392526008477582,6120.419590506315
1.336,2.40218141383327,6125.76693916252
1.34,2.417154315014198,6140.863765827591
1.344,2.4248762736885845,6152.70999654442
1.348,2.4181104451583755,6168.799582076471
1.352,2.3946506919296993,6172.345195462961
1.356,2.3560059205070245,6212.479287361207
1.36,2.3057821461833163,6209.328733651449
1.364,2.2482207168009145,6226.241297926668
1.368,2.1871442303089763,6233.447555082714
1.372,2.1253926866870825,6242.682604120285
1.376,2.0646784988595597,6266.470284783555
1.38,2.0057460074940967,6275.332562125868
1.384,1.948780743726912,6275.384609303651
1.388,1.8940146793761345,6296.655655877908
1.392,1.842355770236826,6302.261656098774
1.396,1.7957665554606643,6310.702469180322
1.4,1.7571593569149693,6324.85743300765
1.404,1.7297524269897653,6336.550402728979
1.408,1.7160482052532853,6346.766005361727
1.412,1.71675671829486,6361.8201460505625
1.416,1.7300297052832962,6366.556830631723
1.42,1.7513049756920762,6370.815180739824
1.424,1.773937765399091,6391.800315982182
1.428,1.7906105195337054,6398.672324265196
1.432,1.7952253335428126,6402.849042238166
1.436,1.7846584813153374,6413.238212235186
1.44,1.7596269113370502,6420.763520790506
1.444,1.7242146924864603,6444.213733818608
1.448,1.684236668006489,6440.818676132428
1.452,1.6451448889612732,6454.998091063195
1.456,1.610292575005098,6454.996576022946
1.46,1.5801171566686467,6457.272026082142
1.464,1.5524076535469107,6481.2323272682415
1.468,1.5234466495853918,6478.251589299902
1.472,1.4895656182028258,6488.602890978866
1.476,1.448586048666502,6494.567566858487
1.48,1.4007307802724747,6505.2456017811655
1.484,1.3487808860982065,6511.01386942508
1.488,1.2974269051123373,6516.842162026615
1.492,1.2519499206283033,6530.196521149627
1.496,1.2166131191980585,6531.4693710418405
1.5,1.1933320222247343,6540.295908485178
1.504,1.1811472057506798,6550.483352216513
1.508,1.176713060167059,6557.296533123887
1.512,1.1755806639869997,6555.773329253339
1.516,1.1737105388055313,6560.979601658961
1.52,1.1685613806106974,6563.805161383875
1.524,1.1593197426848316,6576.299667421133
1.528,1.1463069080937422,6575.695087779392
1.532,1.1300627655004876,6591.84074753807
1.536,1.1107219659084273,6590.1569696184
1.54,1.0880017188625104,6588.625467933675
1.544,1.0616683703689882,6605.621526561159
1.548,1.0320470833854654,6609.005919974343
1.552,1.000179073437205,6604.362413925148
1.556,0.9675766651234506,6614.03858418706
1.56,0.9358588455486838,6615.969041246715
1.564,0.9065679403773491,6625.801993434123
1.568,0.8812268195117039,6637.915174628681
1.572,0.8614652252249843,6641.839825634846
1.576,0.8489699533713644,6643.816142192571
1.58,0.845100779841427,6645.661502356615
1.584,0.8502365298688339,6655.630242933548
1.588,0.8631675622332051,6664.045115148385
1.592,0.880938880931388,6656.510251667355
1.596,0.8993635274906073,6673.981661524374
1.6,0.9140667075862801,6669.134889134314
1.604,0.9216152141376717,6670.044241976479
1.608,0.9202286047603098,6681.22152025332
1.612,0.909812622147674,6675.256938563617
1.616,0.8914624155187119,6680.981701904168
1.62,0.866854904424103,6677.849594175298
1.624,0.8378807983596871,6693.798735946074
1.628,0.806578497673155,6689.075264196394
1.632,0.7752111146565513,6690.030564452455
1.636,0.7463036638515621,6704.157489852714
1.64,0.7225481231000119,6700.002854789075
1.644,0.7065615329788125,6709.397929573461
1.648,0.7005076949400508,6701.522723972478
1.652,0.7056117712518382,6712.7747439150735
1.656,0.7216496361909445,6700.52204447002
1.66,0.7465739561030386,6718.465578451477
1.664,0.7764962918750663,6718.370161049828
1.668,0.8061998928273785,6716.615888523263
1.672,0.8301893370672219,6731.413317521167
1.676,0.8440655122968945,6731.449623898422
1.68,0.8458248504613178,6727.482285065273
1.684,0.8365879713800883,6734.559167965756
1.688,0.8203737834817135,6742.251597759262
1.692,0.8028718646772083,6739.946201917957
1.696,0.7895648180879058,6741.177085538734
1.7,0.7838310201481884,6740.765543975295
1.704,0.7857406130887375,6741.497567084505
1.708,0.792080836837427,6748.401763923701
1.712,0.7976658906059345,6747.616031537194
1.716,0.7973809653230659,6757.612277171228
1.72,0.7880763431538104,6760.828442165925
1.724,0.7695864904429963,6759.736485328098
1.728,0.7446130443981882,6757.980534027774
1.732,0.7176588385937163,6764.951312506667
1.736,0.6934920629391521,6756.421603558118
1.74,0.675740182039813,6769.674616767156
1.744,0.666104110481701,6765.685282567638
1.748,0.6643107594431787,6775.444342588412
1.752,0.6685011427258476,6767.7580181456
1.756,0.675661770412977,6772.384034073347
1.76,0.6820123193304007,6769.908432481973
1.764,0.6835590105005133,6777.651597177749
1.768,0.6769748247289028,6780.482256261967
1.772,0.660685611279373,6785.649626006263
1.776,0.6357827309462005,6781.619600178524
1.78,0.6062725619176381,6787.339017656708
1.784,0.5783166721721889,6787.771772199066
1.788,0.5585469746500535,6783.916874778746
1.792,0.5520064472543222,6786.495704270511
1.796,0.5604396053991919,6787.846692926345
1.8,0.5815051409694889,6792.757953351337
1.804,0.6092001937582611,6786.528329821717
1.808,0.6354675658534142,6794.749764293164
1.812,0.6525529479575531,6789.635924190815
1.816,0.6552694804417353,6798.760261161736
1.82,0.6422540977943104,6791.778255890861
1.824,0.6157964201041329,6799.871414097617
1.828,0.5805929834117621,6786.907055643785
