时间(s),电压(V),幅值(高频80K)
0.0,-1.0862176729722524,5903.179435206011
0.004,-1.1186831905696635,5898.640749299001
0.008,-1.1496440123015932,5901.340575893801
0.012,-1.1769831092976784,5893.239183291916
0.016,-1.1989706500594806,5902.781746208852
0.02,-1.2146815876131147,5895.287961138741
0.024,-1.2242790509000117,5895.388220112286
0.028,-1.228997945327431,5896.64320207779
0.032,-1.2308341138558816,5888.399724279544
0.036,-1.2320361444024819,5897.04795533522
0.04,-1.2345149023012825,5896.140315864628
0.044,-1.2393531150137782,5901.12979037367
0.048,-1.2466817569498978,5899.928488361479
0.052,-1.256065949707441,5895.59652580492
0.056,-1.2671475375705827,5900.340610776851
0.06,-1.2799814978007544,5903.4231134797765
0.064,-1.2946854235086536,5907.722337346406
0.068,-1.3105944915446681,5907.545164976081
0.072,-1.325561240213059,5903.534752241823
0.076,-1.3359904059732146,5896.287023661056
0.08,-1.3377250865785202,5899.083639121031
0.084,-1.327391640455384,5902.698242449971
0.088,-1.3036392194226745,5902.229211163805
0.092,-1.2678951298426222,5897.8336727280575
0.096,-1.2244995294809347,5901.250301613486
0.1,-1.1801688586908987,5904.614192727048
0.104,-1.1427750432034798,5899.396206201372
0.108,-1.1196135822177342,5907.245022005849
0.112,-1.1156159453566141,5901.042006840488
0.116,-1.1320783408137425,5903.669044561944
0.12,-1.166298211776029,5898.388725961331
0.124,-1.2121842004028303,5900.836967798187
0.128,-1.261657095675883,5893.15394641451
0.132,-1.3065233935134974,5898.418966372624
0.136,-1.3403705417509317,5910.18235863487
0.14,-1.35990421626243,5894.8962382721365
0.144,-1.3652162323477983,5898.568813994068
0.148,-1.3588830295201073,5897.023187671938
0.152,-1.3443694782766173,5899.791103150089
0.156,-1.3245289958530684,5907.321106034846
0.16,-1.3008146277743469,5906.175280045973
0.164,-1.2733586082055413,5899.703368491037
0.168,-1.2417233860602226,5899.506059125844
0.172,-1.2059900074859664,5903.4990217016375
0.176,-1.1677798827895325,5899.139983196553
0.18,-1.1307547576989905,5901.629838134453
0.184,-1.1002549392013063,5898.422879759515
0.188,-1.082080358944228,5892.1524244583015
0.192,-1.0808253036811297,5909.969216873828
0.196,-1.0984074687621574,5909.59256255581
0.2,-1.1333561254720543,5894.946011700132
0.204,-1.1810863835172178,5897.243753490054
0.208,-1.2349805762719006,5900.423007342271
0.212,-1.2878344187854058,5901.4276526711365
0.216,-1.333183289852505,5893.099704250275
0.22,-1.3661636555230094,5896.464721019434
0.224,-1.383824715156686,5898.888976984851
0.228,-1.3850719704012675,5904.579602277691
0.232,-1.3705141958534572,5898.307180050975
0.236,-1.342340736739604,5896.571872077196
0.24,-1.3041629463354945,5899.141579890476
0.244,-1.2607039602876722,5896.723519429925
0.248,-1.2172897810140308,5890.277419760001
0.252,-1.1791667011420501,5904.955898852607
0.256,-1.1507203256669218,5900.684060199288
0.26,-1.134724063485038,5905.139292305997
0.264,-1.1317887936508166,5903.556986759173
0.268,-1.1401870831112166,5896.965816843605
0.272,-1.1561648172965109,5909.529824259552
0.276,-1.1747466146012273,5899.353620793389
0.28,-1.1909338758998458,5900.576941709906
0.284,-1.201087633883058,5911.198593159259
0.288,-1.2041327758506546,5890.122428065492
0.292,-1.2020698798679306,5899.47192966117
0.296,-1.1993565386326714,5906.92378235139
0.3,-1.2011574598213657,5903.183768246849
0.304,-1.2110629129900825,5894.504691331018
0.308,-1.2292380670447978,5899.946857368693
0.312,-1.2518447145212241,5902.10996932422
0.316,-1.2720508827949122,5906.076748628791
0.32,-1.2822920962478632,5900.370485519917
0.324,-1.2769439931532616,5903.455686944078
0.328,-1.2544041072058472,5903.2193395186805
0.332,-1.217837243840145,5899.337114966908
0.336,-1.174376885632356,5900.342657419773
0.34,-1.1331167327589056,5886.893172991599
0.344,-1.1025828821090116,5900.826405464241
0.348,-1.0884899115447593,5897.068899115756
0.352,-1.0924350631602295,5890.145924404398
0.356,-1.1118322617276353,5897.817133160964
0.36,-1.1409835720891341,5894.380099640842
0.364,-1.1728679169867733,5899.625400694164
0.368,-1.2010754969947492,5897.981425399367
0.372,-1.2213590693354677,5893.558858631644
0.376,-1.2324547679115547,5895.172367169626
0.38,-1.2360431077984837,5898.274010455653
0.384,-1.2359130417720627,5894.807862572454
0.388,-1.2365522039132648,5901.3641918882895
0.392,-1.2415308430253837,5900.03927539995
0.396,-1.2521685990842677,5894.072253613202
0.4,-1.266977566372981,5895.698231349773
0.404,-1.282130734209929,5894.650396270641
0.408,-1.292770741699889,5904.203619185895
0.412,-1.2946379510163266,5903.659260553172
0.416,-1.2854504898887593,5897.282123313427
0.42,-1.2656340346503094,5910.7771810493
0.424,-1.2382485968457289,5901.58624140587
0.428,-1.20823380511724,5901.278698831193
0.432,-1.1812901625531598,5902.151726990387
0.436,-1.1627339992682053,5900.468978198641
0.44,-1.1565494664634268,5894.304307093515
0.444,-1.1647308038739288,5894.8573605916645
0.448,-1.186941962122976,5894.856030435218
0.452,-1.2205182158502728,5913.580373303194
0.456,-1.2608250300092585,5898.49574244512
0.46,-1.3019362012043894,5894.101987653421
0.464,-1.3375565015529916,5893.456412532977
0.468,-1.3621180332539438,5903.693928593477
0.472,-1.371932609143259,5897.88332758
0.476,-1.3661450958407932,5901.419411940715
0.48,-1.3471381600818724,5906.692735506824
0.484,-1.3201391712140491,5907.150181379897
0.488,-1.2920536392242399,5902.223429584577
0.492,-1.2698254732178937,5895.251896056467
0.496,-1.2587545089164502,5898.220589212661
0.5,-1.2611792846783467,5897.033075128298
0.504,-1.2758367034776485,5892.4014383356
0.508,-1.2980726353131302,5895.489595798755
0.512,-1.320886187080025,5900.118132711044
0.516,-1.336586304945338,5906.859349394855
0.52,-1.3386971081760062,5903.654732467578
0.524,-1.323678731349584,5890.937777046153
0.528,-1.292015152186665,5898.600119271657
0.532,-1.2483103122136383,5898.916548364545
0.536,-1.200285878626095,5904.336682068553
0.54,-1.156909718399737,5897.495013416062
0.544,-1.126142158496892,5892.418492557563
0.548,-1.1128960982076255,5895.418934248262
0.552,-1.1177799076516473,5899.630307109132
0.556,-1.13701451896774,5892.88207064127
0.56,-1.1635835387723017,5895.962357109598
0.5640000000000001,-1.1892828762447258,5901.228067444863
0.5680000000000001,-1.2070412762795468,5890.12839611558
0.5720000000000001,-1.2128057403371697,5901.121781889997
0.5760000000000001,-1.2064531708642776,5911.321749455945
0.58,-1.191523872531907,5903.285773781012
0.584,-1.173934210589373,5901.1668660479045
0.588,-1.16009828447347,5904.2624444428175
0.592,-1.1550250320858955,5912.586925333892
0.596,-1.1609502377767091,5901.737166632071
0.6,-1.1768999331691445,5903.9132030395385
0.604,-1.1992602201985336,5900.123219712357
0.608,-1.2230393084935764,5902.029268036823
0.612,-1.2432627946520765,5896.362018260702
0.616,-1.256008844326476,5900.877632664839
0.62,-1.2588913859210342,5903.614150529664
0.624,-1.2511016922253015,5892.705444659746
0.628,-1.2332569973287022,5898.007856133375
0.632,-1.2072533232329343,5889.221198561822
0.636,-1.1761433682926685,5898.446901325568
0.64,-1.1438922350377005,5893.848218478776
0.644,-1.1148454772363743,5899.472236812527
0.648,-1.0929142333149344,5901.036893029259
0.652,-1.0807228304320837,5894.151109137763
0.656,-1.0790701807479148,5904.413167221727
0.66,-1.086920010529933,5892.217691232937
0.664,-1.1018689199833678,5898.731678597134
0.668,-1.120849558964073,5900.869868201285
0.672,-1.1407923783898541,5897.925030292733
0.676,-1.1590485547909897,5898.453597142082
0.68,-1.1735236626925463,5910.434062453661
0.684,-1.182657518033606,5899.7384837226045
0.6880000000000001,-1.1854968394068932,5907.501913779589
0.6920000000000001,-1.181990432640764,5901.823949775148
0.6960000000000001,-1.173346715313143,5891.179376288689
0.7000000000000001,-1.1621252487255294,5906.002797667401
0.704,-1.1518635558063817,5897.667424519042
0.708,-1.1463194680675537,5897.826661564103
0.712,-1.1486014096508619,5895.495083485291
0.716,-1.1604816001257605,5905.762945037536
0.72,-1.1820780964353546,5899.588756944588
0.724,-1.2119217755120995,5901.116483188187
0.728,-1.2472830487619881,5903.528654961517
0.732,-1.2845920474932953,5902.030738274004
0.736,-1.3198416380980278,5902.608114567048
0.74,-1.3489385392356263,5899.541171876364
0.744,-1.3679958718780136,5893.008737811376
0.748,-1.3735766622406071,5899.395859782575
0.752,-1.362986329812061,5900.460706759068
0.756,-1.3347924856386721,5903.63115505745
0.76,-1.2895989169926967,5895.410255905711
0.764,-1.2307340359641779,5899.329040035699
0.768,-1.1643149318860881,5891.652612919285
0.772,-1.0984018311592514,5900.847503901978
0.776,-1.0414690845727714,5899.379373544766
0.78,-1.0007580249072385,5901.687277450905
0.784,-0.9810395729857523,5903.482528088207
0.788,-0.9840214852660776,5906.001030485603
0.792,-1.008328211381689,5893.529957286035
0.796,-1.0498459938097366,5903.784612952114
0.8,-1.1023041920816512,5909.898271401117
0.804,-1.1581129548399434,5904.837106647499
0.808,-1.2094911474999912,5900.108860228131
0.812,-1.2497508904461716,5900.11797326445
0.8160000000000001,-1.274415354244194,5902.829871773374
0.8200000000000001,-1.2818303632686316,5902.593342309165
0.8240000000000001,-1.273133824669166,5896.808627771296
0.8280000000000001,-1.2517179395628124,5901.314282497014
0.8320000000000001,-1.2224509959076428,5908.057662745291
0.836,-1.1908563990376102,5896.748351101293
0.84,-1.1622966591941422,5895.508960827557
0.844,-1.1411472934933549,5899.11247903694
0.848,-1.1300255256774414,5904.683824841604
0.852,-1.129254204986283,5894.693461231575
0.856,-1.1367554427895845,5897.845968075543
0.86,-1.1484742689296727,5896.073368477455
0.864,-1.1593148602231307,5896.117375594293
0.868,-1.1644669721305487,5899.350870771019
0.872,-1.1608744194778535,5899.8179498776935
0.876,-1.14843809762984,5901.948114520789
0.88,-1.1304526503576244,5900.496648524417
0.884,-1.1129217530249138,5899.913672257218
0.888,-1.1028164339341981,5894.731404045109
0.892,-1.1058071140744787,5895.181615443298
0.896,-1.1242348004446152,5903.30512044044
0.9,-1.1560219317319798,5895.036692479135
0.904,-1.1949441942042973,5903.823630622029
0.908,-1.2322488692858633,5900.00902442708
0.912,-1.2590972328252044,5895.869939232453
0.916,-1.2689680055629793,5899.639599450326
0.92,-1.2592253930854709,5900.523539124069
0.924,-1.2314863214149312,5908.795414296376
0.928,-1.1909192786027727,5896.139655284724
0.932,-1.1449100665544831,5899.144043630369
0.936,-1.1015684362868887,5900.549441307543
0.94,-1.0683895124284983,5892.125435408052
0.944,-1.0511593693630619,5897.048952013841
0.948,-1.0530636368468427,5894.992002657075
0.952,-1.0740073109295112,5908.320476851713
0.956,-1.11031851192343,5900.084191621374
0.96,-1.1551104880159628,5912.955190725164
0.964,-1.1994631523965251,5893.69347751626
0.968,-1.2342771948418236,5907.081883843683
0.972,-1.2523341921045104,5897.679748080286
0.976,-1.2499637838393576,5898.167898413351
0.98,-1.2278559759003667,5902.463032543796
0.984,-1.1908667451340658,5895.208640113449
0.988,-1.1469364542878764,5894.87667601762
0.992,-1.1053653793101341,5902.220384543499
0.996,-1.0747564459903642,5897.328372527065
1.0,-1.061033347678354,5891.678843699947
1.004,-1.0660283930752892,5907.036837538497
1.008,-1.0871005040576096,5899.316906994387
1.012,-1.117995103118241,5899.738652690284
1.016,-1.1507012750222712,5899.5874994968135
1.02,-1.1776337500546694,5899.84133794956
1.024,-1.1933972314883106,5896.235334721392
1.028,-1.195714065293683,5887.1414786048745
1.032,-1.185499629534956,5901.993267706754
1.036,-1.166292164695801,5905.557878930963
1.04,-1.1433039774139953,5907.16529523783
1.044,-1.1223533149390053,5901.9596320622
1.048,-1.1088705967750223,5894.090757078465
1.052,-1.1070752888715447,5901.6755605276585
1.056,-1.1193655534912226,5895.804343203894
1.06,-1.1459577129743053,5892.53556098166
1.064,-1.1847996418367084,5893.78892242687
1.068,-1.2317628279948107,5900.072736260202
1.072,-1.2811285352494939,5889.178580728504
1.076,-1.3263826157240552,5904.48938740792
1.08,-1.3612572558933498,5899.241811287704
1.084,-1.3808514771524567,5901.101614124258
1.088,-1.3826037043495059,5898.807385994168
1.092,-1.366864415333777,5904.488244562386
1.096,-1.3368241820607314,5902.846645028276
1.1,-1.2976921160442538,5897.199081914121
1.104,-1.2553151922066965,5897.36153716173
1.108,-1.2147117612503961,5907.505096649062
1.112,-1.1790632687582807,5904.447401810759
1.116,-1.149514914606029,5895.651445914124
1.12,-1.1257770994826655,5899.529584715396
1.124,-1.1071623955681382,5897.323072559374
1.128,-1.0935143317683982,5900.247055931192
1.132,-1.0855850374442755,5887.981125701607
1.136,-1.084722626341059,5903.431729266728
1.14,-1.0920467749062484,5905.115193856112
1.144,-1.1075003173113667,5890.9250719402735
1.148,-1.1292367489965847,5890.605222659401
1.152,-1.153700433488839,5898.608509849598
1.156,-1.1764491468873166,5888.142133617236
1.16,-1.1933699086679939,5906.995517469054
1.164,-1.2017186126472237,5903.641301030022
1.168,-1.2005678118692658,5904.690606062223
1.172,-1.19064614318915,5901.8428506413
1.176,-1.1738584058540142,5892.919584200167
1.18,-1.1528126350143586,5903.435046507601
1.184,-1.1305341339827715,5902.788536481624
1.188,-1.110331552549571,5900.018100325163
1.192,-1.0955794067790123,5905.784901405839
1.196,-1.0891691343303762,5901.257824701795
1.2,-1.0926728528011938,5890.22719956087
1.204,-1.1056320429412525,5897.861751932117
1.208,-1.1254507026132072,5889.725127366534
1.212,-1.1480860131762123,5894.065883596994
1.216,-1.169343171805416,5895.557639382928
1.22,-1.1862882089484676,5912.879484667029
1.224,-1.1981721206299485,5889.945752996599
1.228,-1.2064157155586257,5889.31544844768
1.232,-1.2136529911911158,5902.838007721344
1.236,-1.2223319771981476,5903.410130512512
1.24,-1.2335843103201034,5896.529799221408
1.244,-1.2468646816304176,5906.265479103308
1.248,-1.2604043354433865,5897.6407226758365
1.252,-1.2721300613293536,5896.537994561083
1.256,-1.2805607091890407,5898.015743416923
1.26,-1.285282550790197,5892.93671833779
1.264,-1.2868222962400024,5891.677072695609
1.268,-1.2860257876775714,5908.115732957278
1.272,-1.2833234251632266,5899.050352736445
1.276,-1.2783477045292868,5906.342551199801
1.28,-1.270163005344823,5906.420125767955
1.284,-1.2579936943767451,5901.672694602378
1.288,-1.2420503220884396,5895.749591730826
1.292,-1.224024513415564,5902.378484362765
1.296,-1.2070075429901657,5904.93922642891
1.3,-1.1948179823056708,5900.081568956355
1.304,-1.1908993246302888,5887.521045269169
1.308,-1.197086998270333,5900.708405161488
1.312,-1.2126581473490183,5897.77246436753
1.316,-1.2340941880036596,5907.935164434772
1.32,-1.255810868790338,5896.158179964339
1.324,-1.2717292633938917,5905.817470681239
1.328,-1.2771278859410269,5901.047009129231
1.332,-1.2700248958450475,5902.030765194976
1.336,-1.251560576256547,5905.299995569521
1.34,-1.225323852576598,5904.084695428516
1.344,-1.1959879011323484,5900.141559249623
1.348,-1.1678229883553077,5899.387944340755
1.352,-1.1436264905564448,5904.637714553383
1.356,-1.124404163556064,5900.91369401118
1.36,-1.1098432262191387,5901.204009070213
1.364,-1.099312246377642,5900.157173651191
1.368,-1.092880232659056,5893.969405559659
1.372,-1.0918137546760844,5908.773380268925
1.376,-1.0982727018985732,5903.941537264906
1.38,-1.114318442558081,5903.349381210833
1.384,-1.140626240575177,5896.73111340169
1.388,-1.175407742584413,5901.27721367598
1.392,-1.214041687578759,5899.75497715939
1.396,-1.2497259451824476,5905.930354575089
1.4,-1.2750859808899235,5904.948886146638
1.404,-1.284257800031169,5899.815270577719
1.408,-1.274704253672219,5904.310100518723
1.412,-1.248057057616704,5902.351634926183
1.416,-1.2096428720372043,5901.118863675757
1.42,-1.1669000578885569,5896.641007599911
1.424,-1.1273141138950966,5907.923490543166
1.428,-1.0965894044975981,5902.821873750351
1.432,-1.077581645172284,5894.859101805758
1.436,-1.0701936171879298,5905.225835649061
1.44,-1.0721017144844087,5897.80703684527
1.444,-1.0799378688564054,5898.970532033202
1.448,-1.0904840753884828,5895.84080357585
1.452,-1.1015263855901856,5900.840077918601
1.456,-1.112172704244509,5897.751359382239
1.46,-1.1226208722689868,5898.705479505207
1.464,-1.1335671206152362,5904.117761672084
1.468,-1.1455924563928774,5901.613780287957
1.472,-1.1588209868532673,5895.866818950452
1.476,-1.1729086982520338,5912.97179096603
1.48,-1.1871985909829108,5898.0595718844925
1.484,-1.200862438516824,5905.501311426202
1.488,-1.2129994031267892,5902.823970236917
1.492,-1.2227821730738118,5901.98426600534
1.496,-1.2297224913401144,5905.987687846556
1.5,-1.2340069150798056,5898.789017565559
1.504,-1.2367257719366476,5899.859552822235
1.508,-1.2397914239298002,5885.6856338367215
1.512,-1.2454801388552184,5899.181720205718
1.516,-1.2557547404977967,5912.859101859185
1.52,-1.2716537429415238,5895.606070526342
1.524,-1.29298040474117,5909.696105755991
1.528,-1.3183489531334978,5909.066066518401
1.532,-1.3454462910793423,5896.517707471304
1.536,-1.3712760006471456,5897.521705445696
1.54,-1.3922794073833544,5904.495560301835
1.544,-1.4044849201237768,5898.612580161931
1.548,-1.4039604162175792,5904.086674906853
1.552,-1.3876964905668263,5908.622832982885
1.556,-1.3547257497520695,5902.110673726151
1.56,-1.307000981342465,5897.679418511828
1.564,-1.2495392870709587,5906.503419545639
1.568,-1.1896411582901032,5904.795356378831
1.572,-1.1353807450264923,5899.3425299228375
1.576,-1.0937819576308287,5897.686957585273
1.58,-1.0691488810209289,5916.678638938575
1.584,-1.0620238426195763,5907.769117445126
1.588,-1.0691543671657187,5903.8990656468495
1.592,-1.0845428694836918,5905.368575891141
1.596,-1.1012246794429,5901.55979243856
1.6,-1.1131397376584031,5893.273997033649
1.604,-1.1164923739271126,5903.471593584414
1.608,-1.1102844476803024,5898.015402759404
1.612,-1.0960850921479404,5905.35157321756
1.616,-1.0773576703896879,5899.353159847265
1.62,-1.0586665506248516,5906.024128367658
1.624,-1.0448726777007866,5889.35173460734
1.628,-1.0402306689067788,5899.624159993094
1.632,-1.0473670756519988,5898.217283368352
1.636,-1.066405272822495,5901.013572323596
1.64,-1.0946713690960508,5898.58364675381
1.644,-1.1272334666348538,5895.724121292275
1.648,-1.1581194672999995,5893.968901698164
1.652,-1.1817425770826775,5903.078950373892
1.656,-1.1940398388274396,5901.247368025166
1.66,-1.1930577498632138,5903.692728006087
1.664,-1.1790114849200493,5897.898129293462
1.668,-1.1540271695052196,5901.414194951194
1.672,-1.1217762455048403,5898.063849587866
1.676,-1.0870598587017992,5898.465898357726
1.68,-1.0552449972040674,5899.397377239667
1.684,-1.0314768553730345,5901.616044179395
1.688,-1.0198012553039533,5901.159986070757
1.692,-1.0224944079755252,5906.223777710042
1.696,-1.039822849502587,5908.8063454115545
1.7,-1.0702239961067008,5901.89443267595
1.704,-1.1107157769572291,5892.657386533547
1.708,-1.1573207616241865,5897.7394590703225
1.712,-1.205406420261191,5899.275010070469
1.716,-1.25000672265381,5889.06479960143
1.72,-1.2862770861263793,5905.802561464703
1.724,-1.3101592808830633,5900.625190698073
1.728,-1.3191332315621243,5900.3879140655135
1.732,-1.3127720047668547,5897.806401678906
1.736,-1.2928450982293231,5899.849221516589
1.74,-1.262917276588438,5904.665377879969
1.744,-1.227605219421345,5902.311919096664
1.748,-1.1917470308345937,5899.656881072373
1.752,-1.1597052577743308,5893.626020769776
1.756,-1.1349138649411423,5898.175772961909
1.76,-1.119624867528738,5899.054432488194
1.764,-1.114701279241633,5902.354290496481
1.768,-1.1193769354534624,5899.357230037513
1.772,-1.1311305328704342,5903.4398761215525
1.776,-1.145967427439454,5905.768955706322
1.78,-1.159291056659989,5892.058385377685
1.784,-1.1672304485816356,5903.227873905988
1.788,-1.167961079062844,5901.323533230969
1.792,-1.1624006760444752,5888.121638517886
1.796,-1.1538247345705448,5895.07129880842
1.8,-1.1464302521558793,5896.405638737094
1.804,-1.1434240035123806,5896.436847529374
1.808,-1.1454803050116262,5888.391405138114
1.812,-1.1502670855185124,5902.5073025583815
1.816,-1.1532700452906781,5902.206997102103
