时间(s),电压(V),幅值(高频80K)
0.0,-1.6555083532655968,5899.657881264329
0.004,-1.5005343314487776,5904.199673082695
0.008,-1.367802189454787,5898.834107003185
0.012,-1.2732547573004154,5903.3776993542615
0.016,-1.2233730897162987,5903.166252552351
0.02,-1.214320241251384,5906.441196668172
0.024,-1.2337543440784022,5905.34188624029
0.028,-1.264677759264637,5900.771683191673
0.032,-1.290277492604494,5904.003884070394
0.036,-1.2984329561463,5908.145806391232
0.04,-1.2845245171343986,5903.410433010703
0.044,-1.2516864320933658,5904.187662010392
0.048,-1.2086820738108999,5896.385852187847
0.052,-1.1665029198880226,5896.651181304985
0.056,-1.1349774594901887,5895.550500422596
0.06,-1.1202388317866931,5900.620966147104
0.064,-1.1234568205890696,5904.364212614865
0.068,-1.1410156395917488,5898.994205285538
0.072,-1.1660289658097263,5898.188170663014
0.076,-1.190658270535971,5896.040148554077
0.08,-1.2084674500208124,5898.398950132671
0.084,-1.21616600784905,5900.070132529638
0.088,-1.2143669914139124,5894.904737578252
0.092,-1.207219201370507,5899.911312513835
0.096,-1.2009739931566243,5896.938780885547
0.1,-1.2018167308403929,5893.143235853567
0.104,-1.213629670877773,5908.420996304111
0.108,-1.2365312449531125,5913.939249254992
0.112,-1.266789575649162,5896.97153187225
0.116,-1.298099247372083,5889.981789668671
0.12,-1.3236476631795127,5893.871822994906
0.124,-1.3382081663440453,5893.560884654628
0.128,-1.3396485385767474,5898.949886833147
0.132,-1.329510258457991,5895.294835331775
0.136,-1.3125730777836162,5888.970929432748
0.14,-1.2955794230928108,5904.716270176832
0.144,-1.2855037082248748,5892.650709304174
0.148,-1.2878022991173477,5890.950215423801
0.152,-1.3050082179434481,5894.548249218747
0.156,-1.3359685789569298,5900.487601973043
0.16,-1.3759256192354925,5899.520701006668
0.164,-1.4174298296351062,5901.474127243156
0.168,-1.451867251272282,5904.627902676299
0.172,-1.4713142074882914,5908.235193050423
0.176,-1.4704117669894337,5886.459207543538
0.18,-1.4478842307354167,5906.649341501708
0.184,-1.407297292428682,5896.238073937927
0.188,-1.3567661956341104,5901.232177575506
0.192,-1.307558978450326,5897.554752647099
0.196,-1.271796665644742,5901.081976682094
0.2,-1.259659516167987,5892.557770885407
0.204,-1.2766711954064416,5897.647046107119
0.208,-1.3217697409774467,5894.453126255605
0.212,-1.3868887246641817,5910.671418514038
0.216,-1.4584785974459171,5893.913380712484
0.22,-1.5207621612718336,5910.369874520858
0.224,-1.5598071853025464,5904.011888220988
0.228,-1.5671184385756025,5911.791612306882
0.232,-1.5416153728040674,5898.92757641992
0.236,-1.4894327373639094,5897.906953214513
0.24,-1.4216648294692817,5899.859114036585
0.244,-1.35080032590311,5892.472140490807
0.248,-1.287056716439244,5888.340020863151
0.252,-1.23589145226491,5894.899414782478
0.256,-1.197474397124206,5889.148995688923
0.26,-1.1680589096851115,5904.835250177362
0.264,-1.1424601493973103,5902.5620889075535
0.268,-1.1165904915519036,5901.913499527283
0.272,-1.0892200033490143,5911.647580520641
0.276,-1.0625438433965408,5904.153580428831
0.28,-1.0414646981418736,5895.474223358294
0.284,-1.0317615627154346,5897.238108754116
0.288,-1.0377138584406975,5897.610506768054
0.292,-1.0601523628764695,5902.728239360075
0.296,-1.0958533042869805,5905.101472211257
0.3,-1.1385264311421788,5898.906300953488
0.304,-1.1808388764125224,5896.236951497735
0.308,-1.2165553887229914,5901.413131005236
0.312,-1.2420762219371801,5908.153623021102
0.316,-1.2570553098804724,5895.606313260929
0.32,-1.2640464176807538,5899.203591853365
0.324,-1.2672985281805835,5897.194891472008
0.328,-1.2710964612555502,5897.196452795384
0.332,-1.278308406229855,5902.121881682744
0.336,-1.2897296757346683,5902.132007899444
0.34,-1.3043589320991145,5892.742081971147
0.344,-1.3202517885445657,5900.709576159939
0.348,-1.3353913570810578,5901.27439060644
0.352,-1.3481468806383943,5892.882031670684
0.356,-1.3572199916916943,5895.194457484062
0.36,-1.3613094975056659,5898.240883309525
0.364,-1.3589026146251486,5897.832021860571
0.368,-1.3485463027178752,5899.279195780924
0.372,-1.3296627815494668,5902.861937757634
0.376,-1.303558084642376,5894.380254038438
0.38,-1.2739995288766277,5897.665107334398
0.384,-1.246863613428181,5892.152998744399
0.388,-1.2288286089179645,5896.1670871534425
0.392,-1.225550529325283,5905.515335307439
0.396,-1.2399403750796008,5892.151688758938
0.4,-1.2711031701644955,5903.860588953048
0.404,-1.3143475100646809,5898.274361505566
0.408,-1.362378354235265,5900.993831638881
0.412,-1.4072958695776185,5903.7286101446825
0.416,-1.4426085692157269,5900.782968004285
0.42,-1.4644946786264181,5899.095895432063
0.424,-1.4720067455974364,5895.264386916667
0.428,-1.4664629430972855,5899.330801595618
0.432,-1.4505783232737528,5900.127044095158
0.436,-1.4278294874159725,5896.682710404326
0.44,-1.4021898407216957,5906.331799415232
0.444,-1.3779847585012381,5906.712098001663
0.448,-1.3594935920362683,5901.017857363491
0.452,-1.3501368069510709,5898.058131093204
0.456,-1.35142395814983,5896.422962503174
0.46,-1.3620692959613425,5899.720153609542
0.464,-1.3777461401729336,5900.120453965669
0.468,-1.391839235386313,5901.460750523928
0.472,-1.3971953162174509,5901.298618579433
0.476,-1.3883493216213958,5906.957402951414
0.48,-1.3633800292616005,5906.895158087915
0.484,-1.3247078086673403,5900.914561960586
0.488,-1.2786402289030083,5891.443464422455
0.492,-1.2339156543061012,5899.539295565634
0.496,-1.1996933037621527,5901.259774950164
0.5,-1.1834561474981242,5908.545055880784
0.504,-1.189245175829418,5899.366507895098
0.508,-1.2165746011538556,5896.682740468516
0.512,-1.2603061851925312,5898.861564595993
0.516,-1.3116649960831828,5895.0092122936985
0.52,-1.3603420374460313,5899.465652421
0.524,-1.3971964647884754,5893.017155540526
0.528,-1.4166676667647566,5895.902746776644
0.532,-1.4180134598507796,5900.713597280248
0.536,-1.405022337128377,5901.5892605441895
0.54,-1.384552004225551,5889.300411887704
0.544,-1.364594524165192,5896.425599822504
0.548,-1.3524097261117396,5901.584828107812
0.552,-1.3529634243329483,5899.954667910861
0.556,-1.3678149346080206,5903.038612235327
0.56,-1.3946702960806692,5908.474550902861
0.5640000000000001,-1.4278224615722914,5902.423674356154
0.5680000000000001,-1.4595452947027654,5907.61926771925
0.5720000000000001,-1.4822054242597085,5895.640442142708
0.5760000000000001,-1.4904745439883818,5907.868317625953
0.58,-1.482802213319006,5906.61170147528
0.584,-1.4615352131533774,5902.327981281889
0.588,-1.4317112422093126,5910.351240170777
0.592,-1.3991771997972475,5898.8314377467
0.596,-1.3688771723390396,5894.352556011095
0.6,-1.3439020268191502,5901.342920378196
0.604,-1.325432832137074,5898.404125340559
0.608,-1.3132910849223534,5905.11566974254
0.612,-1.30661272460172,5907.976391810463
0.616,-1.304264759456521,5897.585666974677
0.62,-1.3049162484996641,5906.153147800934
0.624,-1.3069371887031522,5899.577687417619
0.628,-1.3083730795957913,5894.387284248477
0.632,-1.3071348907317457,5904.880037911896
0.636,-1.301368741679456,5903.706069299762
0.64,-1.2898594948847666,5897.0069947088
0.644,-1.272335052352047,5893.586598588621
0.648,-1.2495968305381642,5902.048958262623
0.652,-1.2234151221794936,5897.605705664542
0.656,-1.1961465372808624,5889.490600506604
0.66,-1.1701463909418302,5893.623875814678
0.664,-1.1472128564347435,5890.907817013694
0.668,-1.1283609362751796,5902.56255628907
0.672,-1.1140831307324992,5899.501190116478
0.676,-1.104958234927751,5896.843134540546
0.68,-1.1022085611502586,5896.962083694056
0.684,-1.1077719233834566,5891.951921078231
0.6880000000000001,-1.1236946291882612,5904.296378198192
0.6920000000000001,-1.1510366065191822,5901.351580355457
0.6960000000000001,-1.1887786962863798,5906.73090736401
0.7000000000000001,-1.2332485623211482,5901.601925852827
0.704,-1.278348750126488,5903.704420858894
0.708,-1.3165717716888552,5894.171720896089
0.712,-1.3405807032235075,5899.423617749393
0.716,-1.3450061004207026,5895.5808356574
0.72,-1.3280031397510512,5901.375000041826
0.724,-1.2920885083426505,5910.529910227463
0.728,-1.243937922814704,5899.733540271859
0.732,-1.1931385791768407,5903.290754878621
0.736,-1.1501976540395946,5905.821237958385
0.74,-1.1242874616551972,5897.450048379141
0.744,-1.1212557060361772,5904.018023088128
0.748,-1.142370497143472,5901.618514865809
0.752,-1.1840910182612283,5900.5728961184295
0.756,-1.2389025830943057,5902.488540123244
0.76,-1.297050261489868,5901.841190196853
0.764,-1.3488507266423861,5896.099298775746
0.768,-1.387062826592127,5899.499322172397
0.772,-1.4086397775184532,5902.255474003732
0.776,-1.415287527927726,5906.195161783096
0.78,-1.4126189479506137,5900.97351824265
0.784,-1.4081240431853468,5889.1557124140045
0.788,-1.408557471110271,5905.281894365658
0.792,-1.417601817501165,5894.986959001195
0.796,-1.4345997753752744,5907.655499844094
0.8,-1.4546914797682033,5899.54229357275
0.804,-1.4701612253613068,5895.646293941695
0.808,-1.4725442508400715,5900.71596918908
0.812,-1.4550268144278102,5893.731390265977
0.8160000000000001,-1.4146448993508671,5892.459679276487
0.8200000000000001,-1.3537129476483354,5909.40443602756
0.8240000000000001,-1.2799566600592527,5901.265173050871
0.8280000000000001,-1.2050955014561775,5899.139853912428
0.8320000000000001,-1.1421065324068498,5896.454379783488
0.836,-1.1019586045966487,5906.405207251413
0.84,-1.0909254127321781,5902.453902313461
0.844,-1.109364902273889,5896.071916140392
0.848,-1.1521601877045613,5906.415431036695
0.852,-1.2103383542683148,5907.635752932206
0.856,-1.2731638897795494,5900.632395011799
0.86,-1.3302130226425413,5902.445065882481
0.864,-1.3731829995658353,5897.049805748753
0.868,-1.3972200832043458,5898.348918152427
0.872,-1.4014672433522382,5903.541331783423
0.876,-1.3885871997254295,5902.221186396226
0.88,-1.3633385777425653,5905.597691258213
0.884,-1.3307482587915918,5905.082359957834
0.888,-1.2946740592191457,5892.621317237353
0.892,-1.2573229138670752,5897.830173021618
0.896,-1.2197420529935328,5909.561237618827
0.9,-1.1828493652669698,5898.231757019873
0.904,-1.148436783708753,5893.566739137796
0.908,-1.119690212786864,5899.389044334717
0.912,-1.1009772142472143,5891.929274279534
0.916,-1.0969047747878753,5895.975377232133
0.92,-1.1109121057160556,5903.26760055346
0.924,-1.1438430318412074,5892.14069663593
0.928,-1.192959334869482,5904.29270066711
0.932,-1.2517491355391954,5887.6587231111525
0.936,-1.3107323761826934,5900.764764923286
0.94,-1.3592542970374295,5896.840390066218
0.944,-1.387943656137199,5884.651006762178
0.948,-1.391190920481867,5899.639955129569
0.952,-1.368870136892777,5887.945004434399
0.956,-1.3266788856243756,5900.073124960308
0.96,-1.274839856601808,5892.166071355158
0.964,-1.2254041292481583,5896.631483182883
0.968,-1.1889271129217198,5906.485439952924
0.972,-1.1716432949579396,5899.229476762208
0.976,-1.1741683705075006,5897.468560661278
0.98,-1.192139827019975,5904.889717623076
0.984,-1.2183617486860197,5900.382441492669
0.988,-1.2454255377685786,5899.9294474318285
0.992,-1.2677531714164123,5901.217972148834
0.996,-1.2824736167211837,5892.228891206655
1.0,-1.289158860847569,5891.97235461988
1.004,-1.288929252046716,5896.575240624683
1.008,-1.2836146925776073,5892.553151812105
1.012,-1.2754284969300194,5902.104326446269
1.016,-1.2670903106622502,5901.86665993308
1.02,-1.2619051760885034,5902.9287929825605
1.024,-1.26332915141621,5906.270888508478
1.028,-1.2740070401789194,5895.901951249048
1.032,-1.294732346191746,5893.276325858123
1.036,-1.3238483733326927,5890.9858916323865
1.04,-1.3573153980775072,5896.976937492722
1.044,-1.3893737901191339,5902.116900450322
1.048,-1.413644629600415,5903.857986013458
1.052,-1.4245057126677598,5905.649045937895
1.056,-1.4184904266101708,5899.9261842050655
1.06,-1.3953103098413298,5900.889040719834
1.064,-1.3580894182267769,5896.764180238218
1.068,-1.3126477248943471,5898.7454656412
1.072,-1.2660684337475459,5890.184353970222
1.076,-1.225073837027783,5896.234801192835
1.08,-1.1947626024303761,5896.148333891159
1.084,-1.1780321012165438,5893.868025749604
1.088,-1.1756378302811599,5906.121954495367
1.092,-1.1865663572544842,5902.932161006527
1.096,-1.208423390032632,5902.110431830449
1.1,-1.2377726113077077,5909.039786375877
1.104,-1.2705152056563471,5890.338952536681
1.108,-1.3023614261581575,5897.257033223279
1.112,-1.3293410994456338,5902.542527162307
1.116,-1.3482559454997212,5906.059935164451
1.12,-1.357005380750145,5904.903184488409
1.124,-1.3547716856863092,5901.536285255768
1.128,-1.3420798242812868,5891.989690437299
1.132,-1.3207426136494302,5911.011084417048
1.136,-1.2936937402462403,5894.198056993669
1.14,-1.2647137950252567,5902.015817355785
1.144,-1.2380546448891538,5898.827153340764
1.148,-1.2179695276399818,5900.103796267738
1.152,-1.2081851692481789,5918.133560525892
1.156,-1.2113927546264818,5900.802192196445
1.16,-1.2288241181985948,5901.865694301217
1.164,-1.25990507677786,5899.905752111982
1.168,-1.301937649384539,5901.3646319528325
1.172,-1.3498620626310842,5901.659271195205
1.176,-1.396338143098045,5900.474491403023
1.18,-1.4324729695905254,5900.832371941662
1.184,-1.4493708133605834,5908.08064749067
1.188,-1.4403284545408754,5907.700960840813
1.192,-1.4030938886015047,5904.013241731927
1.196,-1.3413533368352404,5909.7517263875725
1.2,-1.2647165477705096,5899.075045985504
1.204,-1.186964194217601,5898.091939401798
1.208,-1.1229545634366704,5901.124836021223
1.212,-1.0850441711541199,5897.563823469179
1.216,-1.0800407969735677,5903.717584153624
1.22,-1.1076051705595833,5897.184306557202
1.224,-1.1606375642855042,5901.390144086846
1.228,-1.2275502807539225,5891.078253528411
1.232,-1.2956669636776055,5898.034739019821
1.236,-1.3546256787513664,5899.454923011383
1.24,-1.39874473927768,5894.758496869906
1.244,-1.427763145355659,5912.064866493
1.248,-1.4459656251804416,5904.389566147661
1.252,-1.4601587638302955,5893.872502458456
1.256,-1.477134610257118,5899.478668314466
1.26,-1.5012590281566893,5900.274033255989
1.264,-1.532800189244592,5893.583365004291
1.268,-1.5674935617615184,5894.331372186484
1.272,-1.5974874291355121,5907.253096048327
1.276,-1.6133284228886113,5897.714465361485
1.28,-1.6063381779830057,5898.164507927526
1.284,-1.5707782300000037,5901.010254388221
1.288,-1.5054312251201885,5896.844732655451
1.292,-1.4143582137485056,5903.555525846588
1.296,-1.3066164151418855,5895.939138129561
1.3,-1.19487036037325,5899.752512450253
1.304,-1.0931747592141345,5896.384826230389
1.308,-1.0145073701066525,5902.937885787046
1.312,-0.9686125784084503,5899.669449258988
1.316,-0.9604323169963045,5893.162991715631
1.32,-0.9891818670529584,5896.922569417049
1.324,-1.0481749413995554,5899.987696346225
1.328,-1.1256431875014514,5900.611833167245
1.332,-1.2066994707921137,5903.21286770033
1.336,-1.276170727897699,5902.978734173444
1.34,-1.3215780468777658,5902.814169730819
1.344,-1.3354569231081022,5897.319043269418
1.348,-1.3165221390890005,5894.714490807335
1.352,-1.2695948014330074,5892.353740674372
1.356,-1.2044880852132953,5897.078043319473
1.36,-1.1341773872713798,5903.974407642568
1.364,-1.0726389556208633,5890.02282925759
1.368,-1.032779170206045,5894.813114255483
1.372,-1.0248452572339695,5904.905893406278
1.376,-1.055476562066972,5899.038612859676
1.38,-1.1271190375208144,5903.2625662289165
1.384,-1.2371597380707375,5898.160672347719
1.388,-1.376207631130883,5898.117333418872
1.392,-1.525584273450917,5905.898412830392
1.396,-1.655067386709729,5907.547305334733
1.4,-1.7227343602144196,5902.788035303439
1.404,-1.6787806565504186,5910.68734862465
1.408,-1.4741301919995375,5895.349334491674
1.412,-1.0727722683704644,5900.681250048388
1.416,-0.4647509799885811,5896.409222051016
1.42,0.32460947936499207,5905.045151689047
1.424,1.2335981678911887,5900.344158178441
1.428,2.1734369065297923,5887.129005088573
1.432,3.046450580503573,5901.463619903658
1.436,3.7674559858095176,5907.030477767662
1.44,4.281130684944203,5921.126594373478
1.444,4.570194655261385,5928.171204935741
1.448,4.65340601509169,5946.33233685826
1.452,4.5759269148260335,5968.53011957203
1.456,4.396130880534587,5973.38595618295
1.46,4.172632192226639,5979.920302288898
1.464,3.954124693924064,5996.919236351732
1.468,3.773307501129785,6002.3651859505
1.472,3.645121292155264,6008.714413707776
1.476,3.568733690318685,6021.868121555667
1.48,3.532111994663272,6028.77037343314
1.484,3.5176638335797317,6038.853274756876
1.488,3.507480903145349,6048.825414212694
1.492,3.4871883509971067,6048.645006833564
1.496,3.4480011723775683,6063.60067968048
1.5,3.387043159056555,6070.390135347503
1.504,3.306278307311395,6086.359565128869
1.508,3.210634856761175,6088.43505566101
1.512,3.1060316822830787,6105.648069925914
1.516,2.9979312316724065,6104.919248989156
1.52,2.890743093426279,6122.515296807466
1.524,2.78801930708003,6117.966791890034
1.528,2.693064236300355,6133.075020310996
1.532,2.609435141527862,6137.514047698774
1.536,2.5408984257464384,6149.963130206329
1.54,2.490710443853131,6150.395299845371
1.544,2.4604648423344697,6158.161854970176
1.548,2.448995122780129,6167.6793465924175
1.552,2.451846367918257,6166.062006511251
1.556,2.4616585388132104,6187.701456530981
1.56,2.4694880881913748,6181.896623170143
1.564,2.4667397868178838,6183.876681337954
1.568,2.447162249019497,6203.514202788513
1.572,2.4083474906380666,6194.374902025931
1.576,2.3522953299362053,6211.338573641011
1.58,2.2848481714557183,6220.911226712737
1.584,2.214169312201857,6215.227035965048
1.588,2.148739382197397,6229.240335670951
1.592,2.0954003676547597,6229.520429900559
1.596,2.057876100752897,6232.187592321036
1.6,2.0361039454815333,6243.005700687846
1.604,2.026560455580618,6237.427772722962
1.608,2.023433845503492,6252.78456642629
1.612,2.0201616349924456,6262.432272262696
1.616,2.0108297133026647,6261.811082493214
1.62,1.991206438927106,6269.815729252746
1.624,1.9594261267980244,6273.164835801252
1.628,1.9163411070102518,6273.735794120638
1.632,1.8654501188381385,6281.962603211895
1.636,1.8122819299423663,6287.435243037542
1.64,1.7632237890446067,6283.377170618131
1.644,1.7239742106486828,6298.870316456706
1.648,1.6979923473526002,6296.737281629903
1.652,1.6854248002970103,6307.767473687925
1.656,1.6829253324200137,6299.157882566048
1.66,1.6845262203699272,6317.460405452532
1.664,1.6833439631412401,6315.845144810078
1.668,1.6735448803478834,6311.252857639757
1.672,1.6518459500501477,6321.579788194998
1.676,1.6180139309587773,6323.198960194228
1.68,1.5742870593247904,6327.534701539095
1.684,1.5241341198704532,6334.286998475817
1.688,1.4710282374034456,6332.107429323313
1.692,1.4178292065778588,6340.434258910238
1.696,1.3669809299938551,6346.243209388245
1.7,1.321210185976679,6355.107489572873
1.704,1.2840425208145072,6341.026724509606
1.708,1.2595027723294854,6347.637801307208
1.712,1.2508724615484963,6352.299103253011
1.716,1.2590380271159494,6355.54285715285
1.72,1.281338689516887,6361.239483694164
1.724,1.3116358159315213,6370.706073283604
1.728,1.3417023942685982,6363.511238567718
1.732,1.3633999886356758,6373.336248922454
1.736,1.370823159918897,6375.619563359838
1.74,1.3616869627098267,6367.758200259909
1.744,1.337556803936102,6378.321862836864
1.748,1.302915775629947,6384.323337150314
1.752,1.2634241589250355,6381.6657846552425
1.756,1.2239755137450252,6383.680368270113
1.76,1.1872262478642228,6386.419080474981
1.764,1.1530961244826643,6382.454013250178
1.768,1.1193286691893158,6383.289156155498
1.772,1.0827654238023192,6385.468232322424
1.776,1.040769337379003,6390.761202782194
1.78,0.9923203904204039,6386.695572649673
1.784,0.9385841562113084,6401.699953755759
1.788,0.882970033286476,6400.5668801676375
1.792,0.8306863770242637,6405.799178403272
1.796,0.7877027254505332,6404.633333950385
1.8,0.7591409324555507,6415.596588534176
1.804,0.7475043903460278,6407.552913238421
1.808,0.7515235685321724,6408.465829134536
1.812,0.7663480204201228,6403.232342614351
1.816,0.7852171361711338,6412.013014901445
1.82,0.8019102608650758,6412.925985254471
1.824,0.8127830155196807,6418.554239047095
1.828,0.8174087507960337,6420.078484613841
