时间(s),电压(V),幅值(高频80K)
0.0,-1.2261158168348134,5908.418906751793
0.004,-1.1939344777439447,5905.150633550557
0.008,-1.1654917913328273,5908.964432652847
0.012,-1.1432998833278571,5902.801286714851
0.016,-1.1287055650136728,5901.709377303368
0.02,-1.1218859533659644,5902.557517763733
0.024,-1.1220531464326995,5899.906389758282
0.028,-1.1276627347630002,5904.0170409131215
0.032,-1.1365886882986196,5893.99269446258
0.036,-1.146327991957244,5904.244974873971
0.04,-1.154270804333625,5898.537967792523
0.044,-1.1580469876631037,5895.833495932486
0.048,-1.1559886600680405,5905.722412674943
0.052,-1.1477151636125227,5897.07509378448
0.056,-1.1346688489928518,5898.913990763354
0.06,-1.1202360460553595,5894.674298546714
0.064,-1.1091333320173706,5907.762293612516
0.068,-1.1061126862685466,5908.555454250104
0.072,-1.114480347890307,5901.64760369528
0.076,-1.1350508439226796,5899.316540281269
0.08,-1.165881634751584,5903.279934244785
0.084,-1.2027394297603964,5898.509037447605
0.088,-1.240045743132648,5897.194594729081
0.092,-1.272060841349262,5899.061939770467
0.096,-1.2941033383261478,5903.193189171559
0.1,-1.3035577027934866,5904.256749575151
0.104,-1.3003929436298698,5900.391691276334
0.108,-1.2870410155410745,5899.028703913717
0.112,-1.2677163946197656,5896.191940905755
0.116,-1.2474155333232875,5903.029963754876
0.12,-1.2308471135294845,5897.202983284939
0.124,-1.2215009797133503,5895.662658560971
0.128,-1.22101666163611,5897.146959712555
0.132,-1.228929272755016,5903.593311143602
0.136,-1.2427787922883937,5897.803613427304
0.14,-1.258546939269028,5898.864542795594
0.144,-1.2714158787654348,5904.226955343756
0.148,-1.2768178221071436,5892.420016138352
0.152,-1.2716200442373806,5905.412744484013
0.156,-1.2551300352278125,5895.929061738437
0.16,-1.2295150655379494,5896.688599523145
0.164,-1.1993280604730956,5898.404061859701
0.168,-1.1701774207884963,5902.157708936247
0.172,-1.147017206791857,5903.349878351804
0.176,-1.1327525679495256,5903.319740565479
0.18,-1.12768263889487,5908.709679151242
0.184,-1.1298665813098496,5900.163579318062
0.188,-1.1360914515822482,5898.69513266107
0.192,-1.1429738645283962,5904.717498335109
0.196,-1.147856493702797,5899.516768330788
0.2,-1.1493872598454071,5906.772840964527
0.204,-1.1478003255664517,5898.257557739606
0.208,-1.144908138800613,5897.696124308649
0.212,-1.143753758680907,5894.0286080344
0.216,-1.1478663966537495,5897.555737529091
0.22,-1.1601659923439132,5906.388955747312
0.224,-1.1817674023125357,5892.681443798276
0.228,-1.211130962638555,5899.227516482631
0.232,-1.2440186296267346,5891.003512343264
0.236,-1.2744501304147364,5888.51502021042
0.24,-1.2964141206660686,5910.12732375883
0.244,-1.3057382251274692,5899.656956776619
0.248,-1.301468118558766,5898.270181981818
0.252,-1.2863140677366598,5891.962665960337
0.256,-1.266012370374496,5904.274125167757
0.26,-1.2477253895730485,5908.783770473599
0.264,-1.2378852835166674,5894.312432567047
0.268,-1.2401455360032487,5899.4115919350415
0.272,-1.254191885620241,5895.217244320583
0.276,-1.275918456822042,5899.07746180558
0.28,-1.298921704939275,5903.532485118146
0.284,-1.3166912843752303,5897.938689632764
0.288,-1.3246291076798795,5899.393992582382
0.292,-1.3212159778415316,5903.607618549904
0.296,-1.3080840495020543,5893.403402344818
0.3,-1.2891711745256138,5904.185996200353
0.304,-1.2693815118980896,5895.984101006328
0.308,-1.2532388852543948,5902.484489986912
0.312,-1.2439202968778338,5899.36894677415
0.316,-1.2428472380384337,5897.097603859583
0.32,-1.2497777967179022,5892.305089876837
0.324,-1.263176437598095,5896.146775763876
0.328,-1.280615792331507,5903.618020663344
0.332,-1.2991038961794537,5899.924808075931
0.336,-1.3154342375120684,5900.732822793584
0.34,-1.3267273129824704,5901.205499472078
0.344,-1.3311434844262833,5900.509158927068
0.348,-1.3284455563982744,5903.018598540238
0.352,-1.3200133668964606,5893.575680691426
0.356,-1.3082022651477196,5904.734049798719
0.36,-1.2953480068264789,5903.405626055055
0.364,-1.2829052170507138,5898.592828507551
0.368,-1.2710716644647846,5892.747610272516
0.372,-1.2589590719069301,5902.689765910963
0.376,-1.24512720503121,5897.41351641114
0.38,-1.228220658149878,5890.702984443035
0.384,-1.2075233916984724,5901.925835171473
0.388,-1.1833382719456416,5889.422096240762
0.392,-1.1571125378785099,5902.313086080681
0.396,-1.1312349895582323,5906.478322707284
0.4,-1.1085195866582005,5901.361057377045
0.404,-1.091515338019039,5902.268531484431
0.408,-1.0818401369187485,5905.856751898345
0.412,-1.0797108044309265,5896.657191992176
0.416,-1.0837811745812063,5897.426990824745
0.42,-1.0913438292829698,5900.0026572591705
0.424,-1.0989209108141464,5901.576487303904
0.428,-1.1032337769830516,5905.18216972818
0.432,-1.1024027618555547,5892.302551583179
0.436,-1.0969781123146587,5905.782156681483
0.44,-1.0902463574288244,5897.384755600701
0.444,-1.087430555609108,5905.967276208743
0.448,-1.0938950099332587,5901.228556034083
0.452,-1.1129971425114786,5906.453930435675
0.456,-1.1444726251481876,5906.872216489511
0.46,-1.1840396065754297,5895.18078324982
0.464,-1.2243983823573812,5913.747590504949
0.468,-1.2572829412393673,5899.807202364222
0.472,-1.27588228223852,5905.027405017606
0.476,-1.2768318737014137,5896.515496839004
0.48,-1.261130447519924,5899.7824644280645
0.484,-1.233775608128976,5892.586340538956
0.488,-1.202404942112386,5893.29926725451
0.492,-1.1754546654966547,5898.066375361754
0.496,-1.1602574551406677,5898.31657070273
0.5,-1.16134186691531,5899.395266063956
0.504,-1.1791870055097322,5895.997514815861
0.508,-1.209798215529718,5891.677753947552
0.512,-1.2454645029408864,5908.260063194268
0.516,-1.2767244104788087,5899.256057722564
0.52,-1.2950004141348164,5897.146568660479
0.524,-1.2949688068577354,5903.051878421331
0.528,-1.2758327565516434,5901.830187401406
0.532,-1.2411747827655577,5894.362965839561
0.536,-1.1976420546202315,5907.130136412026
0.54,-1.1530819508628274,5895.6389743478285
0.544,-1.1147795125302364,5901.710955954899
0.548,-1.0882161301412363,5902.569852439779
0.552,-1.076470862305805,5903.120124847278
0.556,-1.0801771384024534,5898.075054862846
0.56,-1.0978445211724037,5894.061585223795
0.5640000000000001,-1.1263430571192483,5892.240842563373
0.5680000000000001,-1.1614129282321841,5902.301142668527
0.5720000000000001,-1.198140642194834,5907.467206946117
0.5760000000000001,-1.231399997010003,5895.96265818021
0.58,-1.2563231731977909,5899.099647804006
0.584,-1.2689136297702697,5907.398086300655
0.588,-1.2668426985542351,5897.649691513085
0.592,-1.2502826821665862,5902.071610620511
0.596,-1.2224349636839553,5894.787821840149
0.6,-1.189345772141154,5894.8674927922
0.604,-1.1587553883838575,5901.393249475752
0.608,-1.1380993379751996,5903.840994946245
0.612,-1.1322309521554543,5899.328952590223
0.616,-1.14170635155818,5897.723413761605
0.62,-1.162365617534825,5899.532115884678
0.624,-1.1864890258754852,5904.581521562967
0.628,-1.205211196124594,5889.437416173017
0.632,-1.2113653172304628,5895.349667007058
0.636,-1.2017223904014414,5902.965914073232
0.64,-1.1778311596077353,5905.423055079468
0.644,-1.145256392399358,5898.403634181877
0.648,-1.1116475600847682,5899.746040340543
0.652,-1.0844524209998025,5899.143470419844
0.656,-1.0690676876735072,5899.435282003209
0.66,-1.0678369219008854,5905.701403833338
0.664,-1.0798604936713865,5905.33135825244
0.668,-1.1014078844354436,5892.4271582228
0.672,-1.1268200462039506,5905.755472602641
0.676,-1.1498664082215098,5904.53776958931
0.68,-1.1653892315344088,5895.583486154837
0.684,-1.1708172430465502,5908.6349990838535
0.6880000000000001,-1.16699162669186,5899.454439684088
0.6920000000000001,-1.1579034504177153,5897.638567455093
0.6960000000000001,-1.149369290618949,5901.848409641789
0.7000000000000001,-1.147124426998046,5902.600027715908
0.704,-1.1550172724622414,5898.044942084554
0.708,-1.173859573451427,5895.396937161526
0.712,-1.2011626983747896,5897.315516664249
0.716,-1.2316881700557725,5904.702551401168
0.72,-1.2585865224670945,5902.968547932951
0.724,-1.274885540484419,5912.743153857662
0.728,-1.275115123149841,5904.888063175833
0.732,-1.2568017985311628,5900.342727882674
0.736,-1.2214458925680307,5894.056643310572
0.74,-1.1745902466011517,5900.154049286342
0.744,-1.1248326143912808,5902.84678628148
0.748,-1.0820177298634206,5897.964270612078
0.752,-1.0551177469274922,5899.10780939805
0.756,-1.050332489680596,5901.244033937663
0.76,-1.0698064487883518,5902.787557823242
0.764,-1.1112171177635404,5902.234900777088
0.768,-1.1683342643701247,5896.988426935143
0.772,-1.232410459772464,5909.78443558543
0.776,-1.294016691887859,5899.842651766541
0.78,-1.3448505399299975,5901.555103105806
0.784,-1.3791365890915264,5908.538764948851
0.788,-1.3943853469236789,5898.994120244089
0.792,-1.3914274244390556,5897.987194255694
0.796,-1.373822371219043,5904.085155960659
0.8,-1.3468867376760232,5898.0291997721815
0.804,-1.316580527501454,5898.472747160291
0.808,-1.2883987220587274,5903.776499865013
0.812,-1.2664070137912145,5906.433654682087
0.8160000000000001,-1.2526297168088034,5902.321813590219
0.8200000000000001,-1.2469662850836427,5899.40359351329
0.8240000000000001,-1.2476298271299484,5896.120724627752
0.8280000000000001,-1.2519023728434415,5899.011462570604
0.8320000000000001,-1.25691833820567,5894.54964264611
0.836,-1.2602564623080164,5905.202785470588
0.84,-1.2602908574152476,5897.966245817269
0.844,-1.2563815354994732,5901.6980836018665
0.848,-1.2489483074419199,5902.406995919213
0.852,-1.239332791700378,5901.415407397181
0.856,-1.2293285071310145,5901.820996980842
0.86,-1.2204537191484326,5892.758593377634
0.864,-1.2132947413205553,5905.157021691899
0.868,-1.2073065239372514,5896.369716431948
0.872,-1.2012413094112713,5902.973114985099
0.876,-1.1940219529878373,5890.232102481647
0.88,-1.1856074140780009,5897.9777232467895
0.884,-1.1773825573469767,5903.416770072319
0.888,-1.171863174743367,5901.2528515043205
0.892,-1.1718760651198643,5899.148675957022
0.896,-1.1796047214217258,5898.352735334138
0.9,-1.1958664960274246,5913.781941907115
0.904,-1.2198033752807558,5904.849532892249
0.908,-1.2489778015101982,5905.140085232884
0.912,-1.2797410799915125,5898.05219784506
0.916,-1.30772637070674,5893.58657981578
0.92,-1.3284266111306067,5902.124031378216
0.924,-1.3379278601288347,5903.073467932972
0.928,-1.3337872411888532,5892.491646291914
0.932,-1.315792986527541,5909.97492760054
0.936,-1.2862089471214413,5900.960351347116
0.94,-1.2492904608748714,5903.35476446014
0.944,-1.2102307190987536,5909.233616156248
0.948,-1.1739691535533958,5894.605315477473
0.952,-1.1442981597235156,5897.684217489591
0.956,-1.1234643627218301,5898.38585575173
0.96,-1.1121538169561433,5895.352755469197
0.964,-1.1096088683206156,5907.724748712369
0.968,-1.1137379426700624,5887.664359546099
0.972,-1.1213091120940335,5901.963376253685
0.976,-1.1284423402474852,5898.889446777563
0.98,-1.1315140702277917,5901.320028376583
0.984,-1.1283052749554685,5903.139714531643
0.988,-1.118945281240633,5900.022937201407
0.992,-1.1061456353489019,5909.788585389614
0.996,-1.0944655570228132,5900.367666129923
1.0,-1.0887939692914983,5899.005664817538
1.004,-1.0926321862301638,5902.545125995573
1.008,-1.10686247561575,5908.119562547638
1.012,-1.1294145887379259,5907.417349341202
1.016,-1.1558073292018902,5904.465528910411
1.02,-1.1802584067165935,5899.7576929890765
1.024,-1.1970271192941118,5899.974865947772
1.028,-1.201731632509005,5899.111195655938
1.032,-1.1924137619435993,5900.319789000488
1.036,-1.1701341168619475,5907.763707072485
1.04,-1.1389515785230535,5897.040888270026
1.044,-1.1052487923329335,5894.881128869305
1.048,-1.0764573287377492,5892.787093938265
1.052,-1.0593566763205373,5899.25723907393
1.056,-1.0583108811894006,5898.449754334746
1.06,-1.0739605008741366,5902.655830278831
1.064,-1.1028385124817142,5895.13341667711
1.068,-1.1380994417123995,5897.926336703364
1.072,-1.1711886805885405,5900.318838204696
1.076,-1.1939904969487174,5897.98022204046
1.08,-1.2008461487385513,5900.731010161595
1.084,-1.1898768283052483,5896.30147078258
1.088,-1.1633020688462283,5896.463991176947
1.092,-1.1267864889789467,5887.176051863546
1.096,-1.0880807160669277,5896.511511097487
1.1,-1.0553069958772148,5903.931990241875
1.104,-1.0352635661152074,5906.772834169527
1.108,-1.0320997483968124,5901.448551246235
1.112,-1.046608750076702,5903.970023210068
1.116,-1.0762354553974534,5908.63238643688
1.12,-1.1157695587972443,5898.7515842787625
1.124,-1.1585817804197427,5898.761476606817
1.128,-1.1981229500022752,5898.807647265136
1.132,-1.2292886143313122,5892.311167978699
1.136,-1.2492672344068352,5900.485538885374
1.14,-1.2576747745428873,5891.146504591171
1.144,-1.2560495608354936,5901.684716445272
1.148,-1.247013163869225,5898.064058780456
1.152,-1.2334820624073404,5898.653759675652
1.156,-1.2181828183200802,5901.77171733932
1.16,-1.2034601561020783,5910.522562819484
1.164,-1.1911824605051817,5900.905746913517
1.168,-1.1825951799731387,5904.6952047352615
1.172,-1.1781637910483531,5905.820946144352
1.176,-1.1775535744409353,5899.814996854399
1.18,-1.17981246876817,5896.916824935856
1.184,-1.1836689471106812,5904.646957389532
1.188,-1.1877906507221756,5898.067806387378
1.192,-1.1909225265602676,5898.680591761077
1.196,-1.1919501285145737,5902.340356640554
1.2,-1.189981637043275,5896.502916396163
1.204,-1.1844739668138544,5902.963819399245
1.208,-1.1753497002162125,5904.816358639756
1.212,-1.163071782140835,5902.6124742546
1.216,-1.148710420055257,5897.847405013297
1.22,-1.1340038993672106,5894.933241933511
1.224,-1.1212818291152262,5895.628523725067
1.228,-1.113084732957325,5901.745977264745
1.232,-1.1115088007280913,5902.581807468646
1.236,-1.1175798244096653,5900.268003584903
1.24,-1.131040364670566,5905.49389682699
1.244,-1.1507095981377164,5897.995074526685
1.248,-1.175190392877635,5905.383282887583
1.252,-1.2034335956639408,5901.376398204656
1.256,-1.234744573683811,5891.343870668126
1.26,-1.2682031241587572,5908.18396824311
1.264,-1.3018840884361724,5900.106346785425
1.268,-1.332420261328552,5900.909232852385
1.272,-1.3552762959624798,5911.560090029217
1.276,-1.3657506100393044,5893.4228569628485
1.28,-1.360387448209148,5902.904782257248
1.284,-1.338294188621057,5900.2405149365095
1.288,-1.3018555127228821,5904.182785384886
1.292,-1.2565020644165605,5890.334430327648
1.296,-1.2095134968007788,5899.305873371414
1.3,-1.1682213399614203,5901.907622047365
1.304,-1.1382183914917003,5898.216762197566
1.308,-1.122149936301585,5896.889705964558
1.312,-1.1194195414795438,5899.095302448254
1.316,-1.1268115156761902,5902.828487583916
1.32,-1.139724772342424,5902.434464858209
1.324,-1.153545544155257,5896.307012356662
1.328,-1.1647221893115207,5904.358970693433
1.332,-1.1713006467017038,5894.67069918005
1.336,-1.1729157765472933,5902.319253770185
1.34,-1.170390986553056,5904.086128037588
1.344,-1.1651366659708868,5899.772689801504
1.348,-1.1585153532635528,5899.331469107617
1.352,-1.1513281002071412,5909.5179914220935
1.356,-1.1435732661577227,5903.73094404263
1.36,-1.1345796309079834,5910.133597321152
1.364,-1.1234906978867925,5892.595090981538
1.368,-1.1099238657252262,5894.591588054796
1.372,-1.0945203988568115,5899.785830012176
1.376,-1.0790964630692683,5903.587036239164
1.38,-1.0662466037785143,5893.273385625943
1.384,-1.0585127780402368,5905.316389748481
1.388,-1.0574698190711695,5902.247025311167
1.392,-1.0631348952118727,5901.9952856995005
1.396,-1.0739489913721,5900.064217453867
1.4,-1.0873061845418934,5904.695819207566
1.404,-1.100388698060996,5891.42965564198
1.408,-1.1110072407357707,5902.176530901793
1.412,-1.118210532645582,5902.737356395474
1.416,-1.122518896070928,5905.835855957922
1.42,-1.125721219412297,5897.453609686506
1.424,-1.1302745023061416,5903.186324578248
1.428,-1.138464263702944,5894.816987956427
1.432,-1.1515917886400349,5897.926044349394
1.436,-1.1694977084816267,5893.726787481894
1.44,-1.190639208734393,5896.5169159141615
1.444,-1.2126910565318625,5903.261290548469
1.448,-1.2333744164343925,5890.298377794409
1.452,-1.2511340869141965,5900.749636205143
1.456,-1.2654186959390163,5897.59070742119
1.46,-1.2765235681251186,5891.393994328767
1.464,-1.2851213547245162,5902.217343167356
1.468,-1.2917169153878325,5901.166110081262
1.472,-1.2962809611746304,5892.811238994255
1.476,-1.2981898964930996,5895.399588196093
1.48,-1.2964042073216997,5893.956632147188
1.484,-1.2897273284223312,5893.460900736763
1.488,-1.2770648838103393,5900.274661607725
1.492,-1.2577318703378626,5901.567357175747
1.496,-1.2318827050313481,5898.629776780077
1.5,-1.2010300531808453,5898.496590568882
1.504,-1.1684387703028696,5901.882401993137
1.508,-1.1390563237177318,5897.455135951189
1.512,-1.1187193192939835,5895.997370245467
1.516,-1.1126899250208995,5897.176006766415
1.52,-1.1239623205634655,5906.813279038421
1.524,-1.1520080998873385,5897.6866846138055
1.528,-1.1925406176660631,5896.9240587434415
1.532,-1.2384583577253976,5896.85153145586
1.536,-1.2816030766803017,5904.773550133248
1.54,-1.3146859061164045,5899.049684540612
1.544,-1.332817546411249,5899.644668188713
1.548,-1.3343444000112092,5904.947887445011
1.552,-1.3209274889114893,5901.759043440179
1.556,-1.2969507259296653,5907.097273307888
1.56,-1.2684415497428674,5907.03478803651
1.564,-1.2417426139255432,5899.945360471393
1.568,-1.2221867616583095,5888.24055873509
1.572,-1.2130193801206122,5901.729371474626
1.576,-1.2147903395114232,5902.161307454967
1.58,-1.2253683955711125,5896.952886906716
1.584,-1.2405960180399849,5904.610310867335
1.588,-1.2554368659585808,5897.97858691686
1.592,-1.2653173653444578,5904.259399348362
1.596,-1.2672628454635582,5899.568241810135
1.6,-1.2604396914113374,5905.579122870284
1.604,-1.2459160634204571,5903.202074334642
1.608,-1.2258159406229505,5890.339258252866
1.612,-1.2023648413410684,5907.476913697837
1.616,-1.177372089252588,5905.5390355843065
1.62,-1.1523851955960385,5899.7375799658685
1.624,-1.1292672153739114,5902.854069936948
1.628,-1.1106333971051727,5900.660799710057
1.632,-1.0996732978267871,5896.446313229357
1.636,-1.099303156936325,5906.756042457984
1.64,-1.111043720815826,5897.478258829817
1.644,-1.1342125854067093,5901.569481027385
1.648,-1.165857583052565,5895.398057126538
1.652,-1.20147387357871,5901.0878485646135
1.656,-1.2361795751568432,5900.627068642963
1.66,-1.265852595396358,5903.380176749088
1.664,-1.2878297471290225,5898.847630657358
1.668,-1.3010605559856248,5902.54793987155
1.672,-1.3058654815873953,5896.499788751288
1.676,-1.3035129158537575,5905.535521206542
1.68,-1.2957703082888183,5902.580810407435
1.684,-1.2845315595816398,5901.127326983909
1.688,-1.2715733448975088,5896.694821175797
1.692,-1.25840499696049,5901.904110566656
1.696,-1.2461299354512856,5903.062744810885
1.7,-1.2353384942723638,5905.371191630721
1.704,-1.2261962737706136,5896.629083141092
1.708,-1.2188173260171598,5890.626276891714
1.712,-1.2136957662043422,5902.143689215689
1.716,-1.2117658494402042,5900.784722251976
1.72,-1.2138701390934226,5902.517983292211
1.724,-1.2198863254055123,5901.840625426848
1.728,-1.2280753150403338,5898.335202867896
1.732,-1.2351314535915805,5891.499216868969
1.736,-1.2370442627577931,5897.04843625621
1.74,-1.2304749228499918,5908.832629649702
1.744,-1.214097530920096,5898.532475953903
1.748,-1.1893361635557669,5896.8730487494
1.752,-1.1601670078867745,5902.829853001435
1.756,-1.1320643992786814,5908.158852899001
1.76,-1.1105216804085205,5907.984574977008
1.764,-1.0996733557141019,5895.277457636228
1.768,-1.101397563891431,5901.147863665815
1.772,-1.115042251222498,5898.601113484827
1.776,-1.137711107208636,5886.729117933391
1.78,-1.1649214538761066,5897.034492739149
1.784,-1.1914480580889446,5893.982579290943
1.788,-1.2122575549243861,5893.993667165339
1.792,-1.223478829561479,5897.967021788013
1.796,-1.2232696255576134,5903.662221302642
1.8,-1.2123239563950352,5904.230639149008
1.804,-1.1937667025125736,5896.537237640719
1.808,-1.1723498800030643,5905.125855644845
1.812,-1.1531232492024401,5903.783261049739
1.816,-1.1399672332296713,5892.715277961602
