时间(s),电压(V),幅值(高频80K)
0.0,-1.4696710734476655,5894.899315241724
0.004,-1.483587420977082,5904.139471165662
0.008,-1.4941862853773245,5894.197705349448
0.012,-1.4990101679351822,5896.763464730385
0.016,-1.4970741657769109,5906.3704070112535
0.02,-1.4893978193679374,5907.214521848145
0.024,-1.4788429232877585,5897.68903859697
0.028,-1.4690299617168392,5904.7498728485
0.032,-1.4627714264339846,5900.9516056668745
0.036,-1.4608211652982876,5903.6862161342015
0.04,-1.4614876501955563,5903.596684402804
0.044,-1.4611451770854131,5903.05045412677
0.048,-1.4553749837684717,5898.926810897366
0.052,-1.4404138259255603,5889.441238998901
0.056,-1.4145265664137683,5902.123194609331
0.06,-1.3788258062610594,5895.32149623339
0.064,-1.3371738626215592,5898.462467417251
0.068,-1.2951879349468132,5895.580370668925
0.072,-1.2587695550139344,5901.839021152179
0.076,-1.2327126022844754,5898.077872973591
0.08,-1.2197893016243861,5907.417245421392
0.084,-1.2204707722141266,5898.561910170008
0.088,-1.233261540268384,5896.101113309571
0.092,-1.2554839986401407,5895.477908723937
0.096,-1.284194222814105,5896.367460145127
0.1,-1.316841210548443,5895.422078978403
0.104,-1.351415104703968,5912.131277839185
0.108,-1.3861409641762215,5893.318749869258
0.112,-1.4190712574803015,5898.385633727361
0.116,-1.44797013759403,5884.782488444718
0.12,-1.4706168555596093,5897.7906258926005
0.124,-1.4853348408777325,5906.03047537425
0.128,-1.491458310452126,5891.375289210835
0.132,-1.4895754797496163,5902.82494046282
0.136,-1.481513425622439,5906.426212636257
0.14,-1.4700380904567072,5899.93916437948
0.144,-1.4582468706015879,5894.2421712605465
0.148,-1.4487505031670844,5899.389353196395
0.152,-1.4428931881443112,5901.046552056479
0.156,-1.4402765919957585,5902.14285121417
0.16,-1.4387342739184592,5899.049094198819
0.164,-1.4348149646109691,5899.054553635398
0.168,-1.4248230353594002,5903.902208235706
0.172,-1.4063364133794856,5897.081324300279
0.176,-1.3797591769660698,5908.50407821808
0.18,-1.3491390593065264,5900.596562544955
0.184,-1.3215994254568508,5910.404100858742
0.188,-1.3053391595833779,5901.827781810269
0.192,-1.306845320254557,5896.140598695921
0.196,-1.328349129264516,5907.224031850455
0.2,-1.3665364763774364,5896.27030636942
0.204,-1.4131444359819814,5898.269394514998
0.208,-1.457407383541021,5902.171752681927
0.212,-1.4895723821252984,5902.466303211348
0.216,-1.5041909445035286,5889.398292563531
0.22,-1.5018502362419708,5901.426425141982
0.224,-1.4885715795892496,5895.501713190151
0.228,-1.4731645575066452,5898.153912169614
0.232,-1.4638015224768122,5897.459036902515
0.236,-1.4652977219173666,5901.275541603199
0.24,-1.4779818806317255,5894.277918883759
0.244,-1.4981855169618663,5903.699904797983
0.248,-1.5198116008103426,5899.255627999616
0.252,-1.536285962328814,5900.025872175917
0.256,-1.5423058760182753,5896.159224020248
0.26,-1.5350353088247009,5893.7129226372845
0.264,-1.5146432091961426,5892.471264530272
0.268,-1.4842296577135143,5909.511841540755
0.272,-1.4492135406630067,5904.193519055054
0.276,-1.4162673924562512,5890.022724310923
0.28,-1.391964010160046,5899.561823948643
0.284,-1.3814084828182367,5902.380167147969
0.288,-1.3871825863225729,5895.920934792424
0.292,-1.408874835127493,5900.334863216943
0.296,-1.44330630026545,5912.456088082453
0.3,-1.4853504971387084,5906.495079771993
0.304,-1.5290918244242568,5909.710430052743
0.308,-1.5690304160943696,5899.867050363953
0.312,-1.6010722858508322,5901.584028714449
0.316,-1.623065098049371,5898.250366758278
0.32,-1.6347043393256613,5908.284357347595
0.324,-1.6368778080767046,5898.732652655816
0.328,-1.6308478721591464,5898.117325465313
0.332,-1.6177433700977801,5905.008706877747
0.336,-1.5985203446817045,5902.191360090033
0.34,-1.574181384762261,5896.8335354321525
0.344,-1.5459579248413655,5905.564871765047
0.348,-1.5153196082823357,5906.932231659503
0.352,-1.4838504043778455,5894.277338313077
0.356,-1.4531134322235546,5894.463380421173
0.36,-1.424623108326502,5898.340754085645
0.364,-1.3999532452753216,5901.410456063281
0.368,-1.3808544509694691,5895.3712221367805
0.372,-1.3691682701403678,5894.776854665699
0.376,-1.3664331293521768,5899.554406284624
0.38,-1.3733017987042626,5900.826577327387
0.384,-1.3890642465852368,5909.126463496016
0.388,-1.4116047627214732,5906.894673354496
0.392,-1.437952607498038,5901.885076180242
0.396,-1.465222205114223,5900.347099982654
0.4,-1.4914297229523477,5900.59067101254
0.404,-1.515720092947428,5898.486914182428
0.408,-1.5379411314099658,5898.378048752461
0.412,-1.5579300467207096,5897.619024567944
0.416,-1.574993590160191,5896.694861427005
0.42,-1.587821397567295,5898.744953716214
0.424,-1.5947308937586846,5891.164215955736
0.428,-1.594001051948492,5899.572413846193
0.432,-1.584172871839521,5903.501129869591
0.436,-1.564364947800758,5897.520936449835
0.44,-1.53465736315496,5914.70001513838
0.444,-1.496471011976473,5893.816321447367
0.448,-1.4527861128492108,5897.991696906205
0.452,-1.4080623019534366,5893.232466924771
0.456,-1.3677889379964998,5911.441367592597
0.46,-1.3376757266758958,5895.598332733442
0.464,-1.322582895677022,5901.345525728638
0.468,-1.3253625369869952,5899.010138932184
0.472,-1.3458457101191523,5902.902783566033
0.476,-1.3803001429461295,5907.636173668359
0.48,-1.4217246161848052,5896.495866004498
0.484,-1.461158771470633,5900.957254898672
0.488,-1.4897810261858933,5904.799547019257
0.492,-1.5012311315749216,5894.05954961609
0.496,-1.493532686081205,5899.152346690554
0.5,-1.4700885026626567,5907.588162218696
0.504,-1.4393200934342274,5891.099637701287
0.508,-1.4127326618545333,5899.172097104792
0.512,-1.4016963023610938,5902.516959527421
0.516,-1.4138769517207836,5906.1338764889815
0.52,-1.4505418067201838,5900.636651455036
0.524,-1.5056490885912466,5902.632905616384
0.528,-1.5669759818016116,5901.047663607434
0.532,-1.6189557851339094,5901.893238675279
0.536,-1.6465350311462894,5903.513317733402
0.54,-1.6391631832028353,5905.110372234385
0.544,-1.5939461014240448,5892.793707064928
0.548,-1.5170619852179157,5897.998390397458
0.552,-1.4228404441600508,5903.914817450901
0.556,-1.3305011511986882,5891.972011096966
0.56,-1.2593203842303873,5896.01401830939
0.5640000000000001,-1.2236144096198625,5894.56151033164
0.5680000000000001,-1.2290755861637965,5901.7458751583135
0.5720000000000001,-1.271585936835348,5898.126440197025
0.5760000000000001,-1.3388183818527508,5901.759223107835
0.58,-1.4140045160707309,5900.1389080171175
0.584,-1.4805646423914351,5906.378779439025
0.588,-1.526155598330099,5897.717429969106
0.592,-1.5450906712583607,5905.67154684223
0.596,-1.538737154149087,5901.69451437545
0.6,-1.5140983346702108,5898.283171720891
0.604,-1.4811902727273045,5899.407939701404
0.608,-1.450012337968072,5898.980827110511
0.612,-1.4279187017796244,5893.3367494608965
0.616,-1.4180494787141724,5904.098179936833
0.62,-1.4191785390573926,5899.683522997639
0.624,-1.4269179719179477,5901.463959758181
0.628,-1.4357853208979159,5899.9878051464975
0.632,-1.4413185959078019,5895.779252791543
0.636,-1.4413772112735264,5897.821202093539
0.64,-1.43614829115928,5903.298500966959
0.644,-1.4271030899087451,5897.021643416613
0.648,-1.4157563558655901,5905.560318868295
0.652,-1.4030911281288598,5900.296243956363
0.656,-1.389921224833913,5897.412984968371
0.66,-1.3777442973727383,5902.649950532961
0.664,-1.3693138765213417,5897.742748385565
0.668,-1.3684275033450728,5901.28824079084
0.672,-1.3790117587294801,5895.842377856663
0.676,-1.4039733287240739,5901.863615211505
0.68,-1.4442604226267792,5892.509313118118
0.684,-1.4983753625218268,5906.960217651001
0.6880000000000001,-1.5624560201934474,5901.022817514391
0.6920000000000001,-1.6309383808256124,5896.8343757092325
0.6960000000000001,-1.6975715747389244,5899.373986330374
0.7000000000000001,-1.7563240504833455,5895.545761163394
0.704,-1.8018137054736894,5893.9291661675625
0.708,-1.829317155407202,5910.218344946446
0.712,-1.8347823444910927,5896.188514886399
0.716,-1.8152881118618285,5899.734905319351
0.72,-1.7700935086798777,5896.468199010006
0.724,-1.701958426630742,5897.712229235744
0.728,-1.6180024031758165,5893.664653481787
0.732,-1.5293170612726976,5895.145888143036
0.736,-1.4490467143648644,5902.2444802352575
0.74,-1.3894311547302935,5900.982570849275
0.744,-1.358828469589378,5905.970989639949
0.748,-1.3597164546933977,5909.861429116293
0.752,-1.3882362895884865,5898.173502508828
0.756,-1.4353073104767686,5906.487120730337
0.76,-1.488934032540301,5894.471927993188
0.764,-1.537060723274047,5901.211168478154
0.768,-1.5701661262447455,5900.716414937106
0.772,-1.5828475161202094,5902.626733144811
0.776,-1.5740435302677613,5897.217745161582
0.78,-1.5461346278396642,5898.930640318805
0.784,-1.5035700478103566,5897.531059871684
0.788,-1.4516751638129817,5897.202508241177
0.792,-1.395984695967199,5893.81718840016
0.796,-1.342059387298453,5906.719566111086
0.8,-1.2954611108851453,5896.486555479435
0.804,-1.2615022208131563,5893.367088296032
0.808,-1.2445869467396198,5895.507427867643
0.812,-1.2473137372634642,5911.585055166194
0.8160000000000001,-1.269754534409012,5899.4039777972885
0.8200000000000001,-1.3092631639033372,5896.382655647679
0.8240000000000001,-1.3608660003534327,5893.966367708185
0.8280000000000001,-1.4180393046811124,5896.928533660484
0.8320000000000001,-1.4736395269771718,5909.678151984463
0.836,-1.520852369573538,5897.201752495985
0.84,-1.5541193049559245,5906.925315928031
0.844,-1.5699971356434506,5898.289432539869
0.848,-1.5678317330707066,5900.145234937911
0.852,-1.5500830398294003,5900.527332180604
0.856,-1.5221474613279387,5896.736124907064
0.86,-1.4915512319896298,5901.563135914966
0.864,-1.466503040029031,5899.661258562597
0.868,-1.454042625008417,5895.147888991922
0.872,-1.458249857918431,5903.586044354411
0.876,-1.4790417250514944,5901.153403219768
0.88,-1.5120213364121735,5894.948642906407
0.884,-1.5496437808216215,5904.002546798673
0.888,-1.5834945278675239,5896.4291906517465
0.892,-1.6068522239070506,5906.211767601129
0.896,-1.616425469202724,5905.629544766202
0.9,-1.6125673664205218,5902.65399510517
0.904,-1.598121210089152,5904.262284422717
0.908,-1.5767169650262713,5891.07444024121
0.912,-1.5514290983510624,5906.552678832707
0.916,-1.5242775196210518,5905.78286670338
0.92,-1.4964734776180901,5894.781434496252
0.924,-1.4689952733274005,5898.819635325465
0.928,-1.4431460090163355,5894.953512655928
0.932,-1.420937993856717,5895.846338548117
0.936,-1.4051863256433974,5902.178751751095
0.94,-1.399117728946251,5898.399380710711
0.944,-1.405364034758761,5904.822166811021
0.948,-1.4245433640565146,5894.573811383083
0.952,-1.454069164141898,5902.110167617557
0.956,-1.4880065220906968,5910.323861016788
0.96,-1.5184371574602276,5905.769428555005
0.964,-1.5379964306931613,5888.921450461504
0.968,-1.5425208751068848,5898.693701122287
0.972,-1.5326120865922916,5901.812603007688
0.976,-1.5134432289782778,5896.348056923921
0.98,-1.492936544972838,5896.291607455139
0.984,-1.4790833951719569,5898.71892230642
0.988,-1.4774073524681317,5895.5648509112925
0.992,-1.4893804275868527,5901.960582995762
0.996,-1.5121815321125904,5896.076546599409
1.0,-1.5397604731785635,5904.631090115651
1.004,-1.5648425620799518,5895.123520538044
1.008,-1.5812690260655118,5901.701544121662
1.012,-1.5859485086607186,5902.079188205783
1.016,-1.5797863535639916,5902.490783078936
1.02,-1.5672755611903308,5903.125861088666
1.024,-1.5548774346306227,5897.221012038401
1.028,-1.5487410916390465,5895.747901828004
1.032,-1.5525483767738686,5902.195734949088
1.036,-1.5662226001945732,5907.04610036325
1.04,-1.5859289335881341,5895.753342702669
1.044,-1.6053268213062202,5892.516318672716
1.048,-1.6175561203585354,5902.919412018244
1.052,-1.6171723359614731,5895.883787722532
1.056,-1.6013976323993897,5895.979803098329
1.06,-1.5705297455169727,5888.745877320393
1.064,-1.5277342917219727,5903.59719084354
1.068,-1.4784413383328663,5896.366356117897
1.072,-1.4293489270535615,5890.938319900147
1.076,-1.3869977597198477,5899.461343344758
1.08,-1.356144474625315,5896.508881984384
1.084,-1.338482980475333,5898.89535639786
1.088,-1.332322636968147,5911.729628843032
1.092,-1.3334987843391528,5895.284652094352
1.096,-1.337218804246478,5899.076073388411
1.1,-1.3400621586901347,5903.102518127729
1.104,-1.3412347620491527,5904.615519356513
1.108,-1.3425339811678358,5902.922024058881
1.112,-1.3471573724737629,5902.723392351614
1.116,-1.3580353898574593,5896.593146850122
1.12,-1.3764116450848873,5901.182812189539
1.124,-1.4010768417534218,5901.9050460461385
1.128,-1.4283729389133617,5907.929649676289
1.132,-1.4529283538614002,5902.474949816834
1.136,-1.4689653858542269,5895.017212553261
1.14,-1.4719332191171537,5907.524371747794
1.144,-1.4601834085869918,5899.675092600027
1.148,-1.4363367236134705,5904.288066784501
1.152,-1.4078385529878976,5898.482046201968
1.156,-1.3861058410396874,5897.899060593828
1.16,-1.3838729395579938,5904.596253145824
1.164,-1.4109213941635097,5901.292944835232
1.168,-1.4691012912019508,5893.465503205845
1.172,-1.5480365949759385,5905.472606071562
1.176,-1.622942151717351,5907.083717573313
1.18,-1.6556690701627603,5910.089789958242
1.184,-1.5995908502037435,5910.234767733988
1.188,-1.4082026465160093,5897.675610552072
1.192,-1.0462682597752404,5909.419889929047
1.196,-0.5011559021133742,5896.311538634557
1.2,0.20899478020119258,5900.506100009196
1.204,1.033832204022295,5906.932356982962
1.208,1.8982499744506178,5886.736513465468
1.212,2.717719540756462,5907.118420335597
1.216,3.416832666242767,5926.403151322568
1.22,3.944727431866314,5944.039921509405
1.224,4.282626594503931,5961.872331298598
1.228,4.442275065894798,5981.756864663578
1.232,4.457418859422227,6004.041982096585
1.236,4.372257472570568,6005.679755467675
1.24,4.230756874439675,6034.688889940198
1.244,4.069291490357473,6055.51880983271
1.248,3.9132533701052283,6065.026237903238
1.252,3.776940865357567,6080.2809022774345
1.256,3.6654939966332343,6105.535959565685
1.26,3.5776317398842026,6116.302902399887
1.264,3.508229428344279,6121.759141924846
1.268,3.4502621626013683,6157.52049660918
1.272,3.3961549095838066,6163.724687678583
1.276,3.338848209169195,6171.236886892239
1.28,3.272815148621253,6182.436213660345
1.284,3.195024818315752,6202.227139418128
1.288,3.105663594005102,6216.520142868408
1.292,3.008364403506989,6224.545812164704
1.296,2.909706198462465,6235.171628386725
1.3,2.8178492453994406,6252.4207070927405
1.304,2.7404560455646942,6258.932114221365
1.308,2.6824465061418983,6275.066079489699
1.312,2.6443734075490064,6288.752343863458
1.316,2.6220711710068976,6302.251025571871
1.32,2.607778639020481,6324.948687932962
1.324,2.5923732177604024,6321.1595380304425
1.328,2.567919558442131,6333.103065864872
1.332,2.5296464774820886,6348.494529167703
1.336,2.4767701526229278,6356.2542713104285
1.34,2.4120846118139285,6360.210635012065
1.344,2.340680199914903,6377.805637063007
1.348,2.268391735284921,6382.059688256874
1.352,2.200579407015255,6394.187113939293
1.356,2.1415907564148853,6407.779719668009
1.36,2.094829176677147,6415.680954987749
1.364,2.0629967089440484,6425.358557283397
1.368,2.0480160734882746,6432.096387913193
1.372,2.050417434828247,6440.294692727621
1.376,2.068426405699923,6450.417161079474
1.38,2.097318198021516,6463.029819733387
1.384,2.1295822972550003,6469.639918416666
1.388,2.1560754258837127,6480.402224685623
1.392,2.167871280079742,6486.7794884623445
1.396,2.1582389466858354,6494.637220330163
1.4,2.1241857647589644,6491.362305597592
1.404,2.0671342181124706,6507.094004819384
1.408,1.9924653289721015,6519.165335600661
1.412,1.907961411134815,6521.956230521581
1.416,1.8216363231102362,6524.277328006621
1.42,1.7397487218101182,6537.384989177217
1.424,1.6656766716533047,6533.44975522951
1.428,1.5998977688963714,6540.831642525776
1.432,1.540868369048516,6555.8761225449625
1.436,1.4863286565966396,6561.408167884535
1.44,1.4345428583371793,6571.437833649039
1.444,1.3851314375752686,6571.596608535674
1.448,1.3392909482682995,6586.087145526692
1.452,1.2993098522090216,6586.2278046885685
1.456,1.267505221928776,6583.041492107081
1.46,1.24499164013316,6589.439276254857
1.464,1.2308321232097705,6598.582733502403
1.468,1.2220054214373566,6621.370411705672
1.472,1.2143213079993183,6617.563688025845
1.476,1.2039994290787492,6623.3885942015495
1.48,1.1892023822693307,6618.871801855733
1.484,1.1706577410762349,6627.66967976556
1.488,1.1509108167666982,6640.5153316100605
1.492,1.132606485638851,6640.358350481666
1.496,1.1168812356919773,6640.393383136544
1.5,1.1028611716233065,6650.262829511175
1.504,1.0884637327637126,6661.682113786572
1.508,1.0718345117732957,6658.062263084045
1.512,1.052418115929866,6658.947876291783
1.516,1.0309965346523788,6669.244706190843
1.52,1.008761485369873,6669.329425846948
1.524,0.9861610557107656,6672.0298526188535
1.528,0.9624129533274693,6677.256955220932
1.532,0.9360618757956388,6672.66659720534
1.536,0.9061930844680482,6680.0091309208565
1.54,0.87352760993415,6676.994314704886
1.544,0.8408116618229347,6684.330746572812
1.548,0.8123620517612969,6696.7792197419485
1.552,0.7930046305990068,6703.347451127565
1.556,0.7868291317075015,6711.691502025387
1.56,0.7961611304426893,6711.148403338715
1.564,0.8209604822027325,6706.294628517863
1.568,0.8586538809082863,6727.154091574847
1.572,0.9043382628574078,6720.133227908628
1.576,0.9513308962029698,6726.786494308935
1.58,0.9920887870084848,6719.704381444106
1.584,1.019487458222309,6728.22382907494
1.588,1.028280614904716,6738.531784625143
1.592,1.0163328362387056,6725.401489202179
1.596,0.9851595804568137,6728.52837843677
1.6,0.9395534755285576,6736.367514845018
1.604,0.8864583852886578,6736.730938772683
1.608,0.8334995955191077,6745.934977526298
1.612,0.7875861374818244,6736.705407433687
1.616,0.7538592303912045,6747.892492348706
1.62,0.7350973233808071,6752.083326214382
1.624,0.7315699829861926,6754.269426935101
1.628,0.7412694252115991,6759.818949874447
1.632,0.7604196977188981,6761.696816767194
1.636,0.7841451274457627,6757.679579478764
1.64,0.8071860059319227,6767.934854340093
1.644,0.824624080828442,6767.359950362822
1.648,0.8326777687675289,6766.018257752989
1.652,0.8295750820496484,6778.878646840625
1.656,0.8162486919129963,6764.001169546478
1.66,0.7963766600726558,6770.984503765813
1.664,0.7754376961345407,6777.121408616884
1.668,0.7589371636057857,6775.791582756526
1.672,0.7504381341294645,6785.659408286061
1.676,0.750190035182934,6788.933272740815
1.68,0.7549179081858162,6784.607797765893
1.684,0.7588566057192578,6791.986633869003
1.688,0.7556256972796918,6789.103756242427
1.692,0.7402399862261793,6783.4188885732
1.696,0.710538695318868,6788.783397773182
1.7,0.667621502916305,6797.802628790003
1.704,0.6153495338964412,6792.688317396016
1.708,0.5592878624858592,6794.136908062055
1.712,0.5055024531410052,6800.217866177934
1.716,0.4595293816512996,6800.911089811514
1.72,0.42569527308092553,6812.384490830755
1.724,0.40675762064996074,6814.8415079771485
1.728,0.40368222613681504,6804.8338441008855
1.732,0.4154533331865567,6814.089631526748
1.736,0.43900537775007165,6804.632653367866
1.74,0.4694267079141482,6803.682174008003
1.744,0.5005034856556894,6808.455733394193
1.748,0.5256009571235386,6804.706500583254
1.752,0.5388324190201862,6818.16952441517
1.756,0.5363336904690745,6824.737978156176
1.76,0.5172681032767564,6818.92745354341
1.764,0.484118856570011,6816.556522119414
1.768,0.44201186115352226,6822.305107783455
1.772,0.3972147823263712,6824.741959301292
1.776,0.3553872315257299,6822.706217633666
1.78,0.3203257934347494,6819.9068535397655
1.784,0.29367534121184463,6819.646921030625
1.788,0.27552035553197624,6828.496875048199
1.792,0.2653289869720446,6831.804311490953
1.796,0.26268828539188505,6820.12413888072
1.8,0.2675750082942065,6831.561984212059
1.804,0.2802351654364226,6818.874025374174
1.808,0.3008558855629649,6821.044696584859
1.812,0.3291366485628202,6828.892047593521
1.816,0.36379582260867327,6830.38947823403
1.82,0.40211378143596577,6837.744436508552
1.824,0.439766060166934,6828.697650524572
1.828,0.47124227800080537,6829.603420189801
