时间(s),电压(V),幅值(高频80K)
0.0,-1.5579077606163236,5907.336403333901
0.004,-1.55188873680688,5896.926594699489
0.008,-1.5466962254912782,5898.556016010985
0.012,-1.5428341732119235,5903.261458535857
0.016,-1.5408532579572483,5898.479323440106
0.02,-1.5414490612617973,5884.687437183359
0.024,-1.5453715609790575,5908.106237609889
0.028,-1.553065841493874,5898.280256334538
0.032,-1.5642304177268869,5888.04474027852
0.036,-1.5776139687101094,5894.738033662868
0.04,-1.5912399826940513,5900.817756037532
0.044,-1.602996728242457,5906.2591207053765
0.048,-1.6113590503553061,5892.589217035583
0.052,-1.615976802660186,5896.143469388167
0.056,-1.617907124254857,5901.326366098351
0.06,-1.619348688520978,5903.543090206326
0.064,-1.6228967739431868,5906.753207184211
0.068,-1.630551011358955,5896.486827266821
0.072,-1.6428300155613855,5898.026381594891
0.076,-1.658290886555967,5903.528296851201
0.08,-1.6735847773177392,5899.656980660329
0.084,-1.684046925249413,5901.49142528968
0.088,-1.6847771470612332,5897.743082428019
0.092,-1.6720770535000675,5903.737636767867
0.096,-1.6448496319814103,5894.952253737057
0.1,-1.605344866766368,5906.055102764609
0.104,-1.5588075892865734,5898.4210392845935
0.108,-1.5121338762200516,5901.491886621316
0.112,-1.4721323996547562,5901.890069030722
0.116,-1.4440479766836178,5902.664304146608
0.12,-1.4306993001231656,5899.87505871648
0.124,-1.4322568390493995,5905.523542893587
0.128,-1.4465483108893142,5897.226160836969
0.132,-1.4697379329897589,5902.892428659147
0.136,-1.4971543945438388,5900.595456337583
0.14,-1.5240159936377522,5899.85686812098
0.144,-1.5459438085993336,5901.58617543158
0.148,-1.559376211822208,5899.758572444724
0.152,-1.5620650614063518,5898.666271224819
0.156,-1.5536572072592385,5900.53632309432
0.16,-1.536110745826486,5890.664366052975
0.164,-1.513608796986042,5909.366994566874
0.168,-1.491815907763482,5897.399678713832
0.172,-1.4766443322266123,5890.656367907373
0.176,-1.4729073094649072,5896.147145132393
0.18,-1.4832121838408985,5895.472882682358
0.184,-1.5073129248765076,5908.488960272677
0.188,-1.5420599946437312,5907.525595785033
0.192,-1.582021871788316,5894.671799748435
0.196,-1.620690752357527,5907.651479903086
0.2,-1.651965690602897,5893.566619329556
0.204,-1.6714931774940658,5901.616955229515
0.208,-1.6775136285883412,5906.730663582345
0.212,-1.6710440296626436,5903.50151853427
0.216,-1.6554087466226777,5894.497042182164
0.22,-1.6352453168910364,5900.949299384201
0.224,-1.6151864883927407,5907.556830688736
0.228,-1.5985312796569469,5898.244512718332
0.232,-1.586342423582705,5889.758432989824
0.236,-1.5773708305713163,5894.067029811247
0.24,-1.568891644231811,5895.623960835671
0.244,-1.5580877167237979,5894.631390014182
0.248,-1.543343150692816,5885.441680451497
0.252,-1.5248883695845492,5899.049103871235
0.256,-1.5045934738459092,5907.533898315391
0.26,-1.4851286106442818,5910.51390476419
0.264,-1.4689812506563211,5895.588486027967
0.268,-1.4577902973167265,5897.623826610118
0.272,-1.4521650518905005,5894.36142897309
0.276,-1.451860391580043,5904.154699118055
0.28,-1.4561034629994145,5916.244146898857
0.284,-1.4639595145628668,5904.596117089229
0.288,-1.4746839208352929,5901.482816200783
0.292,-1.4879684704977973,5901.8132436053365
0.296,-1.5039508065001432,5894.664875223002
0.3,-1.522913522601306,5901.049269877758
0.304,-1.5447548531175057,5896.267842027113
0.308,-1.5684743405494694,5897.356652792121
0.312,-1.59195525599402,5907.752036416502
0.316,-1.6121825032021746,5898.477928664848
0.32,-1.6258003933410587,5897.902946799328
0.324,-1.6297718370336791,5902.880881102695
0.328,-1.6219579486660476,5903.555097148657
0.332,-1.6016033597784611,5905.845844144449
0.336,-1.5697734703358568,5904.154826500073
0.34,-1.5296512081815734,5897.995266946392
0.344,-1.4864198802508715,5880.63580367429
0.348,-1.4464880422505184,5902.529832367475
0.352,-1.416125091538691,5898.264919293234
0.356,-1.3999574979555536,5897.480988391594
0.36,-1.399895507727635,5907.353112066085
0.364,-1.4148134224396605,5897.741704950236
0.368,-1.4409467495176322,5908.186137985526
0.372,-1.4727877670773972,5896.504482350514
0.376,-1.504243374640829,5905.559167754997
0.38,-1.5298064194582004,5892.511261171256
0.384,-1.545484913836765,5903.296662782238
0.388,-1.5493122647595392,5899.066558343708
0.392,-1.5413942672769656,5906.677213449071
0.396,-1.5235698022631299,5893.70556411555
0.4,-1.498866630497062,5906.720460746207
0.404,-1.4709789327227225,5902.110355410268
0.408,-1.44388751305397,5895.616927176724
0.412,-1.421530263576108,5906.763241732078
0.416,-1.4073255450154487,5899.168024944655
0.42,-1.4034863438453407,5900.132339387381
0.424,-1.410308597986737,5905.428651985935
0.428,-1.4257532301981868,5897.25436588012
0.432,-1.445591635101165,5898.0195147322365
0.436,-1.4642020171382668,5903.249320999493
0.44,-1.4758646480629187,5896.646964573893
0.444,-1.4761938123349068,5887.322761520812
0.448,-1.463261366254378,5899.389468536064
0.452,-1.4380720191191674,5911.017645986248
0.456,-1.4043094414705821,5897.77391626224
0.46,-1.3675368813736122,5910.709673924758
0.464,-1.3341387650832361,5914.261007404974
0.468,-1.3102195754738415,5889.897884200688
0.472,-1.300582468337241,5907.180520237903
0.476,-1.3078957690918915,5891.807588234027
0.48,-1.332180547774623,5905.429665874096
0.484,-1.3707387135677016,5894.9727208990935
0.488,-1.4185545747481971,5905.324927826816
0.492,-1.4690712670729964,5895.519898382821
0.496,-1.5151651125045495,5899.573644955184
0.5,-1.5501880949913998,5901.457943427089
0.504,-1.5690312379659754,5900.382504051321
0.508,-1.5691197187450694,5903.658190647787
0.512,-1.5510936530658161,5898.380208380272
0.516,-1.5188400630374503,5901.196323931638
0.52,-1.4786619211988654,5903.395108051042
0.524,-1.4376895238642247,5904.84855929038
0.528,-1.4020230578297235,5894.105284732622
0.532,-1.3753179838165626,5897.8220806296895
0.536,-1.358394034434791,5891.633196459255
0.54,-1.3499825428120678,5892.8409627131805
0.544,-1.3481727359167097,5902.621200962458
0.548,-1.3517892407755803,5899.569486459883
0.552,-1.3610126070777808,5903.403952775235
0.556,-1.3769779472120705,5900.587876987202
0.56,-1.4006102036268009,5898.254496152268
0.5640000000000001,-1.431326893354489,5896.867655414512
0.5680000000000001,-1.4663034111214508,5896.942402603609
0.5720000000000001,-1.5007372836415038,5890.605622059474
0.5760000000000001,-1.5290943722498531,5902.457661869163
0.58,-1.5468547774835044,5900.110695047257
0.584,-1.5519995351222293,5896.7559424474
0.588,-1.5455874158370229,5894.321121000457
0.592,-1.5312507226394274,5896.129108310065
0.596,-1.5139538040246414,5909.295816357687
0.6,-1.4985666101376598,5901.293610386806
0.604,-1.4887096865530145,5891.683018063725
0.608,-1.4861440725287844,5916.600177464129
0.612,-1.4908035510440683,5900.767844773944
0.616,-1.5013481500029529,5899.727698682829
0.62,-1.515902303295427,5899.706466401303
0.624,-1.5326075307628435,5903.527377478158
0.628,-1.5498307381425256,5896.244002878594
0.632,-1.5661351778662473,5899.376347055039
0.636,-1.5802059655647596,5898.5178692966265
0.64,-1.5908105080324644,5899.099939321548
0.644,-1.5967625806158892,5901.90879801189
0.648,-1.5969013603382987,5894.519495108039
0.652,-1.590215520069306,5900.558894226848
0.656,-1.5762450314014695,5898.437271242289
0.66,-1.5557161249993061,5894.155995777393
0.664,-1.5311146581500445,5897.091492153519
0.668,-1.5067502696991817,5903.560157420803
0.672,-1.4879607112485078,5892.573964976572
0.676,-1.4794973103895739,5903.246612130585
0.68,-1.4836542699978625,5892.5126714043645
0.684,-1.4990177948530325,5901.244032213818
0.6880000000000001,-1.5205483659579724,5899.89337147383
0.6920000000000001,-1.5411177654841457,5900.514008540605
0.6960000000000001,-1.553931923820419,5906.942890817816
0.7000000000000001,-1.5548601298836515,5891.680210309884
0.704,-1.543768320215226,5898.1733763928905
0.708,-1.524442048623229,5897.718270903859
0.712,-1.5032885783250862,5901.486010434793
0.716,-1.4874211756768039,5905.885503738536
0.72,-1.4828011781422177,5901.299904796629
0.724,-1.4929057490907913,5894.953965641488
0.728,-1.5180965835396172,5889.432423543003
0.732,-1.555643199978845,5903.983967781495
0.736,-1.6002549193303537,5894.839138367605
0.74,-1.6449916722805682,5899.158964860527
0.744,-1.6824790735187174,5911.679496998182
0.748,-1.7063200256344915,5898.292353761143
0.752,-1.7124412574003574,5900.094556650472
0.756,-1.699974838658794,5901.562811814812
0.76,-1.671329077621731,5899.421393661636
0.764,-1.631387666175745,5895.451086314942
0.768,-1.5861310434993643,5906.223666369241
0.772,-1.5411743202273416,5897.497976399394
0.776,-1.5006786032108759,5894.348929433619
0.78,-1.4669115763888174,5902.576795030762
0.784,-1.4405041707930895,5905.85232967658
0.788,-1.4211911812888371,5900.350227400598
0.792,-1.408614560757792,5908.0230524291765
0.796,-1.402775929039473,5897.78295687886
0.8,-1.4039827693596736,5899.066477572242
0.804,-1.4124418696138163,5903.5515125324
0.808,-1.4277907587421477,5898.816583690057
0.812,-1.4487816436872156,5901.906555950364
0.8160000000000001,-1.4731728204699457,5898.202533869108
0.8200000000000001,-1.4978079446346189,5894.639273416601
0.8240000000000001,-1.5189148909102372,5894.624389400182
0.8280000000000001,-1.5326919456201493,5902.717691858385
0.8320000000000001,-1.536134966231329,5900.514474471396
0.836,-1.5278643808573509,5893.723208973503
0.84,-1.5086232107928403,5899.706209619264
0.844,-1.4812257075563695,5896.15506890502
0.848,-1.449963750682918,5897.346368377283
0.852,-1.41968135663853,5904.319687603359
0.856,-1.3948166108393938,5895.648848991829
0.86,-1.3786688285907402,5894.131354305359
0.864,-1.3730086954260852,5902.152737399543
0.868,-1.378004586829248,5896.605367340087
0.872,-1.3923876644432607,5889.376403977161
0.876,-1.413802427340191,5899.395598616469
0.88,-1.4392980996735538,5902.523201915516
0.884,-1.4658956727224277,5907.92858102005
0.888,-1.4911445699492898,5899.4782577826245
0.892,-1.5135384162450565,5904.173294247892
0.896,-1.5326039734650678,5903.156521269537
0.9,-1.5485372749097241,5904.30416137807
0.904,-1.5614997249268259,5895.368094122321
0.908,-1.5709355614049578,5899.606484325263
0.912,-1.5753067885013448,5897.734109051256
0.916,-1.57245199511091,5901.405210756725
0.92,-1.5604935938358289,5902.957900341345
0.924,-1.5389296522292493,5894.296811733463
0.928,-1.5093635346856422,5902.910600545299
0.932,-1.4754326173102499,5901.822164004808
0.936,-1.4419096555102215,5904.316848599429
0.94,-1.4133897399192095,5898.99635708853
0.944,-1.393144471963162,5901.038522358866
0.948,-1.3825658914920085,5901.33650785161
0.952,-1.3812824651715898,5894.354519158716
0.956,-1.387705823277896,5895.89957039129
0.96,-1.3996251068171726,5899.68961445649
0.964,-1.4145804025616902,5890.421906111596
0.968,-1.4300284756723267,5890.216221353785
0.972,-1.4435290463858272,5904.860508923215
0.976,-1.4531300717966704,5897.100006239921
0.98,-1.4578537063563368,5896.772911116087
0.984,-1.457960917934304,5914.436541184157
0.988,-1.454763550257536,5896.81395486404
0.992,-1.4500902053393743,5902.287928519717
0.996,-1.4457384574551577,5898.84525315365
1.0,-1.4431342012788193,5906.211889242679
1.004,-1.4431460098645885,5905.70787531736
1.008,-1.4459031718889783,5911.313611708687
1.012,-1.4506297823421321,5905.9211236229485
1.016,-1.455710755926166,5901.45261718453
1.02,-1.4591808819666099,5898.87828076407
1.024,-1.4595431967980743,5892.506801515639
1.028,-1.4565169360900008,5904.974966705322
1.032,-1.4512687079140503,5899.495328176238
1.036,-1.4459584806060957,5897.681424648538
1.04,-1.4428319123315299,5898.413446592205
1.044,-1.443320681069903,5906.78338313008
1.048,-1.4475387275312313,5896.890733803636
1.052,-1.4542938528889453,5906.663986507205
1.056,-1.4614911102285346,5901.633634946736
1.06,-1.4667228473756337,5900.184301656999
1.064,-1.467880682071376,5903.292138837792
1.068,-1.4636748476135624,5903.343657675815
1.072,-1.4539782237855225,5897.998341194683
1.076,-1.4399409819732842,5901.5149920036365
1.08,-1.4238207900509896,5902.337335290562
1.084,-1.4084778156415074,5902.718957592098
1.088,-1.396584132125768,5901.673424285095
1.092,-1.389754454688738,5898.009135422409
1.096,-1.387902526023505,5895.495209620998
1.1,-1.3891322785026845,5902.649866112668
1.104,-1.3903467462126664,5893.66626396075
1.108,-1.3884408925411587,5899.419363462261
1.112,-1.3815813195537414,5901.344592161132
1.116,-1.3699746579517074,5898.5961987765
1.12,-1.355797578168847,5893.014643029655
1.124,-1.3423986139415307,5904.131510268446
1.128,-1.3331998209333071,5896.136353723554
1.132,-1.330766436017044,5903.144448772546
1.136,-1.336304796781799,5893.367551376573
1.14,-1.3495838774927287,5905.037700591794
1.144,-1.3691282126918127,5901.616781666592
1.148,-1.3925096628804439,5901.9703085171
1.152,-1.41663082641119,5895.12076699451
1.156,-1.4380358782113463,5898.345052008738
1.16,-1.453402807792764,5905.196183594152
1.164,-1.4602976819545894,5899.541094754096
1.168,-1.4580187521063313,5898.478144845621
1.172,-1.4481494858261597,5904.439793559979
1.176,-1.4344689979074878,5899.302495467388
1.18,-1.4221152883141397,5903.8164073223
1.184,-1.4161887949966907,5904.757395555765
1.188,-1.4201966128050607,5902.311798538868
1.192,-1.4348518837230897,5906.974492986973
1.196,-1.457709485128701,5910.013403205848
1.2,-1.4838471830334845,5901.295374011321
1.204,-1.507356762560549,5897.1146126564245
1.208,-1.5230583052444273,5903.372961521915
1.212,-1.5278113082401537,5889.550764225768
1.216,-1.5210546136501282,5910.266327697372
1.22,-1.5045780917152254,5904.6627642873145
1.224,-1.4817930525910064,5899.290494174621
1.228,-1.4568083389142146,5895.6281424615
1.232,-1.4335260080189955,5902.873592723335
1.236,-1.4149195567840749,5896.442494548022
1.24,-1.4026546599967549,5900.442482073268
1.244,-1.3971284740020908,5901.10483968237
1.248,-1.397823429356857,5899.619924244076
1.252,-1.4037227915025172,5898.70019627563
1.256,-1.4135422880364206,5902.099968420192
1.26,-1.42572799780854,5897.0299571712285
1.264,-1.4384179540644655,5896.197004522013
1.268,-1.4496003947757738,5905.619865097486
1.272,-1.4574593667227538,5889.853716850189
1.276,-1.4606636947610754,5900.181862993655
1.28,-1.458406184966685,5897.222551537925
1.284,-1.4502596417006035,5896.01919507488
1.288,-1.436101240185332,5906.245514856229
1.292,-1.4163168730002667,5897.718983684597
1.296,-1.3923077294314454,5900.27581624701
1.3,-1.3671316009200498,5893.351188719407
1.304,-1.345990291597035,5903.057926675059
1.308,-1.336200028858732,5901.781038869626
1.312,-1.3462538234012666,5895.917118664247
1.316,-1.3837165708961952,5891.136351282185
1.32,-1.4520898262135498,5902.443846327134
1.324,-1.547313181896078,5895.627498235132
1.328,-1.6549337245615674,5899.176910348135
1.332,-1.7490168736856941,5898.989353514273
1.336,-1.7936543741814015,5903.491202079264
1.34,-1.7475386073393422,5902.014670936196
1.344,-1.5714975929960275,5904.2654081198425
1.348,-1.2380369114250809,5899.358437765391
1.352,-0.7408548506400634,5896.183834540703
1.356,-0.10134888194185379,5900.904714952253
1.36,0.6310131559237627,5889.904053223329
1.364,1.3862312731641522,5884.470978044315
1.368,2.088079444273212,5913.406251048048
1.372,2.6708364020314566,5920.436957430499
1.376,3.0927537819270556,5944.931608511268
1.38,3.342134383275599,5965.198723106219
1.384,3.435170571328301,5979.79749692509
1.388,3.4075994884926937,6000.369013838555
1.392,3.3036406761175265,6022.300499619279
1.396,3.165642221840906,6048.683670338668
1.4,3.02684782441597,6058.813153448946
1.404,2.9082226311756383,6070.583391940374
1.408,2.8188676597802558,6084.426389304965
1.412,2.7586744904791223,6101.657128300358
1.416,2.7217359026636054,6115.859690426935
1.42,2.699460186923432,6131.426479324509
1.424,2.682921962061203,6147.261691775328
1.428,2.6644129694619436,6151.734915083552
1.432,2.6383662244784376,6179.150246620055
1.436,2.6018452717956047,6180.3922637952055
1.44,2.5546780079129707,6195.60257230274
1.444,2.4992118084901707,6216.06563117578
1.448,2.439688197133826,6220.862735574061
1.452,2.3813261884574883,6245.899816994933
1.456,2.3292450574143135,6254.5078731726335
1.46,2.287365515747983,6262.838497670355
1.464,2.257496003071952,6278.246129664489
1.468,2.23889734793058,6288.358017366283
1.472,2.228557557367343,6301.58262286624
1.476,2.2221306851466434,6317.321384733228
1.48,2.2151524905874678,6320.98410391038
1.484,2.203998526206515,6337.852293946909
1.488,2.1862437748938746,6334.858985682134
1.492,2.1605054797131076,6351.830274488093
1.496,2.1261688757780814,6370.561375138712
1.5,2.0833398237721004,6375.516944632894
1.504,2.033036852386913,6385.412311930632
1.508,1.9773740483028162,6392.309140177669
1.512,1.9194732528515477,6401.463307190226
1.516,1.8629951233357627,6411.170815464055
1.52,1.811390174239986,6425.426486419644
1.524,1.7671579660120271,6431.384132559431
1.528,1.731410800140368,6438.675759816692
1.532,1.7038353978557814,6447.245351905478
1.536,1.6829468332990702,6461.422189334273
1.54,1.6664999658676167,6466.150500300589
1.544,1.6519810022144077,6471.873682400121
1.548,1.637113141505068,6488.51427670965
1.552,1.6202741410900003,6481.29711244929
1.556,1.6007130469470536,6491.761627605471
1.56,1.578515185089508,6506.296220803823
1.564,1.5543719666593214,6511.927066428678
1.568,1.5292814751937969,6520.56652805884
1.572,1.5042896187448502,6529.182597052449
1.576,1.480315327031374,6535.214816550051
1.58,1.4580364512504402,6546.3395166006
1.584,1.4377770602534101,6547.878600084118
1.588,1.41936933040671,6554.095153746574
1.592,1.402047859017891,6564.429984125412
1.596,1.3844779695892402,6563.025325316878
1.6,1.364981926119446,6569.723780364663
1.604,1.3419587749740227,6578.498550686576
1.608,1.3144217362017137,6580.390662238679
1.612,1.2824990830727128,6581.795551899916
1.616,1.2477025054640158,6587.666535675088
1.62,1.2127991905635909,6596.2925100648245
1.624,1.1812246573328564,6605.925967588017
1.628,1.1561478393569242,6601.281748123358
1.632,1.1395137450807187,6620.11241826605
1.636,1.131482587410974,6623.780493122648
1.64,1.1305146450158776,6629.175015110449
1.644,1.134006045772538,6632.113618203061
1.648,1.1391162054820902,6636.146222012062
1.652,1.1434041667029655,6636.233705428306
1.656,1.1450794990725268,6640.549896035635
1.66,1.1429347794923306,6649.153785779064
1.664,1.136197765490398,6655.090499138761
1.668,1.1245280800088495,6662.410674990326
1.672,1.1082226469342105,6656.481417650657
1.676,1.0884951432626198,6671.893211157268
1.68,1.0675660045105815,6678.415409385214
1.684,1.0483262461084324,6676.083855418967
1.688,1.0335358121240332,6674.221771422534
1.692,1.0248020991167792,6681.376445323625
1.696,1.0217987530656103,6685.205225510152
1.7,1.0221616798598263,6695.095571629898
1.704,1.02220079354852,6697.51620327092
1.708,1.0181643970333005,6703.40900323322
1.712,1.0075353367639732,6703.396400430388
1.716,0.9898474511723976,6699.011982135795
1.72,0.9667455186007562,6704.900965036926
1.724,0.9413455155976076,6713.232399944205
1.728,0.9172242868748515,6716.26133354739
1.732,0.8974317628942892,6716.447474857585
1.736,0.8837716893816312,6707.866612109471
1.74,0.8764203729563347,6722.765845731537
1.744,0.8739086750736306,6724.4247716833
1.748,0.873531955520635,6729.0504844724055
1.752,0.8722072387287788,6739.883770416628
1.756,0.8675906229494632,6738.828315558906
1.76,0.8590157883140535,6738.730746957087
1.764,0.8477522759349749,6744.879992736892
1.768,0.8363626169739632,6747.620042639728
1.772,0.8274437211100689,6745.671527959743
1.776,0.8224201060060413,6754.232241287692
1.78,0.8210003296579157,6742.664000003408
1.784,0.8214420341838745,6739.228233333176
1.788,0.8213022501742909,6755.032050797259
1.792,0.818254939505639,6751.286970197661
1.796,0.8107542081933983,6768.397577901407
1.8,0.798456411833297,6758.844910827822
1.804,0.782303341304547,6766.010403278207
1.808,0.7642153246570311,6769.579764773355
1.812,0.746511077298712,6760.569751334594
1.816,0.7312920760912709,6770.625794667562
1.82,0.7199881843231738,6771.954572430249
1.824,0.7131334410350687,6785.830285503629
1.828,0.7103560728850826,6776.147850095543
1.832,0.7105503088825386,6778.032718403448
