时间(s),电压(V),幅值(高频80K)
0.0,-1.792500425373505,5899.684064218295
0.004,-1.7508438998640243,5907.21759789481
0.008,-1.7101329027551693,5902.81789642942
0.012,-1.6708303834431382,5901.418521877577
0.016,-1.6340010465769823,5897.388976787125
0.02,-1.6014597233170815,5900.211457816745
0.024,-1.5755106541756843,5902.784540717262
0.028,-1.5582980123274905,5897.976435108705
0.032,-1.551099125773272,5888.531923733469
0.036,-1.5539435306230083,5903.231643414541
0.04,-1.5656958141628732,5908.646484021595
0.044,-1.584460188398624,5905.588753428405
0.048,-1.6080857292106543,5896.279700660755
0.052,-1.6346183922721678,5900.93149350935
0.056,-1.6625760564204513,5900.180357503005
0.06,-1.6909111119966589,5895.679489273815
0.064,-1.718621516446328,5894.455557111799
0.068,-1.7442222913069017,5897.109728379543
0.072,-1.7655075576769337,5903.8777661636805
0.076,-1.7799487175494282,5901.894819397088
0.08,-1.7856568669013488,5894.240741078053
0.084,-1.7824073121816915,5894.9996921338825
0.088,-1.772138031029733,5896.850364241974
0.092,-1.7586259628464365,5899.370556126375
0.096,-1.7464545252920223,5894.388266295253
0.1,-1.739651513969147,5890.579409987712
0.104,-1.7404400047286601,5894.25155844665
0.108,-1.7484988127366299,5898.376905551963
0.112,-1.7610137584615317,5911.037015352924
0.116,-1.7735523226714898,5890.558506212202
0.12,-1.781436499907132,5909.240953746085
0.124,-1.7810416270856044,5904.059765119377
0.128,-1.770533640981436,5891.913617623191
0.132,-1.7499348081006598,5893.417227367385
0.136,-1.7207771575176567,5897.546729305157
0.14,-1.6856901349982518,5902.248532859548
0.144,-1.6480952233151047,5904.464643024413
0.148,-1.61197946859209,5896.091564782902
0.152,-1.58164347067349,5904.408245640553
0.156,-1.561326644317853,5912.411297330966
0.16,-1.5546369826321542,5905.831576175601
0.164,-1.5637960172929235,5901.095883976012
0.168,-1.588876762123947,5903.569748075446
0.172,-1.6273380122584622,5888.055891201237
0.176,-1.6741115428875146,5899.280182109046
0.18,-1.7223083102545678,5901.645814465066
0.184,-1.764395182054542,5907.990850517058
0.188,-1.793554435828135,5897.386042996834
0.192,-1.8049162743296088,5891.609673551371
0.196,-1.7964215211659573,5903.464618244349
0.2,-1.7691875349287065,5894.232461910922
0.204,-1.7273947444948539,5904.387947357279
0.208,-1.6778035857818347,5898.8862340456135
0.212,-1.6289563599082186,5901.739023364508
0.216,-1.589988703459015,5896.942525682829
0.22,-1.5689818345283004,5899.889283035303
0.224,-1.57102500348889,5910.279438116329
0.228,-1.5964946959396442,5899.976077457354
0.232,-1.6402472131900345,5902.475457213713
0.236,-1.692271926505795,5887.768560967204
0.24,-1.739866774420669,5898.850582349694
0.244,-1.7708107876954102,5897.512455362141
0.248,-1.7766049255684817,5898.247692201185
0.252,-1.7547654612350057,5901.473352860003
0.256,-1.7094079195219072,5896.4932222127245
0.26,-1.6499250418638962,5892.872672215609
0.264,-1.5882429977654984,5903.665037342176
0.268,-1.5356111830758696,5896.237180906043
0.272,-1.4999446458498515,5895.312088770642
0.276,-1.4844260191316794,5919.3298408471455
0.28,-1.4875535067071979,5903.774107220462
0.284,-1.5043184380754753,5898.128764724764
0.288,-1.527916395547254,5893.730417021884
0.292,-1.5514200912746214,5889.516323891276
0.296,-1.5690840083528683,5905.8668337679455
0.3,-1.5772184399510483,5905.714155463773
0.304,-1.5746949966905985,5893.17368241133
0.308,-1.563099642480018,5900.753826244138
0.312,-1.5464466761036564,5897.458631769459
0.316,-1.530355888738124,5900.112733830868
0.32,-1.5207463791272928,5896.299751194692
0.324,-1.5223492878400504,5907.491551859371
0.328,-1.5375196173734877,5908.109452885905
0.332,-1.565772282213727,5895.121565227617
0.336,-1.6041457570736153,5901.975722944336
0.34,-1.6480903223967174,5897.607586791494
0.344,-1.6924031849943104,5899.463400320879
0.348,-1.7319208154153098,5904.090993440822
0.352,-1.7619921502317069,5905.407323837272
0.356,-1.7788852269594857,5906.778863583102
0.36,-1.780210043705322,5900.243356968123
0.364,-1.7653467226928576,5894.13090061909
0.368,-1.7358038742302018,5893.273929340524
0.372,-1.6953429086617329,5897.431252857554
0.376,-1.6496406749828536,5904.202324902338
0.38,-1.6053663789892914,5902.801378563969
0.384,-1.568818150206382,5897.78185938282
0.388,-1.5445037684723943,5896.844525564144
0.392,-1.5341074300765338,5901.911480587356
0.396,-1.5361868115275326,5902.95729726077
0.4,-1.5467536359181093,5898.862401427932
0.404,-1.5606314409777726,5900.871024624734
0.408,-1.5732251721496082,5902.558053551452
0.412,-1.5821593711141066,5899.339793713033
0.416,-1.5881856464416173,5910.04596883485
0.42,-1.5949065669470943,5905.131145938029
0.424,-1.607290286383117,5902.3921456690405
0.428,-1.6295220134241497,5907.126080707105
0.432,-1.6631038330687264,5904.032482766893
0.436,-1.705999332521517,5907.689215443194
0.44,-1.7530851832443959,5901.53122552576
0.444,-1.7975784352607713,5894.148389505847
0.448,-1.8328025513812762,5903.324236361338
0.452,-1.8537028339491217,5910.961778674777
0.456,-1.8577603652452206,5906.249281348153
0.46,-1.845216697534892,5900.898493495654
0.464,-1.8187389250523693,5909.26716323895
0.468,-1.782780300668724,5892.3391046239085
0.472,-1.7428596533433773,5898.492894164724
0.476,-1.7048208342564728,5903.769789793148
0.48,-1.6740164290662702,5898.729194948578
0.484,-1.6544167521879305,5896.668401804002
0.488,-1.6477925810749716,5903.344318347288
0.492,-1.6532093409569135,5895.374376771348
0.496,-1.667065064421556,5905.517673378548
0.5,-1.6837998343366287,5905.468777441581
0.504,-1.6971728994152382,5901.569512488528
0.508,-1.7017420984134726,5903.78302495005
0.512,-1.6940950290344161,5902.684203550943
0.516,-1.6735281450835875,5897.887135565589
0.52,-1.6420858172977641,5904.324633322945
0.524,-1.6040200284505848,5903.724428376366
0.528,-1.5648474341451666,5902.780745629962
0.532,-1.5302959523345212,5906.451362304176
0.536,-1.5054379350330318,5903.237422366868
0.54,-1.4941340315766611,5895.209956403545
0.544,-1.4987128420618163,5897.870087678475
0.548,-1.5197725910737359,5900.603371446159
0.552,-1.5560809887708726,5894.900971667583
0.556,-1.6046078607289966,5906.782341440391
0.56,-1.660712031503931,5898.485150806879
0.5640000000000001,-1.7185043623174177,5900.599187816773
0.5680000000000001,-1.771438398705986,5900.520109238903
0.5720000000000001,-1.813149407902409,5901.842559538086
0.5760000000000001,-1.8384448600160264,5903.402502941915
0.58,-1.844244523977481,5894.794519751764
0.584,-1.8302615456231395,5900.771142284839
0.588,-1.7992710649949344,5904.586488839292
0.592,-1.756859476696277,5899.505369878446
0.596,-1.710606179514327,5901.448999471364
0.6,-1.6687761484835666,5898.705724047287
0.604,-1.6387496973573281,5898.446937563278
0.608,-1.6255007096361522,5897.995112018437
0.612,-1.63046537719395,5905.014512339072
0.616,-1.651136153564781,5901.764024817547
0.62,-1.6816001421661215,5905.712808718532
0.624,-1.7139819924041935,5910.492891020411
0.628,-1.740431811855196,5894.382191245337
0.632,-1.7550590333052667,5903.435639885288
0.636,-1.755196093737619,5896.974734225893
0.64,-1.741641175414654,5904.29231687513
0.644,-1.7179453212813078,5894.134393989703
0.648,-1.6891248901151508,5898.9201899694
0.652,-1.6602555479016592,5899.387190882777
0.656,-1.6353082822523548,5905.924210541054
0.66,-1.616462512949647,5901.461034530208
0.664,-1.6040164835642177,5903.217161087305
0.668,-1.5968583050668934,5901.336185451913
0.672,-1.593276416663093,5896.683921167425
0.676,-1.5917987518678682,5887.614712120219
0.68,-1.5918094952095008,5889.350470263569
0.684,-1.5938011275499468,5907.390528943012
0.6880000000000001,-1.599194250861517,5889.828234418465
0.6920000000000001,-1.6097371907869744,5903.795712261363
0.6960000000000001,-1.626633168160827,5896.794380015141
0.7000000000000001,-1.6497052335117262,5898.197933710593
0.704,-1.676990916154951,5897.1066451728375
0.708,-1.7050329365230974,5897.882642472202
0.712,-1.7297998647744122,5905.856380007883
0.716,-1.7478382914873842,5899.105719830838
0.72,-1.7571538430621207,5897.316898147878
0.724,-1.757478720940523,5900.331753415438
0.728,-1.7498974718811973,5901.068708185273
0.732,-1.7361216465194205,5907.70480074803
0.736,-1.7178558960037873,5897.608523200092
0.74,-1.6965746527765364,5900.824604720714
0.744,-1.6737168655798553,5898.129429439129
0.748,-1.651042146934595,5904.562219396928
0.752,-1.6308520498069419,5893.250103571483
0.756,-1.615930843841604,5895.518032613936
0.76,-1.60921965917616,5893.332023309135
0.764,-1.6132829367965662,5893.675196377665
0.768,-1.6296089731604324,5905.259608514334
0.772,-1.657845767224033,5905.29899957289
0.776,-1.6952235677109557,5896.658464984057
0.78,-1.7364880453620462,5899.471385462745
0.784,-1.7745407077105,5902.693350311611
0.788,-1.8017384447366183,5894.629429509361
0.792,-1.8115793981060953,5895.357924123925
0.796,-1.8003602841868123,5901.81575368317
0.8,-1.76835733555237,5898.196626803438
0.804,-1.7201573150525338,5908.036781523176
0.808,-1.6639346392896082,5900.884566516908
0.812,-1.6097539351991808,5898.728881257527
0.8160000000000001,-1.5673162293712612,5905.866798214421
0.8200000000000001,-1.5437731090495006,5899.880168949679
0.8240000000000001,-1.5421865119056595,5894.89184153523
0.8280000000000001,-1.560988996774922,5898.266527341189
0.8320000000000001,-1.5945356525952523,5890.572601965451
0.836,-1.6345852723182015,5901.201963885124
0.84,-1.672318956632787,5906.898716896702
0.844,-1.700368743175073,5897.733298195309
0.848,-1.7143540534132673,5900.106873807953
0.852,-1.7135807673645111,5897.710119933308
0.856,-1.7007874142456596,5898.898778261125
0.86,-1.6810950373793196,5895.220615326472
0.864,-1.6605469577541339,5894.824786882624
0.868,-1.6446739063608287,5895.587111325449
0.872,-1.6373697476748523,5893.488038256136
0.876,-1.6401777453230733,5897.404624322205
0.88,-1.6520247585505914,5900.393277455799
0.884,-1.669466210260239,5893.595395525871
0.888,-1.6874776135654406,5894.047288895222
0.892,-1.7007006974720287,5909.503172170283
0.896,-1.7048809378767047,5901.921299119884
0.9,-1.6980912264891315,5900.550126105969
0.904,-1.6813144965626026,5893.784417865651
0.908,-1.6581438834320412,5902.566761908765
0.912,-1.6337041163832844,5898.148227074496
0.916,-1.6132005749572893,5905.297971836658
0.92,-1.6005990364291502,5898.694676447477
0.924,-1.5978361295523364,5903.381757226449
0.928,-1.60473604448989,5903.639054501798
0.932,-1.6195119214016087,5894.6222890308345
0.936,-1.639468279640021,5899.436922319359
0.94,-1.6614993519825974,5890.270315652321
0.944,-1.682272723360627,5902.773377815395
0.948,-1.6983465837697174,5898.636580429189
0.952,-1.7065373375714925,5900.786660475081
0.956,-1.704588253230334,5902.991436654678
0.96,-1.6918694954315425,5884.28981255466
0.964,-1.6697229602524757,5900.659500518267
0.968,-1.6412181486064754,5895.945194766533
0.972,-1.6104190004832326,5905.441253477761
0.976,-1.5815471022123462,5903.771522945607
0.98,-1.5584281341427855,5900.266373124679
0.984,-1.544317467183649,5900.244363335257
0.988,-1.5418549223590963,5894.381628822617
0.992,-1.5527747648271153,5903.485758923071
0.996,-1.5772127812216734,5893.610415742936
1.0,-1.6128724442246059,5900.632194349375
1.004,-1.6546189282576123,5898.2874789867765
1.008,-1.6950250663382749,5891.70391354592
1.012,-1.7260338860785371,5900.019348509986
1.016,-1.7414274879034979,5898.342135215856
1.02,-1.7393816000966678,5895.95939514362
1.024,-1.7241855553023504,5897.549362871809
1.028,-1.7063152805392658,5899.412939394149
1.032,-1.7004377683065919,5896.426562556969
1.036,-1.721483127713317,5896.031815766696
1.04,-1.7794982910056163,5902.190340021826
1.044,-1.8744339400027465,5890.071248834325
1.048,-1.9921956515575983,5899.02565117761
1.052,-2.10319814288026,5904.94224062598
1.056,-2.1643546180548734,5900.063204157932
1.06,-2.124945839769877,5900.321074640308
1.064,-1.936090417844902,5895.821121226581
1.068,-1.5625046565836391,5899.328562401172
1.072,-0.9940193875860115,5904.187869234303
1.076,-0.2533613887383997,5896.238653274436
1.08,0.6033027280612134,5897.345511815304
1.084,1.494950108806796,5890.355327162462
1.088,2.3320442044022003,5912.395356838873
1.092,3.0357641376119173,5925.649109533728
1.096,3.553804730947852,5946.272807123328
1.1,3.868105248416866,5966.553094806489
1.104,3.9933529732292294,5985.208713000988
1.108,3.9682766583817557,5997.844985889026
1.112,3.843441964360361,6022.324237913609
1.116,3.6693741317041577,6036.097164718103
1.12,3.4877340376762147,6047.996418005484
1.124,3.326665445634836,6060.975343695625
1.128,3.2000675779983596,6084.320914129248
1.132,3.109767481280715,6108.264717942311
1.136,3.049275731433283,6115.391195041911
1.14,3.0078545437226722,6123.0443170148055
1.144,2.973969403419191,6144.904795765042
1.148,2.937729647674135,6157.17202575674
1.152,2.892370047033195,6164.96775748106
1.156,2.8349452708661014,6183.026859543492
1.16,2.7662857076182554,6200.599003394853
1.164,2.6902109250090587,6221.08699615834
1.168,2.6121646120997637,6220.309498966709
1.172,2.5376581813916252,6232.968205389254
1.176,2.4709730432838266,6246.57270363208
1.18,2.4144339127778705,6255.535379688532
1.184,2.3683239860622494,6265.904051143064
1.188,2.3312852875111116,6278.551173216805
1.192,2.3009299148130253,6296.209455760286
1.196,2.2744272705414983,6306.430116725862
1.2,2.248969272973036,6317.774293691212
1.204,2.2221123808187477,6321.21760352552
1.208,2.1920061027943287,6334.197340111395
1.212,2.1575337494532856,6342.990246734456
1.216,2.118439061731527,6356.353575922045
1.22,2.0754860992670063,6370.691380754413
1.224,2.030568039216976,6383.87017395326
1.228,1.9865662916524134,6386.157780888528
1.232,1.9467863106330043,6395.377513816648
1.236,1.9139816330985497,6404.61958502674
1.24,1.8892453089169736,6411.093016086699
1.244,1.8712400513202476,6421.106382734828
1.248,1.8562124274167453,6421.969066273856
1.252,1.8389718380904778,6439.355488025476
1.256,1.814603271794871,6443.114602837964
1.26,1.7802901794877235,6452.857046450638
1.264,1.7364737901425187,6457.2562058892645
1.268,1.6868151021236675,6469.31258651036
1.272,1.6369565851257433,6472.279129877313
1.276,1.5926025494351992,6480.094728388008
1.28,1.5576810217110915,6501.468894360542
1.284,1.5332420382013638,6511.2292091939535
1.288,1.5174017181522992,6502.14389253884
1.292,1.5062504039294586,6516.7967571738245
1.296,1.4953520235050852,6522.856756069089
1.3,1.4813114621369556,6539.702913537895
1.304,1.4628760962828862,6528.083609791436
1.308,1.441192356597728,6529.58043632747
1.312,1.4191434439436006,6541.665188571015
1.316,1.4000313682906786,6557.968171212369
1.32,1.3860971902021089,6551.282117050712
1.324,1.3774308073431272,6558.299705940428
1.328,1.3717015582473193,6561.587919976438
1.332,1.3648608673108904,6571.784052481337
1.336,1.3525716511102739,6576.886497732276
1.34,1.3317627425605683,6584.307112484748
1.344,1.3016480347706596,6591.304341628453
1.348,1.263875565567988,6590.705368756333
1.352,1.221931926130774,6599.329180944805
1.356,1.1801922653050645,6601.472762402488
1.36,1.1429742989777392,6608.898867273984
1.364,1.1137684112565318,6615.165931049717
1.368,1.0946721294454627,6624.303174635215
1.372,1.0860233568807807,6622.063890147347
1.376,1.0862494606725146,6636.015453139253
1.38,1.0919959810164988,6628.657280200789
1.384,1.0986520213191724,6626.441802936838
1.388,1.1013467829603178,6649.575952600175
1.392,1.0962628349391443,6647.096093613377
1.396,1.0818175862293504,6650.489572225719
1.4,1.0591726706667384,6657.3444547882455
1.404,1.0317653646574398,6663.131621221155
1.408,1.003985198306326,6658.748012737206
1.412,0.9795005543771309,6662.779892277501
1.416,0.9598835709061083,6673.075485560737
1.42,0.944050527866379,6666.4632009161805
1.424,0.9287399429137091,6684.660602421334
1.428,0.9099008383422719,6685.843612815592
1.432,0.8845122584896858,6680.073895690541
1.436,0.8521187146494784,6683.701487942915
1.44,0.8154228452559484,6698.191108285058
1.444,0.7796627111281762,6699.367343875039
1.448,0.7510158808250772,6701.189546762547
1.452,0.7346493889573664,6693.542440803612
1.456,0.7331330325452853,6693.960566796473
1.46,0.7457399168144121,6718.037795283535
1.464,0.7687559896319807,6707.768213283145
1.468,0.7965168629318926,6709.705627186689
1.472,0.822707292326725,6706.067823419489
1.476,0.8415347023047434,6714.899330942121
1.48,0.8485912148896559,6723.760722420116
1.484,0.8413999037004765,6727.03139115145
1.488,0.8197026896369188,6724.363903072562
1.492,0.7854969305109935,6728.019660377593
1.496,0.7427833149178561,6730.814577512836
1.5,0.6970152540928901,6730.722690157326
1.504,0.6542842699874397,6740.403484924473
1.508,0.6203076621746035,6736.0645246287695
1.512,0.5993502373570219,6733.244883957974
1.516,0.5933203331882518,6735.287209940963
1.52,0.601351529769268,6742.703681814295
1.524,0.6201008692737846,6738.671184180489
1.528,0.6447357733320226,6742.477350441398
1.532,0.6702843846708567,6746.376381968298
1.536,0.6928743589935014,6742.901705346094
1.54,0.71044112972059,6750.250931746216
1.544,0.7226901234106202,6761.938381130824
1.548,0.7303892029363319,6756.529259998443
1.552,0.7343643800253868,6752.5099507362565
1.556,0.7346964076499388,6760.929065874524
1.56,0.7304507933977845,6762.187393927728
1.564,0.719954380727853,6764.537862172656
1.568,0.7014099411371655,6762.886270865092
1.572,0.6736010342245506,6761.937681084652
1.576,0.6364748542939694,6768.772290265426
1.58,0.5914163525837607,6772.460395131899
1.584,0.5411057164818511,6770.75346177435
1.588,0.4890430972678354,6781.91514096109
1.592,0.43901128728048544,6781.513927233111
1.596,0.3947466121820744,6780.448565967708
1.6,0.35987450547102556,6777.422834622712
1.604,0.337893106004622,6776.405762379131
1.608,0.33187207201467717,6778.549012858168
1.612,0.3436968957452375,6778.736831958847
1.616,0.3730316770163058,6782.812772799703
1.62,0.4164513384630292,6787.203335286542
1.624,0.46724609633714476,6786.038875262741
1.628,0.5162297061547824,6790.013292675555
1.632,0.5535590420169698,6781.830062846576
1.636,0.5711733032925538,6801.30374931289
1.64,0.5651117963983371,6792.519003472957
1.644,0.536851210060902,6796.135615645143
1.648,0.4930517292925354,6802.765708874496
1.652,0.4436765533008575,6794.48009184466
1.656,0.39910533951246796,6788.8586641735765
1.66,0.3672753033826613,6789.678346225819
1.664,0.3518614551995347,6805.462508571275
1.668,0.35206727918418024,6798.895473071967
1.672,0.3639115935778956,6799.369998564749
1.676,0.3822694040783632,6796.349559545442
1.68,0.4026934160817952,6809.679977752198
1.684,0.4223239884109482,6799.823748661003
1.688,0.4397602005715485,6806.579909925252
1.692,0.4542526623318227,6802.184098572522
1.696,0.464787231224372,6811.755958022711
1.7,0.4695806826126572,6802.395923976927
1.704,0.46628726578412283,6806.354638116614
1.708,0.4528633711436724,6808.63200797026
1.712,0.4286846014256993,6814.378819143636
1.716,0.39538034510657116,6803.973159860766
1.72,0.35701570600550675,6806.894187018095
1.724,0.3195295401353859,6810.014610963308
1.728,0.2895477968781434,6817.064480225962
1.732,0.2728335829064172,6810.6311866146925
1.736,0.2727666701760437,6819.177521137255
1.74,0.28931027132368065,6820.431358326395
1.744,0.31881404993747253,6812.494948539141
1.748,0.3547323678064634,6822.632784048275
1.752,0.3890569664133864,6816.983408634209
1.756,0.4140988024593404,6812.155296085002
1.76,0.42419819335827474,6822.738570833319
1.764,0.41695874230840774,6816.622772521951
1.768,0.3937156766144505,6826.125022237849
1.772,0.3591529206153928,6819.1305212645
1.776,0.32016710317357255,6822.791322491607
1.78,0.28419358356052954,6820.677513274662
1.784,0.2573449867893439,6816.580804739911
1.788,0.24288053131035905,6816.0817552117205
1.792,0.2405471699417485,6824.374611928279
1.796,0.2470534319491576,6826.825976320648
1.8,0.2574527609206855,6817.122450365471
1.804,0.26683058589087627,6816.423554244627
1.808,0.2716522845357966,6832.170210277793
1.812,0.27041324807557293,6827.038107055127
1.816,0.2636071964472577,6829.191033600264
1.82,0.253279170678102,6824.54271064784
1.824,0.2424686194785248,6827.700652552441
1.828,0.23470386163959442,6824.768938808831
1.832,0.23350241591735685,6829.096780797539
