时间(s),电压(V),幅值(高频80K)
0.0,-1.3899787015690606,5895.188064349578
0.004,-1.3939067791428463,5906.449129282976
0.008,-1.39554269415567,5902.404190354461
0.012,-1.392343297078161,5903.780108457958
0.016,-1.3827960794665068,5902.227159173042
0.02,-1.3667231052760085,5895.062027283645
0.024,-1.3452342493009495,5902.188287487022
0.028,-1.320419128569257,5902.647167853486
0.032,-1.2950096179682258,5911.6827357536185
0.036,-1.2721526792655777,5899.49775228871
0.04,-1.2551961395763143,5899.60440538509
0.044,-1.247269814360353,5905.784740965168
0.048,-1.2506054424313713,5902.438213122584
0.052,-1.2658294032355315,5912.444133490264
0.056,-1.291561304182872,5900.859992400455
0.06,-1.3244643244764585,5897.581075139282
0.064,-1.3596655702399083,5901.160880783644
0.068,-1.391448471609746,5893.308104681739
0.072,-1.4142245481186138,5897.570922845019
0.076,-1.4237276762549802,5895.062492596291
0.08,-1.4181174217751853,5903.230813970364
0.084,-1.3985477911473303,5902.532909323811
0.088,-1.368950697282521,5903.7420491484
0.092,-1.3351163660475416,5901.743267117212
0.096,-1.3033605778312929,5898.823232064267
0.1,-1.279109104842772,5895.658114033058
0.104,-1.2657131559608723,5895.75954322728
0.108,-1.2637950359991716,5896.6574695777545
0.112,-1.2713467265998606,5899.334458580834
0.116,-1.2845838883122944,5902.297799059397
0.12,-1.2992611728083931,5895.454615246546
0.124,-1.3119782223309036,5905.06833152424
0.128,-1.3210582452881352,5900.59561717532
0.132,-1.3267795922798644,5904.387756242238
0.136,-1.3309502427398447,5899.176973422162
0.14,-1.3360004219464716,5905.219842155047
0.144,-1.3439275777719124,5897.168232705289
0.148,-1.3554747648533054,5894.437326959399
0.152,-1.3698039647332247,5899.733134635344
0.156,-1.3847376428195228,5891.995629958472
0.16,-1.3974774139578618,5898.519636056111
0.164,-1.4055547570630815,5910.9216344603765
0.168,-1.4076584175471805,5894.40370891798
0.172,-1.4040172976824357,5902.962402034321
0.176,-1.3962008892601672,5902.285015529469
0.18,-1.3864307166953433,5899.024793669905
0.184,-1.3766830170048276,5907.977708078101
0.188,-1.3679530490836387,5905.905378375452
0.192,-1.3600071879960764,5900.391136654546
0.196,-1.351746809799045,5897.896305330334
0.2,-1.34200076092585,5901.190715878265
0.204,-1.3303197031769942,5899.123682126611
0.208,-1.3173454471910135,5897.257219121046
0.212,-1.3045868645814105,5904.789860514538
0.216,-1.2937615745782214,5893.290268122906
0.22,-1.286041966390152,5904.519866747822
0.224,-1.2815345962929485,5884.5799024786165
0.228,-1.2792215313482136,5902.97299426487
0.232,-1.2774388824171958,5894.712052365402
0.236,-1.274723889985938,5900.6520076669085
0.24,-1.2706100439501753,5902.393282163256
0.244,-1.2659278870879958,5897.849379858218
0.248,-1.2624759992658003,5911.881087751815
0.252,-1.2623058709353518,5910.1568404657055
0.256,-1.266975712874326,5906.361737989989
0.26,-1.2769756682536406,5896.564463089499
0.264,-1.291406108616424,5898.585598004124
0.268,-1.3080354618691374,5912.644491849687
0.272,-1.3238758613792134,5900.013771252172
0.276,-1.3361927810154681,5890.571774072809
0.28,-1.343525262355544,5905.841775060881
0.284,-1.3461630740361454,5905.73567337606
0.288,-1.3457805880018863,5906.739714161609
0.292,-1.344398966801392,5904.15558500807
0.296,-1.343211460987593,5902.92540740163
0.3,-1.341871832063498,5896.359000491222
0.304,-1.3386276190845507,5897.616995400278
0.308,-1.3312798950579332,5898.908439606068
0.312,-1.3185282548718473,5893.223360381814
0.316,-1.3010356501885707,5895.016021879236
0.32,-1.28166561213343,5899.547142647892
0.324,-1.2647370646437741,5895.486785380544
0.328,-1.2546032773512277,5905.327057782262
0.332,-1.2541678318826706,5906.414668563061
0.336,-1.2639399918447503,5901.871678635069
0.34,-1.2819374908924162,5895.76005138672
0.344,-1.3043909688249795,5899.092232179238
0.348,-1.3269564270689271,5895.982625655317
0.352,-1.3460053926478839,5908.213641860243
0.356,-1.3595598725115416,5899.865859682915
0.36,-1.3676219607799462,5902.7439080067015
0.364,-1.3719047843240486,5910.611002698627
0.368,-1.3751132076938153,5895.103259176452
0.372,-1.3799541366310206,5894.375458863105
0.376,-1.3881124478320506,5895.548389770374
0.38,-1.3995055527266194,5904.386629019293
0.384,-1.4120994394184274,5904.257134445787
0.388,-1.4223900429959258,5906.525324667352
0.392,-1.426412778553559,5904.702396489612
0.396,-1.4209568734543678,5906.045333439934
0.4,-1.40461024661085,5901.334626239704
0.404,-1.3783474036202796,5910.065977301507
0.408,-1.3455178783030668,5901.544906565465
0.412,-1.3112219397089964,5903.700565610407
0.416,-1.281175787151451,5903.335259547776
0.42,-1.2603011871350434,5904.955642394937
0.424,-1.2514014775998115,5906.407830692982
0.428,-1.2543295896427118,5897.866276496461
0.432,-1.2659536859237932,5909.184523450343
0.436,-1.2809943381416045,5901.528965295198
0.44,-1.2935227693349352,5903.224661859965
0.444,-1.2986789078237806,5900.483186508565
0.448,-1.2940805402107007,5889.364496029837
0.452,-1.2804838393574696,5901.956534972623
0.456,-1.261490143661429,5905.206144812069
0.46,-1.2424032955161977,5898.352473360462
0.464,-1.2286260018741582,5902.23699992828
0.468,-1.2241286402397442,5903.692029169209
0.472,-1.230470848130803,5899.885167271099
0.476,-1.246648118973638,5905.046897353749
0.48,-1.2697549895070066,5901.266015643053
0.484,-1.296167731513486,5900.203224498371
0.488,-1.3227467992529232,5896.621984013224
0.492,-1.3475709551150854,5898.282638922113
0.496,-1.3699766942373262,5890.811749681986
0.5,-1.3900467444913767,5906.470388561491
0.504,-1.4079459966548642,5892.287198144333
0.508,-1.4235072199203782,5903.151973653519
0.512,-1.4362489743355202,5896.057900716218
0.516,-1.4457061954658843,5912.148054176411
0.52,-1.4517501001217132,5897.917546067963
0.524,-1.4546038601591997,5893.8311596872345
0.528,-1.4545219309145165,5900.743201888863
0.532,-1.4514053726008163,5901.902079788747
0.536,-1.4447053927965579,5896.58741978626
0.54,-1.4337380813038478,5894.915367096299
0.544,-1.4182125371791243,5904.304515435089
0.548,-1.398650743303089,5906.917582900526
0.552,-1.3765067269568552,5893.157917502058
0.556,-1.3539922480127633,5898.630673055954
0.56,-1.333715993442089,5901.722281374326
0.5640000000000001,-1.3182416564239985,5897.179405968131
0.5680000000000001,-1.3096374669443631,5904.285484940525
0.5720000000000001,-1.3090544021535047,5906.406617052107
0.5760000000000001,-1.3163546359574294,5899.740195882543
0.58,-1.3298548324101156,5908.622349958865
0.584,-1.3463346416898714,5897.019569943739
0.588,-1.3614837502752832,5904.874130210295
0.592,-1.3708257168682911,5894.79698179669
0.596,-1.3709145918600392,5895.33257160711
0.6,-1.3604310422983985,5896.549297586094
0.604,-1.3408265033702214,5905.640693539476
0.608,-1.3163021197391123,5897.09495094134
0.612,-1.293036374453618,5903.762285721481
0.616,-1.277719726868427,5897.238948845341
0.62,-1.2757023982022002,5896.91669015892
0.624,-1.2893106356055615,5905.2311932264
0.628,-1.3169156733588303,5903.422301241739
0.632,-1.3530977884657085,5891.53671856026
0.636,-1.3898929091610757,5893.666876719773
0.64,-1.4187779076582945,5909.960488004451
0.644,-1.4328012446604366,5896.863753152246
0.648,-1.428212131800822,5900.468591438144
0.652,-1.40517385116838,5897.512810893423
0.656,-1.3675297844304022,5901.601590312385
0.66,-1.321871680799369,5906.26614392401
0.664,-1.2762407027373062,5906.314082395131
0.668,-1.2387446104236413,5899.680432122065
0.672,-1.2162809373448666,5888.725877553806
0.676,-1.213461302325517,5896.944435885124
0.68,-1.2317872696865722,5899.887580590229
0.684,-1.2691737008374515,5896.076416690987
0.6880000000000001,-1.320007006761105,5901.366568720327
0.6920000000000001,-1.3759221193036,5895.463538699232
0.6960000000000001,-1.4272834657437814,5896.27934486347
0.7000000000000001,-1.465057876305272,5894.212593171939
0.704,-1.4825923737175053,5898.650839840409
0.708,-1.4768660315869402,5897.3419103330125
0.712,-1.4489785213631667,5885.38347599073
0.716,-1.4038228887380315,5899.9756412471725
0.72,-1.3490339832967335,5912.0689613811965
0.724,-1.293453501075057,5899.120134781637
0.728,-1.245485190679921,5894.068482776542
0.732,-1.2117305537395602,5900.097117664186
0.736,-1.1961658073382266,5895.493961613004
0.74,-1.1999224341291015,5896.861650388642
0.744,-1.2215496663788308,5893.404615437231
0.748,-1.2575247842575623,5898.113622241054
0.752,-1.3027991992021257,5901.619977755995
0.756,-1.3513268437990427,5899.511665986059
0.76,-1.3966808826831514,5900.035760522455
0.764,-1.432864165257168,5895.116058629187
0.768,-1.4552599836363798,5897.77336542626
0.772,-1.4615081620218582,5904.591301012668
0.776,-1.4520425415338956,5897.552502549086
0.78,-1.4300684167445634,5898.6251308008
0.784,-1.4008624920176058,5899.932136191785
0.788,-1.370499410818172,5899.864766687308
0.792,-1.34441231499671,5902.958133504444
0.796,-1.3263206247552264,5893.974131183446
0.8,-1.3178225798185326,5891.6281538848825
0.804,-1.3185593044201178,5901.298963115089
0.808,-1.3266643798048314,5897.948457143653
0.812,-1.3392894857740927,5897.365142393672
0.8160000000000001,-1.3531518233588673,5897.13510878897
0.8200000000000001,-1.3651236579225683,5895.254528729591
0.8240000000000001,-1.372842460555086,5900.377163399874
0.8280000000000001,-1.3751953197613616,5909.34615475414
0.8320000000000001,-1.3724458177435714,5901.94481147706
0.836,-1.3658757918748339,5900.891660488604
0.84,-1.3570864240472253,5903.450051539241
0.844,-1.3473249274439656,5906.085527224872
0.848,-1.337192312808035,5891.801046767992
0.852,-1.3268542614139545,5896.007699703101
0.856,-1.316568500145376,5903.385365816349
0.86,-1.3071462080707499,5896.766270758304
0.864,-1.3000157038615512,5900.763416888035
0.868,-1.2968199291703586,5892.148331695598
0.872,-1.2987608674022926,5893.486571479746
0.876,-1.3060155982978885,5899.410752200854
0.88,-1.3174607837535524,5892.675579973362
0.884,-1.3307822558722207,5895.646840389712
0.888,-1.3429331458734666,5897.9483284863645
0.892,-1.3508253110424535,5908.273807626917
0.896,-1.352059844234092,5888.318707302427
0.9,-1.3454876988388529,5903.765879158548
0.904,-1.33148348410528,5904.658281042318
0.908,-1.3119190552596158,5897.022618454607
0.912,-1.2898484301144142,5907.795553436381
0.916,-1.2689110798405612,5896.857286288878
0.92,-1.2525140895931353,5900.225440525846
0.924,-1.2429634956326485,5894.614340119739
0.928,-1.240809019108836,5901.237201757083
0.932,-1.2446689190391684,5895.343934996433
0.936,-1.2516697474653316,5893.505569941702
0.94,-1.258394994762878,5894.163372490402
0.944,-1.2620052699593616,5891.106536257379
0.948,-1.2611112927240686,5908.362382282673
0.952,-1.2560925387098005,5894.277067748242
0.956,-1.2487852179648764,5902.52266287256
0.96,-1.2417060703120946,5899.740764653735
0.964,-1.2371531874635255,5907.442335238337
0.968,-1.236563622827879,5892.7296832856855
0.972,-1.240353845501079,5893.306194844062
0.976,-1.2481850284064164,5896.353239850092
0.98,-1.259387395111574,5907.318214210442
0.984,-1.2732798618836974,5896.8822170102985
0.988,-1.2892537736725564,5887.167522611529
0.992,-1.3066295055703205,5900.641403877661
0.996,-1.3244072387740637,5896.39386563024
1.0,-1.341091389283694,5899.861606666959
1.004,-1.3547248728028507,5893.473862506555
1.008,-1.3631486082190352,5894.043082963342
1.012,-1.3644101311047825,5902.48195121242
1.016,-1.3572427561137308,5898.659410884568
1.02,-1.341548706820633,5895.02310200208
1.024,-1.3187588109533697,5902.828730860429
1.028,-1.2918630746569653,5900.551152317737
1.032,-1.2649411059185394,5896.887988702858
1.036,-1.242203249574833,5901.38340207117
1.04,-1.2267880699266651,5894.636806479143
1.044,-1.2197271849768736,5897.291166522896
1.048,-1.2195100636165548,5894.854983375082
1.052,-1.2225238807040284,5901.265362923359
1.056,-1.2243206203568577,5895.043850827793
1.06,-1.2212909975429718,5907.285535130976
1.064,-1.2120944080216713,5911.715335586862
1.068,-1.1982609253749448,5897.741380764423
1.072,-1.1837461228372317,5900.032280582989
1.076,-1.173677184749028,5893.269292103084
1.08,-1.1727978225882134,5909.774103367357
1.084,-1.184100092358337,5900.694811093375
1.088,-1.207961693786978,5894.199033976155
1.092,-1.2419350707261916,5897.531328010223
1.096,-1.2811756968274965,5900.77940569645
1.1,-1.319360250006577,5904.0647641282085
1.104,-1.349903569934653,5890.604269730578
1.108,-1.3673246528401013,5899.777372111614
1.112,-1.368585271458609,5905.492299900701
1.116,-1.3540559788688316,5902.152057048712
1.12,-1.327637306231448,5897.584012161304
1.124,-1.2957595151226313,5894.416889777045
1.128,-1.2655070977150698,5894.095651630208
1.132,-1.2425879258627661,5903.262926625578
1.136,-1.2299280811768452,5898.484866180622
1.14,-1.2273503879504026,5897.759214069195
1.144,-1.2323375634572284,5895.023315720707
1.148,-1.2414419168451147,5894.698963133486
1.152,-1.2516147672951239,5900.1815613778535
1.156,-1.2608181038419652,5907.257648652324
1.16,-1.267796224811225,5898.425693433659
1.164,-1.2714761424495238,5906.439172985204
1.168,-1.2706803750800229,5900.553082606632
1.172,-1.2645363230288116,5894.874575210315
1.176,-1.2533855290640106,5902.223849585805
1.18,-1.239532525679133,5900.614146478293
1.184,-1.2271432958427309,5892.813271263029
1.188,-1.2210464531958216,5896.826023418698
1.192,-1.2248508574625723,5896.699635382906
1.196,-1.2392800805199795,5899.373469330741
1.2,-1.2616178802965572,5895.643081660611
1.204,-1.2866239017356407,5907.617958019747
1.208,-1.3085297393848243,5898.509128817011
1.212,-1.3231967062942551,5907.025795945013
1.216,-1.3294664083914183,5899.639824126757
1.22,-1.32916600503522,5899.697453955288
1.224,-1.3259146663314165,5894.573486099779
1.228,-1.3234244043358667,5910.333140675717
1.232,-1.3240894287197829,5893.245976168892
1.236,-1.3283419502499165,5898.521191335317
1.24,-1.3348058648900425,5898.460374755908
1.244,-1.3409685124795692,5894.889321455168
1.248,-1.3440148307846835,5897.9684424990855
1.252,-1.341581601942151,5903.177541851711
1.256,-1.3323492486442932,5901.464715619186
1.26,-1.316443814803536,5897.65275253213
1.264,-1.2955590759438766,5898.372954594535
1.268,-1.2726806118652176,5908.054721031569
1.272,-1.2514116080957176,5896.176587256394
1.276,-1.2350675701058684,5906.812423537854
1.28,-1.225774910436467,5898.441926440419
1.284,-1.2237902487386927,5899.420755065311
1.288,-1.2272405262591615,5904.000401664127
1.292,-1.2324486865407571,5896.458006666797
1.296,-1.2348883986547587,5904.88269230931
1.3,-1.2306174109449282,5900.102112888485
1.304,-1.2178500914089545,5904.090363625402
1.308,-1.1982368450855394,5895.198068187636
1.312,-1.1774691362232568,5902.0707458895295
1.316,-1.1649488047323475,5897.162105096134
1.32,-1.1723372860993222,5903.338691043877
1.324,-1.2108750771581887,5885.514042202004
1.328,-1.287580094866717,5903.036718627091
1.332,-1.4008322399322477,5898.947938527301
1.336,-1.5363162325168327,5901.156761940184
1.34,-1.6646546747501385,5894.30306491746
1.344,-1.742155950781989,5903.285407113464
1.348,-1.7157936474881752,5898.12195348566
1.352,-1.5326912991255548,5907.98819654621
1.356,-1.152948444431866,5895.098660281319
1.36,-0.5628962643099508,5899.588605602527
1.364,0.215462512713473,5899.079842235837
1.368,1.1231022090301765,5897.9761600179945
1.372,2.073016085933929,5878.114307219303
1.376,2.9681044942122674,5897.695201259485
1.38,3.722299013148687,5917.752818982956
1.384,4.277712677719897,5926.988241549025
1.388,4.612729320675893,5947.9373617661895
1.392,4.740181403160562,5964.589945093203
1.396,4.698332685268155,5985.777285855605
1.4,4.538796664078515,5992.673004495442
1.404,4.315025355360146,6021.278444376248
1.408,4.073590047019575,6026.514662623151
1.412,3.8490698829493932,6042.556954810116
1.416,3.6624034702823702,6062.424217477345
1.42,3.522002092691643,6076.320655413516
1.424,3.426609798817136,6087.635821316092
1.428,3.368791325286928,6102.253408711669
1.432,3.338092720044588,6117.381243922478
1.436,3.323363893432513,6121.870338538702
1.44,3.3142655834750694,6135.087442407837
1.444,3.302267239140317,6153.574769927834
1.448,3.281353474994113,6168.530238015106
1.452,3.2484330878555308,6171.198184596598
1.456,3.203346678906014,6191.169646913784
1.46,3.1484158090988097,6194.013321099455
1.464,3.0875839585348936,6200.443096073892
1.468,3.0253184691466064,6224.433565766731
1.472,2.96552307026345,6229.87411747081
1.476,2.9107143514801352,6242.92624642227
1.48,2.8616502983961793,6246.190981483393
1.484,2.8174675291355755,6264.58730981921
1.488,2.7761967938570797,6274.203749221017
1.492,2.735386735559466,6294.152226360131
1.496,2.692609813621913,6301.316940168872
1.5,2.645830601386545,6301.39005357331
1.504,2.593768146346608,6307.386627459948
1.508,2.536300996266155,6319.502649205748
1.512,2.4747383739048066,6323.084768491614
1.516,2.4116825218573146,6333.778613032035
1.52,2.3503778512229214,6343.439895030609
1.524,2.293766487593124,6348.283458041047
1.528,2.243689617127367,6357.62951398535
1.532,2.2006069088650766,6370.00096564408
1.536,2.163903910772817,6369.887188384976
1.54,2.13255072565914,6389.168323825011
1.544,2.105747788289318,6402.152673309151
1.548,2.0832526656424895,6401.451676366773
1.552,2.065248675302553,6412.411081056645
1.556,2.0518399538831944,6418.595770363605
1.56,2.0424499273150816,6432.138704587381
1.564,2.035416767514213,6432.266485197515
1.568,2.027907949841865,6432.506101990217
1.572,2.0161041963380937,6444.572316786835
1.576,1.995594788031451,6445.534481040985
1.58,1.9620356506084695,6451.714369500865
1.584,1.9121597086009032,6455.794548837282
1.588,1.8450591195319095,6468.284318854792
1.592,1.7633424862641922,6469.798489678947
1.596,1.673551331392772,6477.898500408939
1.6,1.585347609791976,6484.873633046937
1.604,1.5094807679285154,6484.820398083978
1.608,1.4551352340002819,6498.525048829743
1.612,1.4275834636815978,6503.889017610619
1.616,1.4269483056876318,6518.699308837468
1.62,1.4484005612470479,6519.044460381344
1.624,1.4835499614028984,6521.967161559346
1.628,1.5224284866068123,6525.915463574944
1.632,1.5554556907966084,6535.657113286601
1.636,1.5750020782114127,6529.523905189174
1.64,1.576399986071659,6529.61069000647
1.644,1.5583726577339903,6543.381250689808
1.648,1.5228864968401543,6536.089977662336
1.652,1.474449151113502,6556.888441201963
1.656,1.4189439519566907,6552.929162890804
1.66,1.3622320211484755,6561.837957498197
1.664,1.3088864361465335,6564.0322498929545
1.668,1.2614272886898685,6566.094745538938
1.672,1.2202773003488285,6576.940097502335
1.676,1.1844262542414743,6574.276363471967
1.68,1.1525418586966356,6582.87622096239
1.684,1.1240431982240826,6595.169608273751
1.688,1.099585117029652,6588.135848552594
1.692,1.0806521153845912,6594.963036496692
1.696,1.0684967428106282,6588.282660748917
1.7,1.0631173735136128,6596.040930125514
1.704,1.0629376158637254,6598.156927684745
1.708,1.065303444660927,6603.533434450288
1.712,1.0673049438704139,6608.139930447347
1.716,1.0662834077157801,6605.73006006956
1.72,1.0598098881866003,6620.99823954824
1.724,1.0454859047124945,6617.325469315088
1.728,1.0210930885050178,6617.591757619248
1.732,0.9853067980132219,6628.039092130744
1.736,0.9386964354602373,6631.181189502256
1.74,0.8844152679822397,6631.395668690854
1.744,0.8280387833115822,6628.804090658922
1.748,0.7764324931220237,6643.957085382573
1.752,0.7360555862913891,6629.942029838462
1.756,0.7113819437680331,6635.426717899853
1.76,0.7040004588489897,6638.183559168217
1.764,0.7125994470083037,6645.085867837617
1.768,0.7336903747733206,6644.827613342933
1.772,0.7627121344244353,6653.027085477901
1.776,0.7950985752575843,6657.640862195896
1.78,0.8269823037398366,6651.078400527942
1.784,0.8554190710104193,6656.284264153436
1.788,0.8782666278794641,6669.366282323559
1.792,0.894004193665947,6668.678879727048
1.796,0.9017183842676539,6677.322292049528
1.8,0.9012477101994292,6660.192013805887
1.804,0.8932900337401537,6660.653955011137
1.808,0.8792995312551338,6675.044712106897
1.812,0.8611491059821449,6675.832191364273
1.816,0.8406642836516734,6676.945979219575
1.82,0.8192206227375459,6676.443606144439
1.824,0.7976072850729129,6682.841484684929
1.828,0.7762215433101128,6672.923329123631
