时间(s),电压(V),幅值(高频80K)
0.0,-1.345724101266765,5903.144628533503
0.004,-1.2991267430122253,5901.781600217671
0.008,-1.2548589460280546,5900.04375775174
0.012,-1.215558483581525,5890.391493667458
0.016,-1.1841946475912128,5905.075957047747
0.02,-1.1638223964757979,5892.662875444353
0.024,-1.1569822163630996,5899.709912577876
0.028,-1.1649196628647667,5907.475118068577
0.032,-1.186982995054117,5895.755314117072
0.036,-1.2204909188331468,5905.832978808405
0.04,-1.2610698019196407,5907.459288295627
0.044,-1.3032616921538844,5905.748893763227
0.048,-1.3412838199437136,5900.6752661144255
0.052,-1.369951071116899,5906.97752668606
0.056,-1.3856758719070204,5905.705044653468
0.06,-1.3872332859656094,5897.720288334172
0.064,-1.3759500335231205,5895.483082161521
0.068,-1.3552381855168045,5896.825566827555
0.072,-1.329693272169618,5909.870441312877
0.076,-1.3040478041420247,5907.514286081241
0.08,-1.282166525940875,5899.415346418634
0.084,-1.2662435067033342,5902.10207537402
0.088,-1.256457873163284,5906.238009337653
0.092,-1.2513110892741348,5899.389457472092
0.096,-1.2485542928591948,5894.180043700794
0.1,-1.246240537610981,5897.373452726372
0.104,-1.24335666147529,5900.166085569576
0.108,-1.239808738154441,5902.845127695159
0.112,-1.2359899808083952,5890.229659278124
0.116,-1.2323468666530812,5894.070740642526
0.12,-1.2291652815091356,5903.520366416995
0.124,-1.2265308062710072,5900.229307545556
0.128,-1.2243785713057358,5897.998887888233
0.132,-1.222654515495335,5910.8098364453
0.136,-1.2215945795898147,5909.229222888515
0.14,-1.2219540097553978,5901.727004498825
0.144,-1.2249216734970658,5902.95160345529
0.148,-1.2316315015729593,5907.321329674294
0.152,-1.2425233656133614,5898.02014007769
0.156,-1.2569795192759465,5904.075236709645
0.16,-1.2734867776399992,5911.80336802672
0.164,-1.290206701327995,5898.651302523159
0.168,-1.305584744923967,5897.562708603733
0.172,-1.3186586113806786,5901.25150175768
0.176,-1.3289634127870242,5911.195931061807
0.18,-1.3361737906507134,5894.771575594044
0.184,-1.3397149465435856,5900.881605172843
0.188,-1.3385242882207207,5889.063047945014
0.192,-1.3310675370672003,5892.381025973004
0.196,-1.315666530477863,5902.117268263605
0.2,-1.291132942175894,5901.394912842193
0.204,-1.2575707545516996,5899.586835894041
0.208,-1.2170544813838036,5898.385618929806
0.212,-1.173828456296738,5896.345099035385
0.216,-1.1337867766389533,5898.259825056016
0.22,-1.1032553407383174,5898.240874462478
0.224,-1.0873967639513924,5899.080212834326
0.228,-1.088756432315361,5896.719991483983
0.232,-1.1064451302435623,5904.999224101547
0.236,-1.136215453884642,5903.019870975766
0.24,-1.1714001303070356,5897.192440647605
0.244,-1.2044967226545147,5900.709919262481
0.248,-1.229080170233845,5892.310505869783
0.252,-1.2415923613847837,5907.374236833372
0.256,-1.242431361909692,5903.855503379341
0.26,-1.2358336103450442,5901.675384542274
0.264,-1.2284294084983498,5894.40511136402
0.268,-1.2269238181460902,5901.869805815984
0.272,-1.2357843759392855,5904.736330725332
0.276,-1.2558096183799565,5902.955035681797
0.28,-1.28399474200304,5904.527838153009
0.284,-1.3145315974633478,5907.265156949492
0.288,-1.340470199088657,5896.103009549347
0.292,-1.3555849482742972,5895.206510546132
0.296,-1.356062837083216,5901.523232675419
0.3,-1.3416012703711282,5893.991416324351
0.304,-1.3155312363134817,5896.722555303674
0.308,-1.283862192826783,5903.997600970995
0.312,-1.2535832064709111,5906.907145802777
0.316,-1.2308452886483139,5904.155356401268
0.32,-1.2196049204514545,5898.610432517391
0.324,-1.22102619488203,5906.046226791585
0.328,-1.2336525545735453,5902.5517005291085
0.332,-1.2541811112180288,5899.875269713473
0.336,-1.2785409537479848,5898.754403191576
0.34,-1.3028670376850173,5893.433194463304
0.344,-1.3240238976063257,5898.9485382911525
0.348,-1.3396504849233277,5906.679518124537
0.352,-1.3480193574065493,5906.585664802608
0.356,-1.3480136562381853,5894.330732820301
0.36,-1.33927614458654,5903.151264157494
0.364,-1.3223907334466432,5899.226396162981
0.368,-1.2989554163370394,5909.775447066651
0.372,-1.2714751607321138,5898.638526452032
0.376,-1.243050538128099,5900.144944608529
0.38,-1.2169062253250256,5896.441898040306
0.384,-1.1958866814054168,5893.397497871361
0.388,-1.1820529485849112,5894.144768515928
0.392,-1.176450176717383,5896.382910121303
0.396,-1.17905160020372,5898.357873592536
0.4,-1.1888182377006131,5898.6885995846405
0.404,-1.2037780404597682,5899.056578431687
0.408,-1.2211309632679916,5903.1182968887
0.412,-1.2375562761464878,5899.307187636922
0.416,-1.2498821554287738,5900.356669166176
0.42,-1.2560133404258642,5891.203339955732
0.424,-1.2557385991997823,5904.305223683327
0.428,-1.2509857216055698,5902.237791679241
0.432,-1.2452892947111187,5899.462876240683
0.436,-1.2425950447884855,5904.893975868175
0.44,-1.2458829791830466,5898.6611518246245
0.444,-1.2562268675789636,5899.471429913369
0.448,-1.2726724187951641,5911.024110498089
0.452,-1.2928489771982334,5890.829499102708
0.456,-1.3139069502615959,5907.111614424621
0.46,-1.3333918462540961,5900.9175710603
0.464,-1.3498237630663448,5898.894238521786
0.468,-1.362840450818386,5897.982286926485
0.472,-1.3728807920080612,5896.229410707289
0.476,-1.3806286692751877,5891.892973094137
0.48,-1.3866123307022622,5901.640059353233
0.484,-1.3912240837258614,5898.192141066537
0.488,-1.3950344191683697,5906.780029177384
0.492,-1.3989613135914793,5901.107988145561
0.496,-1.403961188592173,5901.077069989113
0.5,-1.4103853007720857,5900.39662098875
0.504,-1.417525975657891,5906.579720379858
0.508,-1.423780674784685,5900.71056745659
0.512,-1.4274097269044803,5889.27821722264
0.516,-1.427469087390955,5899.623313895836
0.52,-1.4244068765783207,5903.97093433637
0.524,-1.419982304843675,5901.647107192094
0.528,-1.4164783847273077,5904.091717970397
0.532,-1.4155274135135278,5902.662054043743
0.536,-1.4170855528683777,5899.059147133799
0.54,-1.4190332950210751,5901.011604726164
0.544,-1.417595225916472,5898.309097131569
0.548,-1.4084652710505123,5899.938614077296
0.552,-1.3882966130048273,5905.916064231621
0.556,-1.3560602706995881,5902.301851339063
0.56,-1.3137672420095703,5908.127402722621
0.5640000000000001,-1.2662884162193135,5887.697083071826
0.5680000000000001,-1.2203746588912636,5898.958887029953
0.5720000000000001,-1.1832085522637896,5903.715664575808
0.5760000000000001,-1.1608347015607305,5919.375963200777
0.58,-1.1567805160479938,5904.021505246183
0.584,-1.1711707721354963,5899.985920302368
0.588,-1.2005365720426486,5901.395408839494
0.592,-1.2383166308085318,5906.582674944909
0.596,-1.2759582102203406,5894.253586856195
0.6,-1.3045829616182196,5905.521045727565
0.604,-1.3171005745152746,5899.693578591387
0.608,-1.3102938211281667,5897.213362907376
0.612,-1.2860883092395743,5908.274319089282
0.616,-1.2513438800380725,5909.78381853697
0.62,-1.2160427007100936,5903.466924832573
0.624,-1.1903934985186657,5901.0577916011225
0.628,-1.181840789913998,5900.467626984464
0.632,-1.193047411185447,5903.92709063363
0.636,-1.2214891563819248,5892.520172219594
0.64,-1.2605627880961536,5905.748120154845
0.644,-1.3015513603916362,5896.537544483437
0.648,-1.3357239630558313,5897.441892552703
0.652,-1.3561124274686578,5900.31112259125
0.656,-1.3587542187259414,5900.070730388666
0.66,-1.343281529518343,5894.388549920608
0.664,-1.3127874065268068,5898.105419557639
0.668,-1.273031467523587,5892.337842885231
0.672,-1.2312042842509623,5910.045216614492
0.676,-1.1945042596730278,5895.093827706329
0.68,-1.168706267432437,5899.971747941324
0.684,-1.1569138437502837,5899.802612524619
0.6880000000000001,-1.1588343577551943,5899.977038994021
0.6920000000000001,-1.1709374528004983,5904.229913731832
0.6960000000000001,-1.1875508488201454,5904.075865696724
0.7000000000000001,-1.2025116890340866,5901.345891824086
0.704,-1.2107803296101625,5895.179210067521
0.708,-1.209547447008079,5903.616595444631
0.712,-1.1986615075782037,5899.037274070045
0.716,-1.1804442448327435,5899.68936893229
0.72,-1.1590383629710097,5904.474185419766
0.724,-1.1394250707363798,5902.0510394334015
0.728,-1.1262911050278979,5897.946768395148
0.732,-1.1229942432536557,5906.461236555224
0.736,-1.1308517268037712,5902.519783519781
0.74,-1.1488560080764498,5895.638849894809
0.744,-1.1738304859681914,5902.655046923554
0.748,-1.201025780051138,5895.5099402129
0.752,-1.2251408774397297,5891.932765736256
0.756,-1.241651247794425,5907.6821829266855
0.76,-1.2481561451139203,5899.557010392569
0.764,-1.2453133123216904,5892.691582252663
0.768,-1.236926474416192,5891.151222683716
0.772,-1.228967246681342,5903.653093211425
0.776,-1.2277245109323724,5906.932321311996
0.78,-1.2377129509819276,5899.0152212890525
0.784,-1.2601596393541021,5896.999212710363
0.788,-1.2926446366993571,5893.558802066411
0.792,-1.3299494181037126,5899.34519627185
0.796,-1.365722923944602,5898.898250432558
0.8,-1.394398882707682,5897.9102601642
0.804,-1.4128013005187041,5900.036347221298
0.808,-1.4209400658746094,5901.256567667549
0.812,-1.4216743053433596,5901.076467905145
0.8160000000000001,-1.419298539548829,5896.107938293314
0.8200000000000001,-1.4175855902175496,5897.812604491993
0.8240000000000001,-1.4181183208481491,5907.490706807596
0.8280000000000001,-1.4196463067000644,5903.461173549056
0.8320000000000001,-1.4187472289933654,5907.950396718397
0.836,-1.4114889045569876,5899.326486796763
0.84,-1.3953553685362379,5908.742734093886
0.844,-1.370608531268707,5895.844320458499
0.848,-1.3405270174990196,5899.285452231731
0.852,-1.31045794036141,5903.763692181187
0.856,-1.2861070334212115,5896.276444395797
0.86,-1.2717510998287516,5894.085622508724
0.864,-1.2689846824062596,5901.657917252886
0.868,-1.2763185888342767,5888.778299941426
0.872,-1.2896470915331346,5893.6614772373205
0.876,-1.3034127776092383,5908.653293680594
0.88,-1.312188463127786,5899.588668080968
0.884,-1.3122930181054635,5910.357493025658
0.888,-1.3029682079644238,5895.060405508111
0.892,-1.2866735651252745,5898.350206144973
0.896,-1.2683084081225477,5898.482708787312
0.9,-1.2535751275778202,5906.572742194098
0.904,-1.2470472476281653,5905.66592981314
0.908,-1.2506430829595334,5891.916075471559
0.912,-1.2630759332051678,5892.5032883665135
0.916,-1.2804804036559025,5896.976364924138
0.92,-1.2979452885604998,5887.577043647441
0.924,-1.3113212136691261,5901.997164671396
0.928,-1.3185677970765606,5895.693244741377
0.932,-1.3201234092653633,5893.281076702428
0.936,-1.3182464255133626,5904.229705922492
0.94,-1.3157526415703114,5896.570624504366
0.944,-1.3147991449478684,5892.670388555793
0.948,-1.3162311158438125,5901.748627083448
0.952,-1.3196098250681036,5894.664100242659
0.956,-1.3236470012383328,5893.100754476366
0.96,-1.3266617822483104,5901.719562266089
0.964,-1.3268718083588953,5907.148274135972
0.968,-1.3225686530121639,5885.600333455409
0.972,-1.3122910814739925,5894.311459016607
0.976,-1.2950386866833117,5903.25350697554
0.98,-1.2705101308830873,5894.756389904339
0.984,-1.2393370317473253,5904.903286116205
0.988,-1.203245806488017,5907.0333571592055
0.992,-1.1650101139563946,5906.228443798145
0.996,-1.1280734956771992,5907.053184456505
1.0,-1.095893229042971,5898.090982963497
1.004,-1.0712590832536981,5900.500163033418
1.008,-1.0558899834850266,5891.012098774722
1.012,-1.050454906622376,5901.697740099919
1.016,-1.0549023405587776,5888.440172754273
1.02,-1.0687888646642334,5893.587379292108
1.024,-1.091325546296698,5890.968799283519
1.028,-1.1211244042015258,5893.278931750811
1.032,-1.1559268671263474,5902.087008349389
1.036,-1.1926604515091939,5885.292560286746
1.04,-1.2279369230522086,5896.14103278804
1.044,-1.2587934965222614,5893.5251014333935
1.048,-1.2833371796672626,5901.317620742072
1.052,-1.3010297943562545,5900.353424285302
1.056,-1.312543267625972,5899.236936762952
1.06,-1.3193060097027431,5903.037011434837
1.064,-1.3229540041660306,5902.687240387107
1.068,-1.3248530324810748,5897.660406905266
1.072,-1.3257575389705667,5900.11879449397
1.076,-1.3256396726451949,5893.516934114696
1.08,-1.323751620407417,5900.303199698167
1.084,-1.3189632605100587,5903.610241334542
1.088,-1.3102958569267953,5904.048111879586
1.092,-1.297438252078874,5899.180337696597
1.096,-1.2810131164223746,5898.882647369499
1.1,-1.26248291733734,5892.033404380691
1.104,-1.2437580465416798,5906.0270914137645
1.108,-1.2267009471565122,5892.846670644329
1.112,-1.212762391109249,5904.136414952484
1.116,-1.20289219847888,5891.227318343018
1.12,-1.197648162725536,5906.763946824849
1.124,-1.197255604861447,5898.586774570594
1.128,-1.2014468088116983,5895.657589713219
1.132,-1.2091959051290833,5900.743213217576
1.136,-1.2186788532633093,5889.816810323946
1.14,-1.2276978817677877,5895.911991965817
1.144,-1.2344684278258642,5897.51464616642
1.148,-1.2383709231947286,5888.937834984173
1.152,-1.2402761656454975,5904.962231039512
1.156,-1.24231085586676,5908.612863559167
1.16,-1.2471671822211796,5904.022317752395
1.164,-1.2571428489544332,5899.173249371072
1.168,-1.2731473007442002,5902.686242359428
1.172,-1.2940130025846655,5896.878163510191
1.176,-1.316456519299795,5897.113235817674
1.18,-1.335800502268054,5904.612079389558
1.184,-1.3472412390123338,5898.089747570557
1.188,-1.3472710488330757,5898.614555451877
1.192,-1.3348436452833397,5898.208838778879
1.196,-1.3118796430540678,5908.017737349174
1.2,-1.2828114507194632,5901.193968735479
1.204,-1.253206321603171,5899.79486054613
1.208,-1.2279841293514833,5897.418674117339
1.212,-1.2100383483412345,5902.563013050722
1.216,-1.1999119073490712,5901.283037450185
1.22,-1.1965900799388822,5906.014197726964
1.224,-1.1988055853011341,5905.702271316538
1.228,-1.2059913173429373,5899.592766413883
1.232,-1.218342551625825,5905.019917300789
1.236,-1.2360645594134052,5896.415215777412
1.24,-1.2583379049825978,5904.070808966473
1.244,-1.2826215570550232,5906.915684848899
1.248,-1.3046918450874383,5904.296326976703
1.252,-1.3194507373774433,5890.736238911767
1.256,-1.322202435643585,5893.643215551004
1.26,-1.309931690004338,5898.971042928067
1.264,-1.2821802180468538,5902.01761210158
1.268,-1.241339500883251,5897.277838153846
1.272,-1.192386929165896,5896.888281751502
1.276,-1.1421719915376625,5900.899182074366
1.28,-1.0983691441118169,5904.4596254797
1.284,-1.0682535554882213,5905.048784811601
1.288,-1.0574890215577435,5896.683040005685
1.292,-1.0690845252665653,5898.91403614512
1.296,-1.102656900481651,5905.940181534299
1.3,-1.1542013450206383,5903.763329760816
1.304,-1.2165938194882462,5900.990868652097
1.308,-1.2808741395379346,5906.181747918598
1.312,-1.3380472029103596,5908.499909680418
1.316,-1.3809086872115788,5903.563634015651
1.32,-1.405390722605777,5895.693284462939
1.324,-1.4110978355528694,5900.746759715065
1.328,-1.4009400283866875,5893.692448047652
1.332,-1.3799955859739859,5898.26686639248
1.336,-1.3539495543329036,5892.452464392867
1.34,-1.3276171730550919,5908.072019546881
1.344,-1.3040611860040574,5903.780736987701
1.348,-1.2845662020118358,5899.838334367673
1.352,-1.2693245277930922,5904.959553487088
1.356,-1.2583587710807167,5910.78176353467
1.36,-1.2521665385353613,5903.099659443163
1.364,-1.251801097989651,5901.231681262872
1.368,-1.2584057014088692,5899.382407607801
1.372,-1.2724479806668845,5899.82448498087
1.376,-1.2930059767073379,5910.327625045977
1.38,-1.317425119043238,5899.853002885995
1.384,-1.34152865866256,5897.609926618561
1.388,-1.3604037207545605,5902.398466117186
1.392,-1.369639885735199,5892.568354456385
1.396,-1.366745366676127,5899.204223960148
1.4,-1.3523094487216707,5900.02968331442
1.404,-1.330393638325894,5898.423578045598
1.408,-1.3077474875084523,5903.389668928063
1.412,-1.2918542842744098,5895.964041404442
1.416,-1.28841580547406,5903.867859184955
1.42,-1.2993230303221124,5897.635833775188
1.424,-1.3220530303985718,5900.715217046023
1.428,-1.3507634778520554,5905.966095354898
1.432,-1.3785315236265616,5902.564921724411
1.436,-1.39969914448097,5893.062731025185
1.44,-1.4113779570909835,5900.9943588220685
1.444,-1.4137034685936225,5897.607419585252
1.448,-1.4090391347574858,5902.230925323626
1.452,-1.400672723964515,5893.666109474625
1.456,-1.3915442637015862,5901.437124046135
1.46,-1.3833540582371897,5895.897612694638
1.464,-1.3761962809353077,5893.0143826703725
1.468,-1.368708101560867,5908.694308896669
1.472,-1.3586106454447,5905.97733995975
1.476,-1.343461258121308,5906.934180043628
1.48,-1.3214383351532264,5902.9119960183225
1.484,-1.2919896614043145,5898.5830771660685
1.488,-1.256187209120536,5899.21852033563
1.492,-1.2167011846058078,5897.543521171586
1.496,-1.1774024667823797,5894.431436801218
1.5,-1.142646112814537,5906.101386655412
1.504,-1.1163362444316205,5901.199760602754
1.508,-1.101015883307531,5905.574062682071
1.512,-1.097345628028769,5900.261466020582
1.516,-1.1042087379734804,5895.336558715299
1.52,-1.1193270885262336,5906.285299110118
1.524,-1.139991969497321,5899.258273310405
1.528,-1.1635388290153192,5892.376233289859
1.532,-1.1874713601237576,5891.826759389727
1.536,-1.2094366914646548,5902.896335556982
1.54,-1.2273476826167855,5895.653450959422
1.544,-1.2397681698067908,5905.626696198042
1.548,-1.2463813825802175,5897.105848351905
1.552,-1.248217582772294,5896.8502367112405
1.556,-1.2474353742772457,5902.2444294976185
1.56,-1.2466972996549852,5899.959170399937
1.564,-1.248354245114637,5894.788942322268
1.568,-1.253699710766018,5894.083377274115
1.572,-1.262547203418887,5895.587457821316
1.576,-1.2733357767238473,5895.477703708596
1.58,-1.2837944288175256,5888.072984863413
1.584,-1.2919073268435426,5903.11369077567
1.588,-1.2967262247854459,5909.168231124078
1.592,-1.2986576204035212,5895.434366228857
1.596,-1.2991403131646428,5908.230213741179
1.6,-1.2998998547705738,5903.371954913665
1.604,-1.302092787628693,5895.90377770996
1.608,-1.3056623859593284,5903.464779643291
1.612,-1.3091655418759092,5902.564883549105
1.616,-1.3101876595257174,5900.439638393724
1.62,-1.3062398752547284,5906.007572713077
1.624,-1.295807888236853,5894.900330938567
1.628,-1.2791199576860623,5894.812523751495
1.632,-1.2583082806050692,5906.84931627343
1.636,-1.236904707066707,5902.95101777711
1.64,-1.2188719249095827,5905.018985384569
1.644,-1.2074836433485454,5895.794624033016
1.648,-1.2043302053353577,5897.313327633721
1.652,-1.2086590387766116,5896.546309432845
1.656,-1.2172623744104216,5902.25589840257
1.66,-1.2251221237377747,5901.48850089023
1.664,-1.2268367736469665,5899.441553747756
1.668,-1.2184916975388964,5901.540588469085
1.672,-1.1993508692718096,5894.423005553999
1.676,-1.1727848826559581,5902.12827260286
1.68,-1.146165152327138,5900.07646363865
1.684,-1.1297670107938398,5898.261332542407
1.688,-1.1348182619449094,5906.367908187941
1.692,-1.170787855298111,5898.906654948645
1.696,-1.242098522651998,5900.748990239202
1.7,-1.3447763086963112,5888.776518854947
1.704,-1.4639210896190509,5904.031153481081
1.708,-1.572989059619297,5905.958532280442
1.712,-1.6356179986984236,5895.673033767656
1.716,-1.6102826796285912,5899.682082695811
1.72,-1.4576081109362233,5892.641325326681
1.724,-1.149539086815966,5896.750466695269
1.728,-0.6785716184300582,5911.379131502906
1.732,-0.0642271073304251,5898.956417600284
1.736,0.6462797920248002,5905.603038537708
1.74,1.3849573989609976,5897.023192946374
1.744,2.076559429273157,5913.984382820531
1.748,2.6546772465429838,5921.40513514128
1.752,3.0750015071717005,5924.46467223843
1.756,3.3217753280661,5943.806624794716
1.76,3.40659088152744,5952.635884509772
1.764,3.3614143840626376,5961.253226407749
1.768,3.2289046118631948,5977.65720615476
1.772,3.052894405999114,5995.348648457887
1.776,2.8710060075203065,5994.5747045845965
1.78,2.7103123493637202,6011.607265351939
1.784,2.5860425180588686,6025.659211895589
1.788,2.5026982033412235,6033.316887598085
1.792,2.456640287846237,6042.588574539504
1.796,2.439209613009785,6055.2408086532205
1.8,2.4396806665226385,6066.401159778127
1.804,2.447649749740145,6074.252971597291
1.808,2.4546995789174493,6084.062620167231
1.812,2.4553246941590934,6095.657473487584
1.816,2.447143504843734,6094.281723332239
1.82,2.430420505535375,6115.778376105271
