时间(s),电压(V),幅值(高频80K)
0.0,-1.9301599909441707,5895.004415180586
0.004,-1.8439291479338027,5904.682785641375
0.008,-1.7661715774380782,5895.516566191647
0.012,-1.7034328422269276,5893.452112208343
0.016,-1.6586206778162589,5896.882197066384
0.02,-1.6308003878621344,5889.539817795166
0.024,-1.616117446994331,5892.690308901599
0.028,-1.6093968986761307,5903.179605073109
0.032,-1.6058875012240845,5895.680365795786
0.036,-1.6026528963108955,5903.92364573659
0.04,-1.5991641985931806,5902.177890738264
0.044,-1.5968405173738787,5892.46381167704
0.048,-1.5977347634920258,5898.285302073778
0.052,-1.603064190095061,5902.858660478582
0.056,-1.6124010352624798,5903.799534833607
0.06,-1.6238956059663683,5898.470665674028
0.064,-1.6352454416918876,5902.158677729986
0.068,-1.6447549367269398,5899.140930388811
0.072,-1.6519244750463076,5908.489530409329
0.076,-1.6573661303234335,5900.887599443528
0.08,-1.6621928699684134,5907.397314995576
0.084,-1.667234137491207,5892.590883393073
0.088,-1.6724659467287255,5903.312819839994
0.092,-1.676910191127281,5892.410036312392
0.096,-1.6790137688210256,5895.8653103766
0.1,-1.6773128869342033,5903.936853069806
0.104,-1.6711322313075863,5896.615598535963
0.108,-1.6611051827362822,5896.206282987759
0.112,-1.6493217945482954,5907.399817775172
0.116,-1.6389393991635557,5897.798805156292
0.12,-1.6332412282291404,5899.577644856748
0.124,-1.6344224416608533,5903.165400129734
0.128,-1.6426533947874107,5907.580667145263
0.132,-1.6559492000072196,5900.0781385048085
0.136,-1.6709427863648711,5904.297975267407
0.14,-1.6840750872187846,5902.340321102253
0.144,-1.692487594105825,5908.974895373762
0.148,-1.6942626375439676,5895.106465097101
0.152,-1.688256344767174,5905.065451961004
0.156,-1.6740334553877116,5907.632791262796
0.16,-1.6521471834558217,5904.364557193761
0.164,-1.6245512496103527,5893.123632319608
0.168,-1.5947412820285036,5898.759219890505
0.172,-1.5673869859004628,5903.992871901011
0.176,-1.5474663847661263,5892.6276252447415
0.18,-1.539055331716316,5897.928151044974
0.184,-1.5440490953295503,5896.93432106121
0.188,-1.5612829141272508,5892.210667352461
0.192,-1.5865814814377983,5899.453716929279
0.196,-1.6139511733200471,5899.164965994256
0.2,-1.6375233903431885,5890.562422935374
0.204,-1.6533934480461174,5902.616094453506
0.208,-1.6605315791659787,5889.381717599822
0.212,-1.6604284219193957,5883.698567778251
0.216,-1.6557535605845997,5904.639236082132
0.22,-1.648746552761168,5907.846323453503
0.224,-1.6401525845987477,5904.770778508936
0.228,-1.6292206148950863,5907.967783963668
0.232,-1.6147330191793456,5900.28239921449
0.236,-1.5965040106529134,5898.256449286029
0.24,-1.5765354297783623,5903.558883643775
0.244,-1.559178718056187,5896.692566012483
0.248,-1.5501345781249216,5894.597285936302
0.252,-1.5546525450519513,5906.645735095859
0.256,-1.5756007501984406,5901.346132447929
0.26,-1.6120933618341564,5906.793742147906
0.264,-1.6591772975742152,5897.529709941947
0.268,-1.7087689284866725,5911.211059608861
0.272,-1.7516491526749938,5892.8576140934965
0.276,-1.7799605654539805,5896.514469649734
0.28,-1.7894140698680425,5904.396470295157
0.284,-1.7804192995074124,5907.25477774648
0.288,-1.7576935166848402,5901.368612079889
0.292,-1.7285103674942275,5895.117980807598
0.296,-1.7003325323139837,5895.582143687155
0.3,-1.6787877789390147,5894.284390523556
0.304,-1.6666625235031327,5903.731231365491
0.308,-1.6639961544757609,5896.751067634202
0.312,-1.6688547288299114,5899.272828064546
0.316,-1.6782235654794737,5905.428136358438
0.32,-1.6886731494128429,5894.620391884665
0.324,-1.6968117116657997,5901.1157278823375
0.328,-1.699778171601717,5899.490477863718
0.332,-1.6959541290919042,5901.748090279668
0.336,-1.68572269164468,5905.593588472223
0.34,-1.6717929628070012,5892.248009820852
0.344,-1.6586799257176008,5906.950869637314
0.348,-1.6513872080373186,5897.208304942831
0.352,-1.65381848385347,5896.014310932685
0.356,-1.6675710564662058,5904.442087709042
0.36,-1.6915085654995248,5896.178015643175
0.364,-1.722119581210617,5894.530521798494
0.368,-1.7544222384814199,5901.117044465262
0.372,-1.7831577561317842,5887.188289656911
0.376,-1.8040637176120264,5894.245337062486
0.38,-1.8149496103871776,5906.57130252864
0.384,-1.8161943472449165,5905.932013860809
0.388,-1.8103946760002612,5891.700588599178
0.392,-1.8012593812731938,5896.375361241682
0.396,-1.792198926195004,5897.571279590434
0.4,-1.7851376541129402,5903.201405872089
0.404,-1.779906176979731,5898.686281683727
0.408,-1.7743453663483366,5903.341325588877
0.412,-1.7650507243320745,5908.620728353687
0.416,-1.7485046761564742,5885.891566092383
0.42,-1.722241295273658,5906.453978813132
0.424,-1.6857185695457197,5906.640099111878
0.428,-1.6406819787364668,5899.65638378838
0.432,-1.5909133686180537,5901.509960207964
0.436,-1.5414035846980991,5900.943922759634
0.44,-1.4972035787246134,5897.217462081861
0.444,-1.462370989191108,5904.98626072802
0.448,-1.4393632251041772,5901.769075125148
0.452,-1.4289634707711818,5899.18769701724
0.456,-1.4305805803054996,5902.170139873814
0.46,-1.4426900845140842,5904.2278037627375
0.464,-1.4632481834388067,5898.176407258268
0.468,-1.4900059530050176,5904.3480478524925
0.472,-1.5207149044906743,5895.434124621623
0.476,-1.5532425242188832,5900.956162272327
0.48,-1.5856283371127868,5902.36287402564
0.484,-1.6161231813663772,5901.4652372257
0.488,-1.643261465676994,5905.176309656212
0.492,-1.665995631705355,5900.67999251354
0.496,-1.6838512178777205,5902.571238654732
0.5,-1.6969668976850747,5905.793786684872
0.504,-1.7058714753396678,5900.771487250007
0.508,-1.7110043934610266,5901.724586620027
0.512,-1.7122283354641434,5900.729184296087
0.516,-1.708684162060828,5897.1535223268265
0.52,-1.6991548534293632,5908.372318653172
0.524,-1.6827729818133912,5900.039657162134
0.528,-1.6597077028308012,5899.00722955321
0.532,-1.631519433656197,5901.67071111941
0.536,-1.601077576115481,5907.277396387364
0.54,-1.572149734877771,5900.999228869627
0.544,-1.5488581704134479,5901.15457230066
0.548,-1.5351182746046392,5902.374853077296
0.552,-1.5340522200893003,5896.326058421582
0.556,-1.5473705073697763,5907.7422046809415
0.56,-1.574833301953407,5901.473159523192
0.5640000000000001,-1.6140038189543924,5894.355941113979
0.5680000000000001,-1.660474273797119,5900.121918651552
0.5720000000000001,-1.7085860983529009,5904.0938551489935
0.5760000000000001,-1.7524712730543528,5900.265625102342
0.58,-1.7871081555445303,5900.4165552112245
0.584,-1.8090835019910603,5899.145624645069
0.588,-1.8168955311650954,5895.206366531137
0.592,-1.8108314863851058,5902.268584069221
0.596,-1.7925710148531262,5895.738425367297
0.6,-1.764663254330639,5900.14484723664
0.604,-1.7299914541158181,5894.026506824726
0.608,-1.6913539589876752,5900.612895473197
0.612,-1.6512973335197498,5898.091561263041
0.616,-1.6122256121205343,5902.320441448551
0.62,-1.57660303428,5896.510068503467
0.624,-1.5469540389994905,5891.94268182589
0.628,-1.5254941901033983,5895.564356074916
0.632,-1.5135116549381336,5898.390318043428
0.636,-1.5108188718055133,5898.163845169352
0.64,-1.5155865026621893,5893.280721222547
0.644,-1.5247226737399624,5899.55100995585
0.648,-1.5347448303564675,5901.41186506727
0.652,-1.5428455508207235,5898.967610344326
0.656,-1.547703251906512,5894.221934924252
0.66,-1.5497007585739146,5900.286833126149
0.664,-1.5505444628194693,5895.306400423799
0.668,-1.552543145532188,5905.654969736388
0.672,-1.557832767541893,5903.415538533936
0.676,-1.5677427089305598,5901.41855389788
0.68,-1.5824439453650903,5902.483834120572
0.684,-1.6009606147380617,5899.2388628484605
0.6880000000000001,-1.6214948747500744,5905.835256099915
0.6920000000000001,-1.6418847901827642,5901.025505275204
0.6960000000000001,-1.659995338989931,5890.484661053997
0.7000000000000001,-1.6739444967330217,5904.601382331748
0.704,-1.6822195095564119,5898.921398698697
0.708,-1.6838366714295738,5892.561926931218
0.712,-1.6786374482017754,5893.571061734036
0.716,-1.6676099243579006,5895.243559607492
0.72,-1.6529698335579948,5901.4604175505965
0.724,-1.6378075760870816,5904.093320814082
0.728,-1.6253606873522848,5896.795597605542
0.732,-1.6182133360039899,5891.55780177617
0.736,-1.6177961222358506,5901.801767453277
0.74,-1.6243908965474196,5902.739077867858
0.744,-1.6375113621505377,5899.589820256975
0.748,-1.6562775998447743,5897.315454102608
0.752,-1.679458869774734,5897.255533743661
0.756,-1.7051930382517084,5904.416458440127
0.76,-1.730727048292738,5898.41290326727
0.764,-1.752576809772506,5907.176327039465
0.768,-1.7672275528153356,5912.465130555056
0.772,-1.7721093214698977,5909.263751478671
0.776,-1.7663704570591992,5895.3217638006345
0.78,-1.7510650430299737,5902.364446452864
0.784,-1.7286920449896255,5902.549256292862
0.788,-1.7023632702043674,5897.745373437791
0.792,-1.675036761447686,5899.709089815671
0.796,-1.6491545999823267,5905.556900832146
0.8,-1.6267239365594217,5893.885789250646
0.804,-1.6095667666726545,5899.401584388717
0.808,-1.599375132292552,5903.56070546214
0.812,-1.5973999044166816,5907.57764076474
0.8160000000000001,-1.6038827638112387,5904.709803637685
0.8200000000000001,-1.6175190696108734,5898.309368540156
0.8240000000000001,-1.6352846239036831,5904.1426147227685
0.8280000000000001,-1.6528772776994891,5903.350196802513
0.8320000000000001,-1.6657700612457478,5898.148638945195
0.836,-1.670519290434367,5909.832343958795
0.84,-1.665780560262429,5899.608581244793
0.844,-1.6526396928798524,5900.531123563905
0.848,-1.6342234840253422,5907.771219945975
0.852,-1.614813530661397,5900.5840566857305
0.856,-1.598734929592218,5903.308719658798
0.86,-1.589277924320281,5900.660190127425
0.864,-1.5879481342800914,5904.6548835834665
0.868,-1.5943123034913194,5903.286518274158
0.872,-1.6064803830980494,5902.390207256445
0.876,-1.6219607107132716,5899.626227299044
0.88,-1.6384796352174567,5907.429721917865
0.884,-1.6544447500815898,5898.806917636469
0.888,-1.6689473611238055,5907.677016957859
0.892,-1.6814125741586963,5904.959936521387
0.896,-1.691146962106339,5899.981395495159
0.9,-1.697082543071284,5899.095843668671
0.904,-1.6979396883833753,5893.020131913064
0.908,-1.692821405231709,5902.6969304764
0.912,-1.6819889432132664,5906.0149606598925
0.916,-1.6673962088878482,5902.991884178806
0.92,-1.652598104411645,5900.528798197124
0.924,-1.6419132196905295,5897.118992174782
0.928,-1.6390843202971015,5895.82479778321
0.932,-1.6459368741149367,5910.563306121228
0.936,-1.661551318819598,5898.742536602576
0.94,-1.6822515642050921,5910.099845898016
0.944,-1.702409755737619,5894.709090434635
0.948,-1.7158366541664392,5911.340678145146
0.952,-1.7174278616174898,5894.868112634641
0.956,-1.7047053998676673,5904.743361228282
0.96,-1.6788654271364287,5900.8831040349205
0.964,-1.6449650651436183,5895.265892044845
0.968,-1.611049165983348,5898.837292494939
0.972,-1.5863115434401682,5900.978559293885
0.976,-1.5786891268076328,5900.078502143799
0.98,-1.5925220976791536,5897.88020008924
0.984,-1.6270167029498028,5900.249724529094
0.988,-1.6761079436455795,5900.7698417435
0.992,-1.729888799972909,5902.222713169333
0.996,-1.7772067922379757,5902.51538736552
1.0,-1.8086027523545605,5910.045528407575
1.004,-1.818671771379003,5899.960624160977
1.008,-1.8071614723258809,5900.253502939993
1.012,-1.7785482733361555,5902.799793891699
1.016,-1.7403099369749548,5898.587921502297
1.02,-1.7005422666067518,5900.325513371713
1.024,-1.665789445929753,5900.974204463928
1.028,-1.6397995741143727,5903.439126802223
1.032,-1.623433426885501,5897.891437562908
1.036,-1.6154508430879857,5905.88896015146
1.04,-1.6136389611096456,5914.941435003356
1.044,-1.6157636193171836,5899.792239075506
1.048,-1.620036690745966,5903.42857636053
1.052,-1.6251073261957893,5894.443113453927
1.056,-1.6298546719120734,5897.140900429813
1.06,-1.633307116692328,5900.76784693095
1.064,-1.634813112762405,5903.978561137095
1.068,-1.6343099981880782,5901.315681699117
1.072,-1.6323871456964996,5898.267332794008
1.076,-1.629934112575593,5902.558533645811
1.08,-1.627476144006782,5899.49927268638
1.084,-1.6246196908362962,5897.806108720255
1.088,-1.620069431403063,5900.556387126951
1.092,-1.6123419941739738,5896.949438927594
1.096,-1.6008358087019152,5890.928993066255
1.1,-1.5866816146985778,5900.732686426612
1.104,-1.5729199264563087,5906.646138790358
1.108,-1.5638645161086924,5902.683363580135
1.112,-1.5638272816104022,5893.960846515974
1.116,-1.5756549456722113,5896.4651496198885
1.12,-1.599694786930372,5900.632394568085
1.124,-1.6336796668926576,5898.8485897076425
1.128,-1.6735473118623796,5899.822341157869
1.132,-1.7146727090264466,5902.481546449805
1.136,-1.75282329393677,5891.539511115238
1.14,-1.7844868767283846,5899.967260729357
1.144,-1.8067577738300826,5905.22080324038
1.148,-1.8172277297447341,5898.680511028936
1.152,-1.8141564342709346,5901.787685997936
1.156,-1.796863783589072,5896.392878280686
1.16,-1.7661499321517393,5902.819906435621
1.164,-1.7246607983288917,5898.542349384433
1.168,-1.6772294134902306,5911.589356527778
1.172,-1.63112652150776,5905.362711252454
1.176,-1.595890218694823,5903.811868538397
1.18,-1.582196317315503,5905.770431183199
1.184,-1.5993136209586467,5906.1928894147895
1.188,-1.6511918959636218,5897.895113446672
1.192,-1.732048027687188,5895.942893949801
1.196,-1.8230342682338418,5898.554555792761
1.2,-1.8917193553202283,5903.021242231586
1.204,-1.8955693579968533,5899.883777761061
1.208,-1.7896246011599692,5901.444672663197
1.212,-1.5373413501183644,5904.155597708187
1.216,-1.1221819555504682,5904.588131359465
1.22,-0.5563467857637727,5907.4927880341575
1.224,0.11714783317949258,5893.305214347568
1.228,0.8312441649187848,5900.95089308644
1.232,1.5093574897368744,5919.38504416211
1.236,2.0829974301299488,5930.602114334866
1.24,2.5063941590239365,5951.043329478827
1.244,2.7636451524569736,5966.739770893801
1.248,2.8673510287309747,5986.392650019277
1.252,2.850802180150215,6010.505510322511
1.256,2.7572372883717753,6022.092642224817
1.26,2.629528290346515,6052.480042605139
1.264,2.5025091006345654,6059.78306192847
1.268,2.3988165105799943,6066.923531161082
1.272,2.3280894786251944,6090.17604863544
1.276,2.288807537844931,6100.137352318599
1.28,2.2717862622071348,6119.304693149459
1.284,2.264281778849688,6129.687035606269
1.288,2.253805700404502,6143.563469839916
1.292,2.231056617729821,6153.934023215499
1.296,2.1916646768189496,6162.797725822197
1.3,2.136631522265187,6187.967197284291
1.304,2.0714933884213367,6197.176243016604
1.308,2.0044450562099057,6213.428093685889
1.312,1.943944939011157,6214.335093163918
1.316,1.8965364424832005,6230.838208872313
1.32,1.865556870308055,6243.896985198432
1.324,1.8509965501695897,6251.600924439689
1.328,1.8502471390565747,6267.978513049048
1.332,1.8591813313447898,6287.826386331007
1.336,1.8730789114741702,6283.30214850976
1.34,1.8872337174603082,6299.308761497741
1.344,1.897369490737018,6316.364318061486
1.348,1.9000344879864013,6334.893513309347
1.352,1.8929874899240087,6341.818180266744
1.356,1.8754727707748804,6345.256246335066
1.36,1.8482985152524387,6352.261987859055
1.364,1.8136829097436409,6365.555006719684
1.368,1.7748600730935467,6378.7384097149625
1.372,1.7354823044043084,6384.089704135709
1.376,1.698914692441869,6390.064743832068
1.38,1.667544079001781,6405.629086942186
1.384,1.6422318830635625,6412.653022711023
1.388,1.6220743415403696,6417.077590314123
1.392,1.6046343099003335,6429.487901681154
1.396,1.5866827936418972,6439.889440181805
1.4,1.565278599512019,6451.535304127931
1.404,1.5388443789347928,6453.028954651123
1.408,1.5078305200118653,6458.664516893455
1.412,1.4746292811845112,6471.840089712622
1.416,1.4426597959019403,6484.891631576884
1.42,1.414937579267293,6485.947845903012
1.424,1.39274501479259,6486.481708331297
1.428,1.3750041009546745,6493.499589152638
1.432,1.3586135262671521,6497.500421888401
1.436,1.339569854371453,6509.866796468858
1.44,1.3143860645699652,6518.462728996135
1.444,1.2812457364418248,6536.377586792382
1.448,1.2404832303371625,6538.331402015873
1.452,1.194317427679673,6530.502286306538
1.456,1.1461365195820683,6548.110607693288
1.46,1.099776941526265,6547.943428918387
1.464,1.059040084841205,6558.210245610476
1.468,1.027343695600773,6552.8093333000215
1.472,1.007250158830076,6568.055434435832
1.476,0.9997765244286414,6564.874284240737
1.48,1.0036888092244658,6572.256716105096
1.484,1.0151717196266403,6580.045804773712
1.488,1.0282380558542508,6577.957297246338
1.492,1.0359938190018196,6595.963928772091
1.496,1.0324774245403079,6595.711799643805
1.5,1.0144605245463632,6602.240041228762
1.504,0.9825811611971351,6596.275706250238
1.508,0.941478838813979,6612.550020081507
1.512,0.8989502823924548,6612.927539857357
1.516,0.8643339140705804,6612.221069990079
1.52,0.8464028656676048,6627.041996833934
1.524,0.8511414110026885,6627.366683638988
1.528,0.8799235240398409,6632.168034853028
1.532,0.928677722267212,6639.792534703627
1.536,0.9884566514155816,6649.812623304195
1.54,1.0474179188773827,6645.787935687268
1.544,1.0937113285729922,6649.981947308816
1.548,1.1183756702872956,6663.245470557736
1.552,1.1173008373331628,6661.934205658257
1.556,1.0917118244617325,6655.30331963001
1.56,1.047272774577427,6657.210186200677
1.564,0.9923662750782053,6662.02245871935
1.568,0.9361466375129694,6673.304828833054
1.572,0.8867692696533841,6682.164948143333
1.576,0.850045885734148,6675.23674749801
1.58,0.8287153048317449,6686.366661845418
1.584,0.8224260693079606,6699.42255476444
1.588,0.8283567149180172,6695.604161238467
1.592,0.8422245075401243,6683.891246498698
1.596,0.8593321914559909,6696.624916627926
1.6,0.8753389933696543,6701.191708570578
1.604,0.8866378890746015,6701.00533515368
1.608,0.8904568249577971,6710.818545796893
1.612,0.8848890749971212,6709.689317894794
1.616,0.868974402398494,6708.636358722809
1.62,0.8428397401275403,6716.732037685186
1.624,0.8078357753083225,6724.124907302318
1.628,0.7665545028309366,6717.224757629749
1.632,0.722622244204018,6715.577435037949
1.636,0.6802619859361331,6722.473584193877
1.64,0.6437117502081352,6727.780180866336
1.644,0.6165909288729168,6731.320299699621
1.648,0.6012877539414071,6729.619040184244
1.652,0.5984717927298153,6739.158335576301
1.656,0.606873287297425,6727.064375454388
1.66,0.6234496483266277,6750.991091039
1.664,0.6439725910155684,6741.329235072674
1.668,0.66393374586164,6746.437702835893
1.672,0.6795260657883792,6739.134279796483
1.676,0.6884169335458138,6743.609839337087
1.68,0.6901347436192057,6743.300050921752
1.684,0.6860274348501089,6749.492288544546
1.688,0.6788098267257267,6749.170952514614
1.692,0.6717779151015604,6755.4608887019385
1.696,0.6679112066896902,6763.218016783716
1.7,0.6691716852233629,6750.21959260071
1.704,0.6761936712653945,6762.081360720621
1.708,0.6883350016338607,6755.969986407932
1.712,0.7039206445226871,6769.004075337449
1.716,0.7205206334610588,6759.811332148885
1.72,0.7352155736495445,6769.607904052906
1.724,0.7449355119200639,6768.723691626106
1.728,0.7469956773156484,6761.821214319834
1.732,0.739804624509561,6761.576111252267
1.736,0.7234769233699998,6773.819391177894
1.74,0.6999946975722727,6782.635227753639
1.744,0.672759787485961,6773.523745140193
1.748,0.6456891150907097,6774.968084734718
1.752,0.6221702565936684,6775.108388657717
1.756,0.6041630484947342,6774.657086507113
1.76,0.5916465468978632,6782.02278724249
1.764,0.5825807084544536,6785.000871748206
1.768,0.5735258544101091,6776.187817584893
1.772,0.5608835709192534,6786.200619590117
1.776,0.5423739832340984,6781.4872132792525
1.78,0.5181002287007382,6789.6142567321685
1.784,0.4906595702641707,6781.054967265979
1.788,0.4642422398502969,6793.309033426124
1.792,0.4432042937349995,6789.444717937735
1.796,0.4308421650153594,6799.411722478173
1.8,0.42887535539718413,6800.417761629489
1.804,0.43761929023130874,6784.315421748855
1.808,0.4563952620367366,6801.465904567208
1.812,0.48371944791291727,6800.78989435761
1.816,0.5172009793966752,6797.260972698305
1.82,0.5534615055254177,6793.387806957672
1.824,0.5884218160464028,6800.256345605901
1.828,0.6180061856992163,6796.721308619576
1.832,0.6389777347685103,6807.469553311972
