时间(s),电压(V),幅值(高频80K)
0.0,-1.4604687979500837,5897.79844014744
0.004,-1.436178211712153,5900.189223741655
0.008,-1.416738056995824,5896.812467389092
0.012,-1.4052312716309667,5895.962987899189
0.016,-1.4028971556154275,5899.475672082006
0.02,-1.4090041348747058,5907.50075969338
0.024,-1.421144295125431,5895.556466472175
0.028,-1.4357588475664553,5909.131608457706
0.032,-1.4488499428936386,5896.70751926659
0.036,-1.4568338451241165,5898.613558471907
0.04,-1.457335713032694,5903.168676250396
0.044,-1.4496766426943595,5888.381866586463
0.048,-1.4349683372518194,5899.773886952632
0.052,-1.4159107328317229,5893.22523835145
0.056,-1.396368830613145,5893.861344944138
0.06,-1.3806758733450764,5899.226914180638
0.064,-1.3726455166326934,5908.03326812739
0.068,-1.3745249480244073,5899.301401302421
0.072,-1.386311164741974,5898.560760276881
0.076,-1.4057503846532038,5893.534391637923
0.08,-1.4290256519501106,5890.124815574133
0.084,-1.4518468922306915,5901.946922805009
0.088,-1.4705296774613925,5898.892166187761
0.092,-1.482701777089218,5893.963925518029
0.096,-1.4874689139941468,5895.2206738670975
0.1,-1.485106462666321,5905.649614002109
0.104,-1.4765111538024018,5900.7403367685765
0.108,-1.4626934992191951,5906.855668307315
0.112,-1.4445292338329279,5894.025830659832
0.116,-1.4228401882079589,5892.740736161494
0.12,-1.3986776001392303,5889.949002144218
0.124,-1.3735513048453707,5900.119479724331
0.128,-1.3494238546246613,5894.686790814057
0.132,-1.328511717191982,5902.666572928864
0.136,-1.3130543708805182,5897.8360611979215
0.14,-1.3051026006789006,5900.173272756621
0.144,-1.3062157519061366,5906.0078412035145
0.148,-1.3169741120772052,5893.071683675654
0.152,-1.3364057598074839,5895.33185754974
0.156,-1.3616118120817602,5900.707721410202
0.16,-1.3879000447982373,5899.21233997337
0.164,-1.4095700955421315,5891.755162236399
0.168,-1.4211930159073938,5903.135752199712
0.172,-1.41895859855017,5894.246544477788
0.176,-1.401615872154319,5898.309945629299
0.18,-1.3707379912621767,5898.288441373597
0.184,-1.3303535193559,5894.89237558404
0.188,-1.2862140160297024,5900.546780921519
0.192,-1.2449903835500333,5888.987226354144
0.196,-1.2135076221459333,5899.701253223865
0.2,-1.1979020016332058,5898.687516960639
0.204,-1.2025611005308858,5896.093827995608
0.208,-1.2289736791795716,5907.32529995552
0.212,-1.2749351533331892,5902.779480843944
0.216,-1.3345754310658815,5896.742014690786
0.22,-1.399350003987049,5895.958559801421
0.224,-1.4597493277724538,5901.625964485408
0.228,-1.5072742240399264,5900.765506489503
0.232,-1.5361786524907721,5902.400736932714
0.236,-1.5445257095931424,5890.856878998148
0.24,-1.5342817961911033,5906.064285537994
0.244,-1.5104912777972574,5902.550387641607
0.248,-1.4798635951366357,5895.561266119557
0.252,-1.4491993564467491,5897.961493636521
0.256,-1.4240036191049825,5901.748651918658
0.26,-1.4075245144748143,5905.545735640394
0.264,-1.4003836438333692,5900.037957570143
0.268,-1.4008747049191992,5899.648706738553
0.272,-1.4058304640728883,5898.905149549796
0.276,-1.4117477500425035,5899.3274455462015
0.28,-1.4157647133949691,5884.467227453697
0.284,-1.416186976020594,5896.658755046074
0.288,-1.412494091939118,5905.591766853621
0.292,-1.4049979511025597,5902.474390815829
0.296,-1.3944577934218902,5900.519649665886
0.3,-1.3818950075694993,5894.417240829958
0.304,-1.3686225690257015,5899.970426685312
0.308,-1.35630432284297,5894.817189219993
0.312,-1.3468527871525566,5891.341523754869
0.316,-1.3421045939540113,5903.891301938161
0.32,-1.3433362093594332,5898.2429982786125
0.324,-1.3507645311066023,5894.45390296523
0.328,-1.3632447339176506,5898.020473114994
0.332,-1.378390212463468,5892.373637688134
0.336,-1.393205593958963,5900.111479335705
0.34,-1.405040643026252,5908.641381234528
0.344,-1.4124139081604203,5902.485146939086
0.348,-1.415263154302227,5904.983610492713
0.352,-1.4145168752180446,5901.636660239724
0.356,-1.4113091417495978,5893.858063830155
0.36,-1.4063454900816883,5903.651097598298
0.364,-1.399772488102583,5895.699582518075
0.368,-1.3915860096732913,5903.163595522093
0.372,-1.382323060332138,5899.822900387165
0.376,-1.3736030263442471,5900.371024777988
0.38,-1.368115960180888,5898.249524280985
0.384,-1.368957180340285,5892.469237599344
0.388,-1.3785899197327114,5902.445109731058
0.392,-1.3978789924734596,5904.996924940687
0.396,-1.425529190679423,5896.719563911969
0.4,-1.4580823557559568,5896.713479312002
0.404,-1.4905009237867834,5919.44456620149
0.408,-1.5172491363322482,5895.300106605233
0.412,-1.5336345409517054,5891.147136552333
0.416,-1.537021271351222,5899.199984479103
0.42,-1.5274537680683882,5906.584175672403
0.424,-1.5073728222007632,5899.75724129872
0.428,-1.4805114997535744,5897.608593420386
0.432,-1.4505018452988547,5903.018027681301
0.436,-1.4198710481176564,5907.319168093262
0.44,-1.3898510949098315,5911.907044712865
0.444,-1.360959601341967,5907.970425041099
0.448,-1.333919734498378,5895.285430224603
0.452,-1.3103484947954678,5910.741224510181
0.456,-1.292769521499966,5895.443991026413
0.46,-1.2838379476392132,5889.584456095522
0.464,-1.2850867416712317,5902.387865952135
0.468,-1.2958055945645914,5898.898244611041
0.472,-1.3126489851543042,5900.496480579472
0.476,-1.3302526053648984,5910.896896448655
0.48,-1.3427037520485472,5898.722636389873
0.484,-1.3453514174978658,5901.896444201146
0.488,-1.3363053202981208,5900.28078169949
0.492,-1.3171295974238117,5892.104570682225
0.496,-1.292562116847789,5895.383159953168
0.5,-1.269359825873034,5903.11202532101
0.504,-1.2545269643279053,5896.083957403795
0.508,-1.2533387825280478,5901.593880109192
0.512,-1.2677384018299667,5906.670494121395
0.516,-1.2956820463663732,5897.886500906913
0.52,-1.3317077742426244,5895.985166874964
0.524,-1.3685213427986713,5901.46219379789
0.528,-1.39900766296844,5905.459951896689
0.532,-1.4179834107054472,5898.042388199081
0.536,-1.4231969416237136,5895.768333610527
0.54,-1.4154155783180298,5890.547692802306
0.544,-1.397757204777872,5896.027643854846
0.548,-1.3745998567079636,5902.79060917236
0.552,-1.3504119466423101,5903.447282554371
0.556,-1.3287728893899544,5900.424625288522
0.56,-1.3117904905967592,5895.788009224996
0.5640000000000001,-1.300049117423355,5898.0509801052485
0.5680000000000001,-1.2930700659215244,5909.3294420631255
0.5720000000000001,-1.2900542644473978,5902.306124810929
0.5760000000000001,-1.290534697525757,5902.393084353181
0.58,-1.2945991237796903,5898.735103871078
0.584,-1.3025599294800079,5896.014641393384
0.588,-1.3142581987545692,5897.428991579202
0.592,-1.3284292160772626,5899.807387670572
0.596,-1.3425754518789323,5901.040141642908
0.6,-1.3535641338887623,5895.728540998889
0.604,-1.3587776653290637,5906.118614958028
0.608,-1.3572696311244246,5898.009757057393
0.612,-1.350278594594873,5896.234472098015
0.616,-1.3407815381789683,5890.678856328646
0.62,-1.3323275898768623,5889.47395546908
0.624,-1.3277639813399185,5898.8485542272365
0.628,-1.3284207483803443,5901.271889692298
0.632,-1.3339792626944076,5896.485439593736
0.636,-1.3428991195431854,5901.3872442136135
0.64,-1.3531023104185724,5905.462261735765
0.644,-1.362607957689758,5902.877986736477
0.648,-1.3699088658873564,5896.532210739508
0.652,-1.3740472367538001,5895.160017564826
0.656,-1.374511998087688,5899.135781115955
0.66,-1.3711353961216692,5900.850938266818
0.664,-1.3640903187406757,5893.190617354969
0.668,-1.3539735413268963,5907.192662472176
0.672,-1.3418830761539766,5901.658454890891
0.676,-1.3293788742824553,5903.822918947298
0.68,-1.3182616231683506,5899.866686019577
0.684,-1.3102020929950937,5897.965619955282
0.6880000000000001,-1.3063486912237348,5907.354843636501
0.6920000000000001,-1.3070683544246697,5904.633949301488
0.6960000000000001,-1.3119136913778073,5898.409460476229
0.7000000000000001,-1.3198087463779675,5898.552553839966
0.704,-1.3293740651818304,5890.398668987788
0.708,-1.3392738546558747,5902.612916452592
0.712,-1.3484633585284527,5900.475021326425
0.716,-1.3562891941644943,5904.189307087126
0.72,-1.362515913260556,5895.4365696373725
0.724,-1.3673673225437086,5900.261147118578
0.728,-1.3715401143363006,5906.2370803915655
0.732,-1.376046297455519,5899.935576823106
0.736,-1.3818259932348746,5892.336339450606
0.74,-1.3892780910596085,5904.466175408669
0.744,-1.3979877256715108,5895.46398679858
0.748,-1.4068546337346846,5901.825610668915
0.752,-1.4145825337920268,5897.630278195928
0.756,-1.4202575082998505,5901.722808161558
0.76,-1.4237015623145717,5897.5677259031145
0.764,-1.4254541247233694,5891.173259777871
0.768,-1.426454263045808,5897.671228558985
0.772,-1.4276121546558729,5897.027643242338
0.776,-1.4294571450736338,5909.016231645528
0.78,-1.4319929519728738,5899.869046134121
0.784,-1.434790124178163,5910.570605696051
0.788,-1.4372139698065372,5899.055027089604
0.792,-1.4386116243986935,5894.5591354728185
0.796,-1.4383465339470975,5890.139029880207
0.8,-1.4357337313107117,5886.971246140486
0.804,-1.4300500089920036,5887.24643852228
0.808,-1.4207472870421287,5901.900370100487
0.812,-1.407818386981556,5898.540965696416
0.8160000000000001,-1.392115425853214,5903.2127125395855
0.8200000000000001,-1.3754252556507727,5902.504794735434
0.8240000000000001,-1.3602468387628788,5902.054731824295
0.8280000000000001,-1.3493665456348147,5888.822315634146
0.8320000000000001,-1.3453538673864278,5901.83862776396
0.836,-1.3500118146625641,5898.243992261834
0.84,-1.363792115444564,5897.727116290397
0.844,-1.3853248858238811,5904.615221811287
0.848,-1.4113603805170782,5905.536046800028
0.852,-1.4373502770555688,5902.791544675926
0.856,-1.458577819380657,5899.4029714251365
0.86,-1.471391022647559,5893.076315272136
0.864,-1.4739908566667042,5903.670205059935
0.868,-1.4664992801565777,5896.213590076041
0.872,-1.450485734003675,5897.927732994972
0.876,-1.428389072830299,5898.064822271254
0.88,-1.403130436804473,5896.130138371711
0.884,-1.3778587144498067,5902.726034428062
0.888,-1.3555888598357444,5891.444287676194
0.892,-1.338644935900516,5908.549522256612
0.896,-1.3280965716432458,5891.852156375432
0.9,-1.3234793873813309,5902.232207410135
0.904,-1.3229430190206644,5908.169643873139
0.908,-1.323755021639382,5896.755995847148
0.912,-1.3230000497940906,5896.601662267366
0.916,-1.3183408402921377,5905.503260114007
0.92,-1.3087121084786921,5905.690236584292
0.924,-1.294771589212739,5900.155825371588
0.928,-1.2789362758741338,5895.438847366738
0.932,-1.2649346467697267,5902.619435902618
0.936,-1.2569362376026159,5904.716886288896
0.94,-1.258418693478012,5899.123842424603
0.944,-1.271028164214874,5898.033194039175
0.948,-1.2937833243817227,5904.538711972655
0.952,-1.3229622079694816,5897.952975123054
0.956,-1.352825528272476,5903.879844564746
0.96,-1.3770519021160006,5899.908615989592
0.964,-1.3905140957308089,5897.566093699432
0.968,-1.3908719572081027,5906.2127828791545
0.972,-1.3794346833125446,5899.472693135651
0.976,-1.3609047314722653,5899.919048143263
0.98,-1.3419781891033498,5903.904472618437
0.984,-1.3292455991942358,5891.91224710354
0.988,-1.3271721163786878,5904.440023257261
0.992,-1.336901337011778,5896.229392454644
0.996,-1.3562280418157382,5895.415589044948
1.0,-1.3805808752989044,5902.080898118432
1.004,-1.4045262473083533,5898.734863412883
1.008,-1.4232516300792495,5900.250352612038
1.012,-1.4336349567761417,5888.928358024865
1.016,-1.4347206973888311,5893.047489163525
1.02,-1.4276020338392044,5894.521169396431
1.024,-1.4148174266362024,5897.931000473158
1.028,-1.3994320812868497,5894.866041099087
1.032,-1.3840400980408805,5899.5992590066535
1.036,-1.3700034407504431,5883.884953483461
1.04,-1.3572619495148495,5907.267133868916
1.044,-1.3448805712663157,5890.618473760866
1.048,-1.3321278688440557,5899.681356277267
1.052,-1.3195061831256887,5903.477658324791
1.056,-1.3090865346071205,5900.324543063989
1.06,-1.303860273639877,5895.856747854071
1.064,-1.3063911737100504,5900.625024721048
1.068,-1.3174687325724124,5907.683837011865
1.072,-1.3354764644014399,5905.754132579686
1.076,-1.356804780504437,5903.348170351339
1.08,-1.3771089871729614,5901.508315479417
1.084,-1.3928451920571203,5904.877397962583
1.088,-1.40243684435887,5899.9796668816925
1.092,-1.4065898013011457,5904.160653923351
1.096,-1.4076170567783712,5898.641126276624
1.1,-1.4080540471866434,5899.77412107
1.104,-1.4091702033334617,5901.276659594
1.108,-1.4100734470125085,5891.91821470389
1.112,-1.4079162977062412,5893.329770571065
1.116,-1.399258317576225,5902.253959519858
1.12,-1.3820450853450472,5895.5921450537
1.124,-1.3572408297596779,5909.97730817961
1.128,-1.3292395415326401,5902.636207536277
1.132,-1.304801373310403,5901.644828397602
1.136,-1.2910062070250579,5895.566447160993
1.14,-1.2930924743465244,5903.119151820578
1.144,-1.312941709055869,5898.184010113545
1.148,-1.3486220596627116,5906.46421533378
1.152,-1.3950302212308754,5895.551971781699
1.156,-1.445319284289512,5905.111493863974
1.16,-1.4925512816604338,5895.402068836123
1.164,-1.531014418093517,5900.513194413783
1.168,-1.5569076884798856,5900.09210886699
1.172,-1.568442963929589,5892.055712057458
1.176,-1.5656381118843752,5890.562515812254
1.18,-1.550073725614224,5899.515751400761
1.184,-1.5247042058793203,5904.147415716918
1.188,-1.4936029076040325,5902.105943210852
1.192,-1.4614450493381133,5908.426675770572
1.196,-1.4326584015965311,5896.2322944397065
1.2,-1.410423178155984,5906.66321868518
1.204,-1.3958999444711806,5908.476404097716
1.208,-1.388050678026146,5906.498302371128
1.212,-1.3841904750196146,5908.104504057764
1.216,-1.381104997038436,5895.566594314406
1.22,-1.3763333331466339,5899.300445699901
1.224,-1.3691288733069964,5895.030004291927
1.228,-1.3607138706293003,5898.138753972605
1.232,-1.3537129860302535,5904.524125361515
1.236,-1.3509830068613564,5905.437374695057
1.24,-1.3543233832230823,5901.042162543516
1.244,-1.3636359434745102,5901.596989012829
1.248,-1.3769067486908468,5905.64099598641
1.252,-1.3909609988226843,5901.763594108144
1.256,-1.40256421633009,5900.386547131282
1.26,-1.4093809908359627,5886.541984497221
1.264,-1.4105378917073765,5907.702756667052
1.268,-1.4067889514374643,5899.813111162007
1.272,-1.400332984074319,5919.119571866102
1.276,-1.394265952529874,5898.022203673099
1.28,-1.3917043862023526,5898.979224564179
1.284,-1.3948255333506911,5896.776791305953
1.288,-1.404215029027728,5904.782575021284
1.292,-1.4188053349671277,5897.258440947125
1.296,-1.4363924267788588,5894.9342873262085
1.3,-1.4544506190969677,5895.429924541346
1.304,-1.4708750615538473,5902.864116626566
1.308,-1.4843762995531895,5893.663117468226
1.312,-1.4944570070439227,5900.098046173145
1.316,-1.5011005633055206,5899.990391368156
1.32,-1.5043842729499954,5905.409857124888
1.324,-1.5041928933080224,5893.786924713652
1.328,-1.5001424985095415,5903.6829416296405
1.332,-1.4917708635463498,5903.252100468592
1.336,-1.4789539719967943,5900.869550294959
1.34,-1.462357443139299,5885.123080689388
1.344,-1.4436403694264375,5900.23971274818
1.348,-1.4252111334110917,5903.517811310116
1.352,-1.409555096024347,5898.177432187397
1.356,-1.3983687421085844,5906.853273686535
1.36,-1.3918386647512597,5905.236486839839
1.364,-1.3883718662715623,5905.384682763784
1.368,-1.3849222302711626,5901.494423841234
1.372,-1.3778294507103555,5907.139674187975
1.376,-1.3639386580533839,5905.993455651413
1.38,-1.341789648342217,5899.727587661077
1.384,-1.3127446719542213,5904.897206558503
1.388,-1.2818716444868914,5903.456528968484
1.392,-1.2581787124638717,5898.822583862011
1.396,-1.2536149310561173,5889.700247650005
1.4,-1.2804033414088944,5899.396947393881
1.404,-1.3468284727329913,5891.814809211577
1.408,-1.45229597767303,5897.111014128146
1.412,-1.5829836381743054,5903.626317585754
1.416,-1.7095945420060752,5897.807566484358
1.42,-1.788623142438619,5901.905849425673
1.424,-1.7680637511058797,5897.941946032898
1.428,-1.597464015621779,5908.461125983809
1.432,-1.2407087350105797,5903.545838247155
1.436,-0.6883741139833525,5897.127382341478
1.44,0.0343763818055543,5898.2141520725145
1.444,0.8679551665624423,5905.837918896288
1.448,1.7281141824192758,5898.321812480328
1.452,2.523435893341766,5906.487913702811
1.456,3.1753090721953843,5919.066065278153
1.46,3.6339113050011025,5935.279249073323
1.464,3.885555473475522,5955.410149199509
1.468,3.9503987615274094,5972.221612612747
1.472,3.8727906347524423,5977.175806787212
1.476,3.7081806000318505,6003.429186003323
1.48,3.5104836778984785,5998.810882734362
1.484,3.3226872169345807,6019.790412732178
1.488,3.171956699252113,6026.836098594918
1.492,3.0691264633807807,6046.0402169359
1.496,3.0115606508504027,6054.79922210311
1.5,2.987951692761061,6069.773791976032
1.504,2.9835479325525496,6084.90439229675
1.508,2.9845094760913735,6098.274914225913
1.512,2.9805916086012623,6101.783076371813
1.516,2.966017935513205,6108.970727976503
1.52,2.9389434677146533,6123.24546654805
1.524,2.900129183499172,6138.528393213813
1.528,2.851424602366627,6148.573151356439
1.532,2.7945538541390786,6156.618768484948
1.536,2.730555231160925,6172.2493868468855
1.54,2.6599730213531445,6177.655000117067
1.544,2.5835874817043547,6183.8726282940615
1.548,2.5032428640493416,6199.729360932374
1.552,2.422300306971714,6207.79015207528
1.556,2.345414997651673,6216.400816802485
1.56,2.277651526335314,6219.20129722412
1.564,2.223256565211744,6225.2862514666695
1.568,2.184537212394441,6246.97937937417
1.572,2.1612167052112237,6253.498130044662
1.576,2.150459417463302,6258.648187900053
1.58,2.147555066398853,6251.978476348996
1.584,2.1470573063342955,6269.672832165436
1.588,2.1440347290998116,6280.159180895805
1.592,2.1350540028475335,6283.958986882499
1.596,2.118575875114118,6299.482472811307
1.6,2.094631049375317,6303.084772496328
1.604,2.063965948388457,6304.381004538694
1.608,2.0271493842627053,6313.402686659334
1.612,1.9841551009750498,6321.41857489543
1.616,1.9346323289536935,6327.895784389804
1.62,1.8786702925394836,6329.395573272495
1.624,1.8176005719561732,6347.266600266664
1.628,1.754366933277981,6350.530449939062
1.632,1.6932091480444607,6349.456432417043
1.636,1.6387458696167438,6359.511809692288
1.64,1.594826918468197,6368.552317631832
1.644,1.5636083112235666,6373.726998838126
1.648,1.5451544920388252,6375.247955775784
1.652,1.5376116425505906,6387.688237029048
1.656,1.5378021570462796,6384.171771213312
1.66,1.5420304805189626,6396.488470473101
1.664,1.5468928186203668,6399.483108342968
1.668,1.5498924369692277,6412.153455350634
1.672,1.5497134769217418,6412.292680647096
1.676,1.5461216840546126,6412.447608327356
1.68,1.539580510643188,6416.2527452580025
1.684,1.5307325987450238,6417.507107454717
1.688,1.5199162050634851,6414.354957018763
1.692,1.506900248764836,6429.695639804406
1.696,1.490980017859183,6433.040544116831
1.7,1.4714111042680127,6444.339453661645
1.704,1.4479537785164258,6443.632592632614
1.708,1.4212279758184618,6446.541298848351
1.712,1.392694965726939,6449.779435527229
1.716,1.364280529271616,6457.779040585649
1.72,1.3377940128948524,6465.250967548536
1.724,1.314319483774793,6458.643364035707
1.728,1.2937295995010725,6474.223226074327
1.732,1.2744798478379562,6468.564493351182
1.736,1.2538285630554509,6484.049420898587
1.74,1.2285103947953107,6482.228202705834
1.744,1.1957078938606738,6478.986956716333
1.748,1.154030587575673,6484.419135395173
1.752,1.1041931880875113,6492.764360229627
1.756,1.0491876804866584,6498.421762419851
1.76,0.9939057843819735,6499.3463764097205
1.764,0.9443005046093259,6506.125507191506
1.768,0.9062467648618636,6504.777290326194
1.772,0.8843075763454791,6504.629618145835
1.776,0.8806569592205774,6503.674581048677
1.78,0.894417158721661,6509.51485510989
1.784,0.9215979035482118,6510.8013939190605
1.788,0.9556956704337987,6515.812089447341
1.792,0.9888585262055157,6525.5718100114
1.796,1.0133817678233807,6536.733384188545
1.8,1.0232099460894593,6522.344574185282
1.804,1.015107284675626,6531.074254515895
1.808,0.9892331478799723,6533.616931692412
1.812,0.9490158945605057,6537.552321089978
1.816,0.9003948504093684,6537.804031071003
1.82,0.8506180814282782,6534.657801653
1.824,0.8068362085193511,6549.576849959719
1.828,0.7747579842053802,6533.762066820016
