时间(s),电压(V),幅值(高频80K)
0.0,-1.1291902811075536,5906.64575334527
0.004,-1.0797179773222108,5893.968308527112
0.008,-1.0404765340319972,5903.545012506368
0.012,-1.0193763271727125,5905.524427881738
0.016,-1.020532099777038,5900.15425729306
0.02,-1.043329919117996,5897.656061295434
0.024,-1.0824488310790819,5897.381856935076
0.028,-1.1289587761395141,5905.176258224609
0.032,-1.1724449547543676,5891.400585332341
0.036,-1.203705091778757,5906.640927773444
0.04,-1.217140450239786,5897.51024487353
0.044,-1.2119399720596387,5901.528563011167
0.048,-1.1916907967982742,5890.56619644378
0.052,-1.1627935159308314,5904.428536237644
0.056,-1.1324835437778473,5894.496792807007
0.06,-1.1071426491390342,5894.936573532835
0.064,-1.091188012879122,5892.837190085875
0.068,-1.0865407559288804,5901.8796903819375
0.072,-1.092614302576766,5892.496178780148
0.076,-1.1067704149385176,5895.27604022503
0.08,-1.125132768086554,5905.625100941983
0.084,-1.1435602882903801,5908.34683303676
0.088,-1.158570629523915,5894.655650811205
0.092,-1.1680696950507405,5901.336960671421
0.096,-1.1717743845595345,5892.772703238928
0.1,-1.1711865205684746,5896.497987848751
0.104,-1.1690341460236582,5902.004218024793
0.108,-1.1683209144637068,5906.434176912326
0.112,-1.171330186047079,5893.936610308442
0.116,-1.178911885912094,5900.259179772085
0.12,-1.1902136987398961,5905.436735725451
0.124,-1.2029043472330128,5895.7307344299725
0.128,-1.2138670443929556,5903.086721827459
0.132,-1.2201783981698944,5900.966099619555
0.136,-1.2199982038188282,5908.567534879052
0.14,-1.2130159327226941,5902.593492249517
0.144,-1.200368340725976,5903.9857957581125
0.148,-1.1842101773928801,5904.465789513389
0.152,-1.1671762882004133,5897.682338529164
0.156,-1.151864257031061,5902.550761365499
0.16,-1.1403550972971799,5897.788627276497
0.164,-1.1337705293425888,5895.990649875615
0.168,-1.1319401914786498,5907.163409897709
0.172,-1.1333461682741706,5905.434478772604
0.176,-1.1355041847420713,5893.1177267994935
0.18,-1.1357704942441704,5900.456382217356
0.184,-1.1323144919187238,5898.049149605868
0.188,-1.124840121294178,5901.5335374801225
0.192,-1.114713828989555,5897.576744594662
0.196,-1.1044516175460595,5895.642671739197
0.2,-1.0968258203654577,5899.910218518394
0.204,-1.0939626705778653,5906.090126307796
0.208,-1.0967219004301154,5905.869065213672
0.212,-1.1045108266280053,5895.102331871522
0.216,-1.1155452518909106,5901.952050519342
0.22,-1.127433738787149,5898.692862379739
0.224,-1.1378676571263073,5901.072310077214
0.228,-1.1451906112248122,5905.079695893325
0.232,-1.1487004519194894,5897.490355544379
0.236,-1.1486520733859125,5893.956462704633
0.24,-1.1460062657221284,5897.34137409607
0.244,-1.142006864631575,5899.234251265958
0.248,-1.1377238630486872,5897.514842530764
0.252,-1.1337482668486871,5891.357962497127
0.256,-1.1301629822579855,5904.731806188063
0.26,-1.126749057924414,5905.474644090598
0.264,-1.1232505590923465,5906.580601723237
0.268,-1.1195175217596025,5900.796887992985
0.272,-1.1154758241952933,5898.469186201751
0.276,-1.1110373115248238,5894.179473101125
0.28,-1.1061086450657143,5902.535543942761
0.284,-1.1007263548319803,5906.834609894221
0.288,-1.095187850673058,5904.74635083518
0.292,-1.0900500033087481,5908.068534809322
0.296,-1.0859950318948215,5893.605409467652
0.3,-1.0836326150302027,5901.552163321623
0.304,-1.0832814053029354,5900.398789473121
0.308,-1.0847902073181197,5890.090904930999
0.312,-1.0875377749040502,5904.052478445604
0.316,-1.0907071740076577,5899.565655941694
0.32,-1.0936920690143577,5900.326453754973
0.324,-1.0962966103096399,5899.381860653511
0.328,-1.0985075803775313,5899.089169186267
0.332,-1.0999809213439264,5907.242641010151
0.336,-1.0996662200960372,5890.233858018666
0.34,-1.0959578508196202,5899.554368530886
0.344,-1.0874431374840448,5889.800731097185
0.348,-1.0739233075975272,5902.824128873333
0.352,-1.057143698555933,5890.533823376653
0.356,-1.040742403030196,5896.112023202861
0.36,-1.029305919557332,5901.83298111779
0.364,-1.0268948343608983,5906.21502858449
0.368,-1.0356783835222687,5897.661822261548
0.372,-1.055240790021284,5897.422511023069
0.376,-1.082767879707744,5896.64150068584
0.38,-1.1139077387387002,5905.141067228986
0.384,-1.1438588907762985,5911.702701657079
0.388,-1.1682809989163472,5905.332994135014
0.392,-1.1838468530927735,5896.619417553645
0.396,-1.1884708085161266,5904.237645241878
0.4,-1.1813669395694757,5896.5926873559365
0.404,-1.1631233858913461,5897.115312898959
0.408,-1.1359097208392808,5903.785703099345
0.412,-1.103712999258624,5896.664612374717
0.416,-1.0722298291888313,5893.236235062427
0.42,-1.048021397963445,5905.997032370036
0.424,-1.0369404015924315,5902.752848771583
0.428,-1.0424148821768913,5899.65037041178
0.432,-1.0644236426031062,5899.777565746492
0.436,-1.0996697252399084,5893.54750115485
0.44,-1.1428000230185615,5897.298572213764
0.444,-1.188021799007848,5909.596762127421
0.448,-1.2304216768331855,5893.861120578602
0.452,-1.2666127831237153,5892.939351520408
0.456,-1.294742908140674,5895.14664858615
0.46,-1.3141603583179324,5897.462217848227
0.464,-1.3250531768109852,5900.280308300493
0.468,-1.3282092826495904,5902.150387358426
0.472,-1.3248669281988528,5903.316546886981
0.476,-1.3165509556393689,5886.840357459181
0.48,-1.3048113509290942,5899.67797179728
0.484,-1.2908842920062091,5899.116180557528
0.488,-1.2754368063776478,5890.22109894944
0.492,-1.258579853676519,5898.361150934465
0.496,-1.2401641031158153,5894.385938449902
0.5,-1.220160021808623,5896.46386925174
0.504,-1.1988729072018716,5904.208569814904
0.508,-1.1768880121532066,5903.992981838652
0.512,-1.1548413453377158,5902.239171574271
0.516,-1.1332051446261409,5900.178747207032
0.52,-1.1122321232028645,5898.507853262977
0.524,-1.0921153815385183,5898.184836057128
0.528,-1.0733433507593464,5901.409931903322
0.532,-1.0571035612039206,5901.116536232061
0.536,-1.045430734756376,5901.402261755991
0.54,-1.040806344977845,5898.173969746111
0.544,-1.045227354591339,5899.264576073122
0.548,-1.0591519140115153,5907.359687870063
0.552,-1.0808643855602094,5897.275418530968
0.556,-1.1066123137996704,5898.930768451694
0.56,-1.1315056962032193,5899.36972494952
0.5640000000000001,-1.1508222237958794,5899.922939571811
0.5680000000000001,-1.161219085120371,5898.145570187981
0.5720000000000001,-1.1614736172248625,5897.219846962463
0.5760000000000001,-1.1526130864355861,5900.767709894276
0.58,-1.137482423656889,5897.963686148237
0.584,-1.1199040293183238,5901.067330083826
0.588,-1.1036414102972933,5905.966242891291
0.592,-1.091429123295104,5906.713986553933
0.596,-1.0843655438916742,5898.468532234564
0.6,-1.0818824737237718,5900.406921160902
0.604,-1.0822649459295917,5901.46897647973
0.608,-1.0834496759145131,5892.506848136113
0.612,-1.0837583991366706,5900.219066581745
0.616,-1.0823189609059638,5893.6075008122325
0.62,-1.0790850487990848,5892.03287681821
0.624,-1.0745156609161657,5891.051810785655
0.628,-1.0690840512543582,5905.806213082244
0.632,-1.0628318328026494,5906.358409768475
0.636,-1.0551737068949842,5891.910033099603
0.64,-1.045090292544601,5902.791630209932
0.644,-1.031695325327254,5904.843412726715
0.648,-1.0149679957256263,5901.840054886561
0.652,-0.996326992737838,5891.306449883433
0.656,-0.9787699885563714,5895.617406276868
0.66,-0.9664666776030084,5902.667926819877
0.664,-0.9638815859642945,5898.126761598309
0.668,-0.9746468453357541,5910.444010005459
0.672,-1.0004728085745183,5908.6041018680535
0.676,-1.040385291007135,5900.216472063808
0.68,-1.0905422437874615,5899.366358241035
0.684,-1.1447960609638987,5897.168394775602
0.6880000000000001,-1.1959715407417129,5892.244557703376
0.6920000000000001,-1.2375306015284178,5888.212416739496
0.6960000000000001,-1.2650504546448667,5902.411949087637
0.7000000000000001,-1.2769622237719906,5907.070598480055
0.704,-1.2743299630015752,5900.608806855274
0.708,-1.2598917702533805,5899.04217410161
0.712,-1.2368572360446008,5899.085979731167
0.716,-1.2079591933176044,5890.2920514613925
0.72,-1.175074017811695,5909.994506342808
0.724,-1.1394450290148874,5888.665599151232
0.728,-1.102258453070884,5893.6735989757335
0.732,-1.0651823482582592,5900.343820997597
0.736,-1.0305725835879154,5903.761762786035
0.74,-1.0012822375425787,5909.346583200494
0.744,-0.980210558969383,5894.672999400767
0.748,-0.9697848647475072,5903.61128498882
0.752,-0.9714920364956139,5906.7997055920905
0.756,-0.985484240474255,5892.473660390099
0.76,-1.0102802463328906,5908.017856166524
0.764,-1.0426558703090272,5905.958112560381
0.768,-1.0778837790947404,5898.164843757232
0.772,-1.1104639849404703,5897.940223474112
0.776,-1.1353329071533607,5892.138980796534
0.78,-1.1492778299746245,5897.362443903328
0.784,-1.1520432138196623,5897.422523654602
0.788,-1.1465889666405007,5892.8819194258485
0.792,-1.138260681497573,5908.352540923216
0.796,-1.1331212647559328,5891.929467061643
0.8,-1.1360556339991896,5903.117060017506
0.804,-1.1492933171922315,5904.427020160502
0.808,-1.171773098502726,5889.079197373499
0.812,-1.1994856682259005,5902.71081949423
0.8160000000000001,-1.2266502410813982,5896.426889729683
0.8200000000000001,-1.2473326563011908,5889.267150438366
0.8240000000000001,-1.2570004230320604,5898.73801674117
0.8280000000000001,-1.253605235367399,5891.448040031052
0.8320000000000001,-1.2380008078262905,5899.884787028976
0.836,-1.2137039178412683,5899.695168706764
0.84,-1.1861038795815564,5901.165983580816
0.844,-1.161242625630712,5906.298739116141
0.848,-1.144356308868681,5897.192889795818
0.852,-1.1385378915045237,5889.834201182355
0.856,-1.1439751136364849,5899.571325019975
0.86,-1.1580654817354803,5903.406330632974
0.864,-1.1763645809023051,5891.180452422592
0.868,-1.1939882377141204,5899.462211245861
0.872,-1.20693697293536,5901.210753443661
0.876,-1.2129021734017207,5903.530739195705
0.88,-1.2113818049629541,5899.351756338918
0.884,-1.20324325163827,5902.240027368122
0.888,-1.1900626605876254,5889.793453414443
0.892,-1.173538246756539,5890.468821696927
0.896,-1.1551082565180792,5902.170450684906
0.9,-1.1358053494548919,5903.362177937151
0.904,-1.1163668470514974,5897.939457343197
0.908,-1.097544435344485,5892.772162764311
0.912,-1.080417203366617,5911.452521564429
0.916,-1.0664817154149546,5898.589697098022
0.92,-1.057428720014742,5895.83248912125
0.924,-1.0546791751578473,5893.757595139026
0.928,-1.058831602631609,5898.023532633444
0.932,-1.069202367458124,5901.038957613012
0.936,-1.0836521272959903,5896.839695078986
0.94,-1.0988349511551585,5907.6322282294905
0.944,-1.1108782031511584,5904.975889193548
0.948,-1.1163691448326167,5898.025131367522
0.952,-1.1134007364768077,5905.565421696305
0.956,-1.1023129114885928,5892.043168719528
0.96,-1.0857689457643755,5893.944294383925
0.964,-1.068037047416491,5904.406139018705
0.968,-1.0537028285270265,5899.386389161795
0.972,-1.0462792408508677,5893.34216433373
0.976,-1.0471855727237596,5905.725693945428
0.98,-1.0554132727220282,5899.907100925118
0.984,-1.0679862043347679,5900.847731178028
0.988,-1.0810604679805373,5895.68219198838
0.992,-1.0912385976339116,5899.530252216585
0.996,-1.0965843513769324,5896.389236653969
1.0,-1.0970235653437403,5902.441606136387
1.004,-1.0941299390154522,5895.57689248504
1.008,-1.0904880223252693,5907.948820850462
1.012,-1.0888732764119224,5898.865329694441
1.016,-1.0914852204237728,5902.302589870384
1.02,-1.099430991147981,5898.804963352645
1.024,-1.112547757480785,5900.947819534214
1.028,-1.1295185025739116,5906.951044522319
1.032,-1.1481782191578829,5899.661355950465
1.036,-1.165937088296852,5896.393072407771
1.04,-1.1802661779950536,5901.568485768742
1.044,-1.1891465713761278,5884.778152399693
1.048,-1.1913476296983352,5900.708567058541
1.052,-1.1864613536179283,5899.273840739439
1.056,-1.1747464918360904,5899.468428285518
1.06,-1.1569166839046836,5910.5195474363545
1.064,-1.1339925790715126,5898.015954459231
1.068,-1.107273311618407,5903.993346124135
1.072,-1.0784066495559201,5893.091634994731
1.076,-1.0494637858427127,5894.9798023286485
1.08,-1.022906609367622,5905.302615819232
1.084,-1.001406471528056,5901.843610968439
1.088,-0.9875624851944964,5893.859494462402
1.092,-0.983577004365839,5897.8419086574
1.096,-0.9908911400515888,5903.122803742144
1.1,-1.0097786523512844,5903.779827960006
1.104,-1.0389946593325785,5893.035892698974
1.108,-1.075676396761056,5894.196618158551
1.112,-1.115664404423082,5904.515315066387
1.116,-1.1542421793633726,5902.221741230916
1.12,-1.187089250191435,5897.306862836419
1.124,-1.2111368154577034,5901.084070702231
1.128,-1.2250704626923632,5899.356493894167
1.132,-1.2294010611302755,5895.755971376478
1.136,-1.2262015652146192,5901.479097391602
1.14,-1.2186685934029333,5902.762903116648
1.144,-1.210598163765454,5900.255965984303
1.148,-1.205765286451665,5897.559567758152
1.152,-1.2071970856604959,5896.060253695368
1.156,-1.2164563955599652,5902.642906953112
1.16,-1.2331759107965485,5907.743449937782
1.164,-1.255038493060651,5894.544974461985
1.168,-1.2782005398055145,5892.426383206912
1.172,-1.297995923141306,5909.587917420529
1.176,-1.3097626443465529,5905.945114646237
1.18,-1.309716073792787,5901.798550221797
1.184,-1.2958045806483216,5910.034670868472
1.188,-1.2683962998364258,5906.743567482781
1.192,-1.2305507501541124,5901.360547312186
1.196,-1.1876464111187173,5902.589451654976
1.2,-1.1463211582131725,5900.085647775395
1.204,-1.1129705442997417,5897.845194718208
1.208,-1.0922701132388635,5898.282893004356
1.212,-1.0861935644064407,5901.291597012801
1.216,-1.0938004460441317,5903.988142783699
1.22,-1.1117933816006373,5898.759325999179
1.224,-1.1355865832807948,5902.778681693916
1.228,-1.1604621572104366,5897.2002535925
1.232,-1.1824374178619699,5898.706351468311
1.236,-1.198708866938938,5902.038237644489
1.24,-1.2077539242452824,5902.749765383667
1.244,-1.2092119015977956,5898.605950512763
1.248,-1.203623979682755,5893.298318164184
1.252,-1.1921099096560428,5901.946081011561
1.256,-1.176078415256881,5903.879782278079
1.26,-1.1570513995619842,5894.517680863082
1.264,-1.1366293464533639,5899.237511930585
1.268,-1.1165581739144201,5897.4899534262
1.272,-1.0987908828792876,5898.828105016482
1.276,-1.085398914152687,5898.914941268686
1.28,-1.0782295179412935,5899.541818855534
1.284,-1.0783594035200006,5901.339023385086
1.288,-1.085585764398447,5903.424431395582
1.292,-1.0982537973323752,5907.850229025802
1.296,-1.1135725831470848,5895.010135984342
1.3,-1.1283342026679462,5894.978528624285
1.304,-1.1397705827688729,5912.07453102297
1.308,-1.1462198408988389,5903.587926212792
1.312,-1.1473572319857976,5903.148323994823
1.316,-1.1439581788877846,5907.458144440381
1.32,-1.1373745378221172,5901.228650077349
1.324,-1.128999797728276,5896.501691062321
1.328,-1.1199778966392744,5891.91793508647
1.332,-1.111281195737451,5903.713493236088
1.336,-1.1040371884717868,5897.003088753358
1.34,-1.0997777728120381,5896.651729479313
1.344,-1.1003348271491469,5899.491851236735
1.348,-1.1073724683366333,5893.900933140562
1.352,-1.121791967552693,5897.251059348026
1.356,-1.1433135151407197,5901.638717470391
1.36,-1.1704195508185606,5899.372586975664
1.364,-1.200623976396957,5900.440589499268
1.368,-1.2308711286552836,5900.45888093229
1.372,-1.2578919177481034,5896.38412338444
1.376,-1.2785012349650218,5892.645670991234
1.38,-1.2899246836762241,5904.854427980735
1.384,-1.290188920734593,5899.315456664484
1.388,-1.2784963555423536,5894.931284866519
1.392,-1.255469859391205,5898.701271529003
1.396,-1.223189672127042,5900.01991197998
1.4,-1.1849860802174317,5901.686117095754
1.404,-1.1450009539553396,5895.726110327623
1.408,-1.107600834547351,5901.265138254329
1.412,-1.0767758661083917,5897.619074077084
1.416,-1.055652328912351,5911.150011344126
1.42,-1.0461729893445333,5896.441187759387
1.424,-1.0489135586609621,5898.566209601368
1.428,-1.0630144096892207,5900.845014775755
1.432,-1.086312601200319,5903.609001343629
1.436,-1.1157723099065637,5897.727016151307
1.44,-1.1481262446786167,5893.852787176876
1.444,-1.1804529016761303,5898.333986135252
1.448,-1.2104649260108045,5890.723393336952
1.452,-1.2365125834459965,5896.487223431805
1.456,-1.257466911267066,5898.083681554776
1.46,-1.2726291163795307,5889.399691210459
1.464,-1.2816961129124833,5906.888216654571
1.468,-1.2847156676328857,5902.787298013052
1.472,-1.2819525621562822,5898.147825211128
1.476,-1.2736632680453608,5899.384961919737
1.48,-1.2598948642035546,5899.659745888639
1.484,-1.240493070477457,5910.365342021511
1.488,-1.2154272465027307,5899.351711139748
1.492,-1.1853250082090305,5888.895001653424
1.496,-1.1519236197903684,5901.41603065678
1.5,-1.1181561618271816,5901.129648196046
1.504,-1.0877688122998899,5900.515159864446
1.508,-1.0645552372214198,5911.383239693883
1.512,-1.051413813615847,5898.901476979278
1.516,-1.0495095900993212,5905.827311143178
1.52,-1.0578647044706133,5899.819389474931
1.524,-1.0736221285755663,5894.528786856261
1.528,-1.0929457546167503,5899.990747637895
1.532,-1.1121518389271132,5895.644231236015
1.536,-1.128521086394202,5897.022253633416
1.54,-1.14049759570248,5897.517740771235
1.544,-1.1474360412513718,5904.689145676359
1.548,-1.1493142190601857,5900.964609060592
1.552,-1.1467132231689359,5902.928103681223
1.556,-1.1410472302420218,5903.800856747297
1.56,-1.1347628951931477,5900.004804974389
1.564,-1.131188543217347,5899.927740239502
1.568,-1.1339084110605078,5897.778814845943
1.572,-1.1458223380792771,5908.007802203322
1.576,-1.168220405946448,5900.815615065631
1.58,-1.2001648163043959,5899.95227224852
1.584,-1.2383167958606975,5894.162450667898
1.588,-1.2772344365761432,5900.221904213965
1.592,-1.3101635742080444,5894.811486996505
1.596,-1.3303472148096438,5895.17959147957
1.6,-1.3327310233722705,5901.820617411786
1.604,-1.3156325780553464,5904.052522693495
1.608,-1.2816947713612203,5901.164151747302
1.612,-1.2375355180977226,5903.210997323466
1.616,-1.191985335758517,5886.367337643432
1.62,-1.1534452199870198,5896.426765323584
1.624,-1.1273611796832006,5892.864603980429
1.628,-1.1148146076945435,5900.177858236282
1.632,-1.112726871906671,5905.472099222852
1.636,-1.11546097129,5894.628403127421
1.64,-1.1170713031279198,5904.609860468462
1.644,-1.1133230339392923,5893.08347206123
1.648,-1.1028512571956646,5900.182233297976
1.652,-1.08725248183771,5905.6331873275785
1.656,-1.0702486869179646,5895.941821663947
1.66,-1.0562572295983117,5894.465487063496
1.664,-1.0488318387149798,5895.931234005919
1.668,-1.049521078398625,5904.169218274314
1.672,-1.0575653761604602,5900.0152025088855
1.676,-1.0704647996128027,5896.282981143013
1.68,-1.0850299505209042,5903.1999847337065
1.684,-1.098382359309297,5895.613700672942
1.688,-1.1085404264478667,5892.501053490138
1.692,-1.114513774950629,5911.103559375732
1.696,-1.1160587071399861,5896.581952081644
1.7,-1.1133497769723781,5911.275001450499
1.704,-1.106772011062742,5895.039159321316
1.708,-1.0968881514343591,5904.113257278943
1.712,-1.0845052902960903,5914.25585665237
1.716,-1.0707182764002956,5893.341392194216
1.72,-1.0568403192062377,5904.235485609977
1.724,-1.0442433002574436,5902.62020712935
1.728,-1.0342534300694386,5891.868846011833
1.732,-1.0282323289597088,5900.967634242226
1.736,-1.0277907508703628,5900.318879303423
1.74,-1.0348988155550387,5891.179037871286
1.744,-1.0516359054423632,5899.13172989941
1.748,-1.0794931491736428,5898.299801613308
1.752,-1.1184170275434135,5903.724137551115
1.756,-1.165988270814734,5894.870811427907
1.76,-1.2171155483338705,5901.695471144079
1.764,-1.2644406706318039,5895.495490348289
1.768,-1.2994711322050116,5897.973155608881
1.772,-1.3143167848094095,5900.960242872981
1.776,-1.3037329067776493,5901.972109824171
1.78,-1.266979307962822,5904.813368853464
1.784,-1.2089336192954274,5904.569905719409
1.788,-1.1400369475525496,5904.364428162734
1.792,-1.0749421388856546,5894.797479242089
1.796,-1.0300284420052355,5889.741719598808
1.8,-1.0201375413386795,5896.06519442181
1.804,-1.0550037674931083,5894.314850347171
1.808,-1.1359532211594714,5908.159960476434
1.812,-1.2534665928501534,5902.200232063806
1.816,-1.3860633682955592,5901.271319490659
