时间(s),电压(V),幅值(高频80K)
0.0,-1.5417576784664508,5901.4109862461255
0.004,-1.4676111509349192,5903.435796100814
0.008,-1.3937222349353535,5898.059292968167
0.012,-1.3214453286559482,5903.918192239251
0.016,-1.2538207403657433,5897.573222542137
0.02,-1.1959768882160378,5900.740665870139
0.024,-1.1544835200559116,5895.98263440463
0.028,-1.135512172707697,5894.024746537133
0.032,-1.142469081665827,5905.103995600706
0.036,-1.174212801328578,5899.578653406025
0.04,-1.2247017986225706,5898.806597894035
0.044,-1.2841855761041183,5905.478089234421
0.048,-1.3414086585156506,5889.003491298117
0.052,-1.3860472030788962,5901.039032429662
0.056,-1.4106665944138401,5903.438981862108
0.06,-1.4117502868774172,5902.863113423065
0.064,-1.3897560832052809,5897.293391019864
0.068,-1.3485301132493324,5893.544641001105
0.072,-1.2944802758924532,5901.462168180538
0.076,-1.23564070840378,5885.134509301613
0.08,-1.1804684395335663,5904.465999233068
0.084,-1.1362812312585597,5901.193231813748
0.088,-1.10765607577385,5899.762069439952
0.092,-1.0954036063292512,5891.613975559899
0.096,-1.096557381360342,5901.807805042235
0.1,-1.1053583789174117,5899.871498795332
0.104,-1.114901412975432,5899.013381837818
0.108,-1.1190519468190308,5896.11783927419
0.112,-1.1142332078715202,5896.692390524037
0.116,-1.1005849032452344,5904.555148627715
0.12,-1.0819525875950764,5898.881548538853
0.124,-1.064477136527338,5905.127886918099
0.128,-1.0542341888228153,5895.811280969344
0.132,-1.0549409489818007,5904.353442779784
0.136,-1.0666919717994883,5897.323723452989
0.14,-1.0860908986657443,5898.730859735698
0.144,-1.1075551592518902,5894.3615025964245
0.148,-1.125301850344368,5897.455450703956
0.152,-1.1354128163893575,5898.075501869255
0.156,-1.1372544475349808,5899.156585611807
0.16,-1.1336023836850928,5893.079865564284
0.164,-1.1293311716068797,5897.246206894099
0.168,-1.1292507215694847,5894.17009752925
0.172,-1.1361076193915467,5899.984883223211
0.176,-1.1496426507418684,5893.31646106692
0.18,-1.167004040810368,5899.921560964754
0.184,-1.1841318672465897,5907.512120844437
0.188,-1.197381325384211,5898.979373841644
0.192,-1.2047812492195094,5897.04655288063
0.196,-1.2066591046369342,5900.312226096116
0.2,-1.2055611453341608,5892.263614958265
0.204,-1.2054477623038926,5904.294918031009
0.208,-1.2103129800820998,5894.516119293157
0.212,-1.2227226960726703,5897.018932234918
0.216,-1.242935512254841,5901.870412312077
0.22,-1.268959366073271,5896.089472378894
0.224,-1.2973475599172266,5899.115512027973
0.228,-1.3242508661595136,5909.78591787754
0.232,-1.3463380187342227,5905.945492020775
0.236,-1.3614072689503074,5909.287231498315
0.24,-1.3686472650268375,5907.015339098995
0.244,-1.3685725690410273,5904.292135337406
0.248,-1.3626872971655324,5894.206403367741
0.252,-1.3529509419914354,5900.334816114748
0.256,-1.3411791209031632,5907.056477536509
0.26,-1.3285858962050985,5906.452714271649
0.264,-1.315681628695384,5901.822956280541
0.268,-1.3026304124070849,5900.640241518055
0.272,-1.2899476798986154,5903.927798972115
0.276,-1.2791644307847672,5899.676702042062
0.28,-1.2729705552659674,5899.884041619728
0.284,-1.274503948860445,5904.2056977589145
0.288,-1.285856572408683,5906.066091712282
0.292,-1.3063807597711525,5911.458874272996
0.296,-1.3317023829262347,5899.907089277756
0.3,-1.3541466886871085,5888.392249888422
0.304,-1.3646080130884553,5900.034236036745
0.308,-1.355243958543505,5898.443171333708
0.312,-1.322111121262183,5901.267350782059
0.316,-1.2669211445856006,5903.485850068445
0.32,-1.1973474926422916,5900.428605455202
0.324,-1.1257169160546094,5899.272091102015
0.328,-1.0663598669734473,5896.815388034469
0.332,-1.0322274685101973,5889.971237193136
0.336,-1.0315889430269791,5897.631775946502
0.34,-1.0656954056489287,5902.859410589507
0.344,-1.1281424483743827,5895.27888938149
0.348,-1.2062418377961606,5896.877740305847
0.352,-1.284116472057953,5904.615222606645
0.356,-1.3466572666144223,5900.6610878695055
0.36,-1.3831755521535394,5893.510373640546
0.364,-1.3897203671554177,5906.641900163593
0.368,-1.3695293433156774,5902.107515863084
0.372,-1.3316708360559604,5897.380475547783
0.376,-1.2883802368844581,5911.423404438792
0.38,-1.2518460805321332,5902.347078776152
0.384,-1.2312960841073908,5893.992371860309
0.388,-1.2311090209260238,5895.860662346566
0.392,-1.2502701297549892,5902.27134725706
0.396,-1.2830052516496868,5891.353368434259
0.4,-1.3202450828619603,5901.264672368476
0.404,-1.3516996184178267,5899.800661161472
0.408,-1.368349505080409,5893.497425864159
0.412,-1.3648710846354488,5905.278514007111
0.416,-1.3412233736129542,5899.039112841876
0.42,-1.3027340602864714,5906.832351535597
0.424,-1.2585416289563431,5899.429348156202
0.428,-1.2188953544005638,5900.953508255132
0.432,-1.1922626501093783,5901.203879460899
0.436,-1.1832236728418,5900.014130062724
0.44,-1.1917399278770575,5895.213305413364
0.444,-1.2138206200645076,5906.033865034448
0.448,-1.2431748125226298,5905.970262903466
0.452,-1.2732234612441102,5894.455009350154
0.456,-1.2988175756211167,5894.552815739822
0.46,-1.317174960747382,5896.463653995425
0.464,-1.3278889254602313,5899.790312079929
0.468,-1.3322089131463946,5903.154247106904
0.472,-1.3319644440397227,5897.777424603679
0.476,-1.328511456086278,5890.525223834685
0.48,-1.32203644919194,5905.164933408521
0.484,-1.3114560736084593,5899.587209801588
0.488,-1.2949388765858345,5894.647190883712
0.492,-1.2708256821627488,5902.20630285276
0.496,-1.2385832043038454,5905.247631568936
0.5,-1.1994307658615346,5896.962427549993
0.504,-1.156383505749733,5910.505538255256
0.508,-1.1136507279265908,5897.623788006966
0.512,-1.0756027043882712,5904.570491539599
0.516,-1.045720534616443,5895.695505747933
0.52,-1.0258953139551827,5896.96622755917
0.524,-1.0162094438689182,5896.377555289632
0.528,-1.0151506389705898,5900.706629071884
0.532,-1.0201492384316762,5899.870804021438
0.536,-1.028273539383935,5900.228047095496
0.54,-1.036840860444738,5903.649431402042
0.544,-1.0437332308441298,5905.148906466548
0.548,-1.0474220314119835,5896.162138986002
0.552,-1.0469776195913993,5903.688262448128
0.556,-1.0423846393741054,5900.785807025064
0.56,-1.0351358992241355,5901.871984396677
0.5640000000000001,-1.0285781075078237,5902.8908408715415
0.5680000000000001,-1.0273494663645901,5895.067055046081
0.5720000000000001,-1.0357570286839217,5903.143985056817
0.5760000000000001,-1.0557701366815873,5912.965645976094
0.58,-1.085760858004843,5888.288892223436
0.584,-1.120783257874891,5897.4878671482165
0.588,-1.1543196999502274,5906.18228999372
0.592,-1.1806797517880052,5905.3113403902735
0.596,-1.197009577108601,5906.856470521926
0.6,-1.2041090570170716,5902.480807366329
0.604,-1.2057616340234674,5896.0296684669365
0.608,-1.2069127136096198,5901.982239781625
0.612,-1.2115663516137736,5894.103761968317
0.616,-1.221373742942301,5890.679939733286
0.62,-1.2354414468104054,5896.950008133619
0.624,-1.2512098321978464,5894.463844974803
0.628,-1.2658001741509002,5905.278686298172
0.632,-1.27717212883955,5896.171922048034
0.636,-1.2846480276454149,5900.362620491096
0.64,-1.2887011849800498,5895.370313287531
0.644,-1.2902680639876827,5901.3175717662825
0.648,-1.290052633295922,5905.332337684696
0.652,-1.2881923546794463,5904.970320892801
0.656,-1.2843403053491291,5905.609047488903
0.66,-1.2779705420854923,5901.766084524451
0.664,-1.2686930371830494,5903.917491442587
0.668,-1.2564629267420995,5897.973316371365
0.672,-1.2416441241660539,5898.550402413738
0.676,-1.2249588147668558,5886.983984407997
0.68,-1.2074408808399022,5903.200406238948
0.684,-1.1904965503237357,5907.128593363035
0.6880000000000001,-1.1760045902728626,5905.78540332228
0.6920000000000001,-1.1662177543580492,5904.547264782051
0.6960000000000001,-1.1632572807228485,5901.38316948092
0.7000000000000001,-1.1682487043898995,5904.502760155936
0.704,-1.1804620612490628,5893.325263689096
0.708,-1.1969680321085971,5898.031090795825
0.712,-1.2131695899367383,5895.469761278421
0.716,-1.2241507918348975,5904.697061831856
0.72,-1.2263215577831776,5892.445224761407
0.724,-1.218636401662139,5896.201930364547
0.728,-1.2028653158597913,5895.463880455789
0.732,-1.1828441213775918,5898.834080170507
0.736,-1.1630701685946017,5904.562070728827
0.74,-1.1472461401632805,5903.102996559257
0.744,-1.137304908422596,5894.483303315837
0.748,-1.1331313745255243,5890.807549016672
0.752,-1.1328875365720434,5906.794059570292
0.756,-1.1337452819013785,5892.519409824625
0.76,-1.1328598476616047,5899.377377294816
0.764,-1.1283843245771965,5904.896562090129
0.768,-1.1202247402734533,5906.1728640418105
0.772,-1.1102446014341532,5903.603247200675
0.776,-1.1018437735632909,5901.961940012941
0.78,-1.0991041110883162,5903.6276269049085
0.784,-1.1057901921850821,5899.695537566448
0.788,-1.1244148838009258,5896.90242062984
0.792,-1.155493281741598,5896.190141670815
0.796,-1.1970942849505815,5909.127904976048
0.8,-1.2448092623539277,5900.750927853013
0.804,-1.2922443732014162,5905.030473285522
0.808,-1.3320852770571625,5898.3818389434255
0.812,-1.3576354934422112,5904.74661029538
0.8160000000000001,-1.3644843524580739,5906.784580993519
0.8200000000000001,-1.351778159351009,5904.295043166845
0.8240000000000001,-1.3226615296332649,5899.756060199719
0.8280000000000001,-1.2837727358991067,5893.329889007175
0.8320000000000001,-1.2439491014204367,5901.183198244095
0.836,-1.2124096513809297,5910.000206315439
0.84,-1.196737540344418,5903.0102901852815
0.844,-1.2010801868063874,5901.568479957666
0.848,-1.2250645251465129,5897.047939474071
0.852,-1.2638317110813129,5894.930520126229
0.856,-1.3092631634550453,5897.221510501184
0.86,-1.3520399487322636,5894.166604233859
0.864,-1.383879637687241,5902.120827557326
0.868,-1.3992719824979383,5899.8148777965525
0.872,-1.3962865256410093,5904.191885825321
0.876,-1.3764120329940692,5902.350185130916
0.88,-1.3437074057157887,5901.684191772959
0.884,-1.3036691131502884,5899.816979408769
0.888,-1.2621537187476244,5895.287713588422
0.892,-1.2245192200864834,5902.454720731469
0.896,-1.1949851007548362,5901.264133180588
0.9,-1.176161769811372,5904.008718734881
0.904,-1.1687496440199996,5888.577269816972
0.908,-1.17144159377109,5901.4625666285065
0.912,-1.1810623891777956,5902.450267497892
0.916,-1.1930190899888597,5903.26917367935
0.92,-1.2021460392000103,5897.143684107274
0.924,-1.2038702847166491,5903.949903777924
0.928,-1.1954015618689446,5907.536261642004
0.932,-1.1765921829499333,5898.062404958143
0.936,-1.1502127266108793,5898.83254166855
0.94,-1.1214949901863658,5899.8825520540695
0.944,-1.096915499776235,5902.831595260656
0.948,-1.082448917790933,5891.271663877905
0.952,-1.081838180602427,5902.350024700606
0.956,-1.0955480940322122,5890.665016613401
0.96,-1.1208290035843111,5900.856851731288
0.964,-1.1528142870377236,5898.038571828811
0.968,-1.1861071852104697,5901.617141027078
0.972,-1.216175303797551,5903.707330030063
0.976,-1.2401180836898533,5902.535843856025
0.98,-1.2567849321775868,5898.949609864292
0.984,-1.2665240834753406,5898.486091698442
0.988,-1.2708638853329222,5904.6071836405
0.992,-1.2721853987672287,5892.553280615698
0.996,-1.2732008881544714,5897.24932304544
1.0,-1.276113353366359,5901.974309352532
1.004,-1.2816878560007627,5905.015852981764
1.008,-1.2887626644473542,5894.907752938498
1.012,-1.2946187556505522,5894.128406755887
1.016,-1.2961204852215558,5894.996212987207
1.02,-1.2910413133619487,5892.100443920026
1.024,-1.278911874573308,5900.453770976799
1.028,-1.2610845038041396,5902.98977423861
1.032,-1.2401487531544835,5896.762665900798
1.036,-1.219052198777769,5900.451041979872
1.04,-1.2002689017101265,5896.801209299008
1.044,-1.1852596559978494,5908.344950426967
1.048,-1.174353391083464,5889.606889445997
1.052,-1.1670297068642137,5896.616402065594
1.056,-1.1624055224188365,5888.204756810265
1.06,-1.159602647501339,5899.958842475421
1.064,-1.1577212135302168,5900.042239540507
1.068,-1.1554211711302789,5909.411432030995
1.072,-1.1504803703421898,5898.74546432538
1.076,-1.139877451334034,5899.626361389425
1.08,-1.1207326573811933,5903.075876697103
1.084,-1.091864636960435,5897.631738810509
1.088,-1.0551434853828865,5907.228148568629
1.092,-1.0157376254642807,5900.84313955454
1.096,-0.9809368733532271,5898.226284142244
1.1,-0.9580667308422046,5898.735051617212
1.104,-0.9524482718127034,5904.70026978316
1.108,-0.9661715473760756,5901.561270008723
1.112,-0.997935304957904,5898.07748509978
1.116,-1.0437558090049062,5906.565199756971
1.12,-1.0981273502321878,5887.791553913419
1.124,-1.1552173765823457,5898.611138314293
1.128,-1.209838001666813,5906.632926123872
1.132,-1.258124861746007,5912.813402645523
1.136,-1.2979174086092378,5903.923926470586
1.14,-1.3287922843840803,5900.897195695613
1.144,-1.351753768643664,5896.229443395469
1.148,-1.368744237028872,5901.075253134842
1.152,-1.3821490598485728,5907.947825566554
1.156,-1.3942795952782185,5906.511415943404
1.16,-1.4067301880862944,5894.444753477011
1.164,-1.4197111495567565,5905.490156511061
1.168,-1.4317263678040326,5898.696044993145
1.172,-1.43994054048231,5907.790373291272
1.176,-1.4412211641115658,5910.655969627712
1.18,-1.433425576850419,5893.932933039626
1.184,-1.4163401772485154,5892.821072065582
1.188,-1.3918522653125989,5906.353114784329
1.192,-1.3633189014010654,5899.28418819419
1.196,-1.3344948874602696,5904.698050816774
1.2,-1.3085814201553934,5902.653118494907
1.204,-1.2877907039761687,5902.570829671968
1.208,-1.273379504398457,5899.862915885587
1.212,-1.2657753375731138,5899.993034492306
1.216,-1.264497815334042,5901.494710564706
1.22,-1.2679328311850548,5902.643800410976
1.224,-1.2732742091420735,5904.718220821351
1.228,-1.2768811430850968,5900.180756249841
1.232,-1.2750198436853475,5891.025312802949
1.236,-1.2647626930315283,5902.904047625653
1.24,-1.2448361716042453,5896.175077130846
1.244,-1.216278724529477,5904.138066121253
1.248,-1.1827260182432109,5898.00724958319
1.252,-1.1500451655277615,5893.842664601157
1.256,-1.1251078502081817,5898.798558059476
1.26,-1.1138617669955035,5898.257168002544
1.264,-1.11935690378381,5895.581526163709
1.268,-1.1406011474962732,5896.18771552036
1.272,-1.1728289799083482,5902.356078594018
1.276,-1.2091234107443898,5903.23064419368
1.28,-1.242694004929831,5901.197508551896
1.284,-1.2688239256732126,5901.122484575391
1.288,-1.2857095657988433,5900.929930926797
1.292,-1.2939825173929298,5893.511130094004
1.296,-1.2953159486537213,5904.888846294377
1.3,-1.2909068395760102,5902.4321821539215
1.304,-1.2806066756995198,5903.88948063026
1.308,-1.2630378205298525,5893.210163060452
1.312,-1.236466767373666,5893.979584615953
1.316,-1.1998895096990432,5897.193571914345
1.32,-1.1538564115846215,5902.80693178222
1.324,-1.100865562016008,5894.208768585003
1.328,-1.045402389750786,5906.091357961093
1.332,-0.9936952527115162,5900.387926139302
1.336,-0.9530603406172401,5901.899946932232
1.34,-0.9306465294182494,5901.502827080805
1.344,-0.9316757340725006,5896.510628912312
1.348,-0.9577223534708019,5894.421711923067
1.352,-1.0057806525522366,5894.156898875503
1.356,-1.0686182799870447,5903.734066764737
1.36,-1.1363783705698685,5894.649163825244
1.364,-1.1989331735608684,5908.812963788293
1.368,-1.2483056214540487,5894.770386591918
1.372,-1.280490372325735,5897.171967860109
1.376,-1.2961386981170444,5900.008723634376
1.38,-1.2998930503433228,5899.637604975499
1.384,-1.2986515957014093,5897.025113928421
1.388,-1.2994141504038543,5896.703852004089
1.392,-1.307350510271601,5888.760170385367
1.396,-1.3244772823574023,5905.176676218742
1.4,-1.3491420549087394,5897.179033356953
1.404,-1.3764356291967845,5901.514360761774
1.408,-1.3994844090581287,5898.329880431729
1.412,-1.4112797163786321,5906.782792553836
1.416,-1.406509498285685,5910.641630584925
1.42,-1.3829309807204109,5902.542081532719
1.424,-1.3420439275903686,5892.92188331682
1.428,-1.2890072769357381,5895.753964839493
1.432,-1.2318497225063216,5894.303126218491
1.436,-1.1801059397812348,5897.779559619674
1.44,-1.1430863747063151,5904.230267283451
1.444,-1.1280618957462742,5904.839776393622
1.448,-1.1387044613657715,5895.323349280369
1.452,-1.1741380427423662,5901.52733594152
1.456,-1.2288817420903326,5896.312884779395
1.46,-1.2937783647788326,5898.106958597477
1.464,-1.3577305912193705,5896.658542046889
1.468,-1.4098504192566168,5897.713071496343
1.472,-1.4415718564417235,5898.629337739919
1.476,-1.4483264667563147,5904.517190274336
1.48,-1.4304296784472499,5893.389380136766
1.484,-1.3929023766290325,5904.354310758469
1.488,-1.3441879029196735,5896.983544831754
1.492,-1.2941105041591698,5900.273927673992
1.496,-1.251716548428426,5891.446935873664
1.5,-1.2236116915673352,5895.399291190306
1.504,-1.2130910419796719,5883.255511859436
1.508,-1.2200179915078293,5901.707730334771
1.512,-1.2412662498620972,5897.058988651559
1.516,-1.2715626734814658,5899.868946589151
1.52,-1.3045538330921367,5897.181915748592
1.524,-1.3338497183180476,5904.179989890487
1.528,-1.353866759974625,5902.145128427927
1.532,-1.3605022357213847,5897.856106734163
1.536,-1.3517542450117512,5907.203837510858
1.54,-1.3282354560476222,5900.425843617357
1.544,-1.2933251613013572,5899.231885972696
1.548,-1.2527077064444603,5897.116639017538
1.552,-1.2132735059355253,5904.055379072745
1.556,-1.1816410986866077,5895.848336095909
1.56,-1.1627129743358713,5892.930710285082
1.564,-1.1586491658453306,5902.661903971337
1.568,-1.1685095386825868,5897.790231126313
1.572,-1.1886610179227277,5897.720659940623
1.576,-1.2138666907603834,5902.900440241631
1.58,-1.2387598327716014,5906.396249445935
1.584,-1.2592353895930868,5891.581096599287
1.588,-1.2732991156362747,5894.885986366422
1.592,-1.281169192548689,5901.068799891681
1.596,-1.284791377267152,5897.38480566058
1.6,-1.2871185707975956,5893.663312123086
1.604,-1.2913948222553813,5903.535473959884
1.608,-1.3004709841171036,5892.825250171811
1.612,-1.3161168875452376,5901.936691221669
1.616,-1.338406474088381,5905.089020177549
1.62,-1.3653873001960848,5900.285940622764
1.624,-1.3932559230358152,5896.067592155825
1.628,-1.4170919844820133,5893.33752867744
1.632,-1.4319418715992036,5900.791226825013
1.636,-1.4338688770028027,5897.686059881127
1.64,-1.4206301527891116,5901.454463650578
1.644,-1.3918790828481542,5896.1236022974335
1.648,-1.3490805806594657,5893.9561740955205
1.652,-1.2954797231721806,5908.302820827751
1.656,-1.2363295458700678,5896.985162116164
1.66,-1.1791979467299678,5903.488518808102
1.664,-1.1338612005530515,5899.736372566321
1.668,-1.1113750955234374,5895.030496838897
1.672,-1.1223106949695267,5899.381051514473
1.676,-1.1744870966762342,5899.704260249221
1.68,-1.270626008640437,5899.702212649893
1.684,-1.406271555165001,5901.846782911999
1.688,-1.5682349881673978,5896.807810170243
1.692,-1.7338338981535608,5899.243565495369
1.696,-1.8712975639037854,5902.863789049509
1.7,-1.9418457348821891,5899.713851802307
1.704,-1.9039731785597749,5908.405414887518
1.708,-1.720151357010604,5900.324901491138
1.712,-1.3653513399677517,5904.147953051429
1.716,-0.8356693852439628,5893.626382085618
1.72,-0.1543600508294399,5904.417538393902
1.724,0.6276622255711998,5909.114950260102
1.728,1.438721137447017,5892.1961585155095
1.732,2.199963554332326,5907.085925031884
1.736,2.8417877463936443,5920.51057155307
1.74,3.3176457301723454,5934.762399351263
1.744,3.6109797229916256,5935.663681250599
1.748,3.734205112503887,5955.410966487662
1.752,3.7215259867481305,5959.265687330924
1.756,3.6186547492684147,5973.36053712873
1.76,3.472373545770339,5993.725583112057
1.764,3.3220698471713455,5987.701073822877
1.768,3.194454590459541,6008.910606243487
1.772,3.101845168202704,6010.359857240439
1.776,3.0436893094705098,6025.077265869064
1.78,3.0104154698640113,6029.55406146404
1.784,2.9882946257252816,6031.42020211017
1.788,2.9639481502036973,6043.77885733187
1.792,2.9275492948681165,6054.026586126392
1.796,2.874445836090016,6075.660119169005
1.8,2.805402104481306,6077.417383470784
1.804,2.725710258989004,6078.796525780712
1.808,2.6433791567648424,6087.960817831962
1.812,2.5667866059397317,6093.488383419269
1.816,2.5024253807437007,6102.100093521399
