时间(s),电压(V),幅值(高频80K)
0.0,-1.1825057655886637,5895.057522599638
0.004,-1.174836594526587,5904.264090813221
0.008,-1.1695946819573741,5900.098865564387
0.012,-1.1686996926685658,5898.858391435181
0.016,-1.1731086474456685,5902.749619634359
0.02,-1.182861766651696,5898.9262402739605
0.024,-1.1972747381153002,5896.722585158947
0.028,-1.2151167021242053,5898.213644724985
0.032,-1.2347657725197267,5898.060304706498
0.036,-1.254354704560442,5899.124505169478
0.04,-1.2718712627801732,5905.215729121223
0.044,-1.2852158534723783,5894.458338768665
0.048,-1.2923131506317314,5895.311414919273
0.052,-1.29139980339563,5900.422562691776
0.056,-1.2815089121635708,5905.217210879452
0.06,-1.2629816472476023,5905.591800524648
0.064,-1.237713748587033,5900.338011174213
0.068,-1.2089483622573332,5899.8668489763495
0.072,-1.1806752936940665,5907.337629673249
0.076,-1.1568337650768719,5900.37972870725
0.08,-1.1404678522027418,5897.7417360280415
0.084,-1.1329526751104564,5897.616773980637
0.088,-1.1335420592368508,5898.535688940974
0.092,-1.1396064343932866,5892.123537376963
0.096,-1.1477202742049626,5902.528363808252
0.1,-1.1552197217239688,5899.560529380803
0.104,-1.1614206329906964,5898.372025949826
0.108,-1.167809175388869,5899.154689126142
0.112,-1.177133034143125,5899.965932301344
0.116,-1.1919322749295262,5908.303948475232
0.12,-1.2132443493341674,5895.668189240436
0.124,-1.2400011251825165,5905.9153471964655
0.128,-1.2692610904937962,5902.4230093504375
0.132,-1.2970813645303734,5899.559787411789
0.136,-1.319611549469796,5895.714640947709
0.14,-1.3339604337477735,5899.10950121903
0.144,-1.3385830749058405,5891.054650893972
0.148,-1.3332404653515297,5901.344760928887
0.152,-1.3187757718239834,5902.237585014078
0.156,-1.2969119585529854,5903.527200244911
0.16,-1.2701013335522937,5901.092753400546
0.164,-1.2413257928550387,5904.523826362816
0.168,-1.2137385724620426,5893.717267977209
0.172,-1.1901361878482672,5892.696584605788
0.176,-1.1724017342645379,5902.090292497967
0.18,-1.1611859848445818,5899.277432932808
0.184,-1.1560658941005466,5893.643864462136
0.188,-1.1561643848064056,5902.410707410188
0.192,-1.1608759149131607,5894.4515921382745
0.196,-1.1702207281899988,5900.148772451319
0.2,-1.184554607507276,5903.132479332199
0.204,-1.203728128686141,5899.485628199532
0.208,-1.22615157527157,5893.938028535267
0.212,-1.2484181060090602,5900.938751780422
0.216,-1.265928325802467,5892.631879689388
0.22,-1.2743550569363213,5904.984338568846
0.224,-1.2712585520755848,5895.700911760041
0.228,-1.2571377638020185,5908.9486906439
0.232,-1.2355699596923042,5898.977286127
0.236,-1.2124513416202607,5900.464975233847
0.24,-1.1945445206615974,5903.353230483967
0.244,-1.187676232646828,5901.609596892688
0.248,-1.1950636784014976,5901.810009219276
0.252,-1.2162700315290274,5897.786689384658
0.256,-1.2471406417842816,5899.596619982809
0.26,-1.2808317937988045,5907.76173624864
0.264,-1.309762787809097,5889.425468488566
0.268,-1.327977949939465,5907.518127847474
0.272,-1.3330931322004937,5898.26436673528
0.276,-1.3269763098821235,5906.902657842948
0.28,-1.3147485172884477,5898.109847624662
0.284,-1.3024516828234738,5892.3026830299705
0.288,-1.29439835472004,5907.719863417548
0.292,-1.2913811159047788,5899.896189377038
0.296,-1.2904795468229227,5900.615690884698
0.3,-1.286450484698827,5900.6666656684265
0.304,-1.2740426278007915,5903.2959842571
0.308,-1.2502904833357564,5910.153188255554
0.312,-1.2159442711459836,5890.775095729094
0.316,-1.1755847082930697,5898.829361829856
0.32,-1.136480065477229,5897.978170029394
0.324,-1.1066460615635787,5897.765502087775
0.328,-1.092712071894611,5897.164683057892
0.332,-1.0980995753085154,5903.190563264546
0.336,-1.1218535462623642,5903.182342010814
0.34,-1.1583996723118974,5900.683999783615
0.344,-1.1984805864614874,5894.734873973891
0.348,-1.2313141646338341,5908.572000820658
0.352,-1.2475307408819638,5900.906320427868
0.356,-1.2419558586303814,5902.080319480473
0.36,-1.2151982283924612,5892.443312430484
0.364,-1.173413415074713,5904.678549381186
0.368,-1.1263313317438999,5900.570565520033
0.372,-1.084295263478567,5900.963677463572
0.376,-1.0553733578469666,5900.570443650399
0.38,-1.0434731950753238,5888.922313398496
0.384,-1.0479309010633082,5897.555700619133
0.388,-1.0645021676565327,5898.39972567332
0.392,-1.0872569253200923,5899.303023769613
0.396,-1.1106438070918372,5902.046921086661
0.4,-1.1309709720698942,5900.6904270012055
0.404,-1.146816307804253,5894.621990530769
0.408,-1.158421545601502,5903.497531880981
0.412,-1.1666643814870232,5905.374028723475
0.416,-1.1723255018203462,5895.861999864333
0.42,-1.1759508428302548,5902.2443941922365
0.424,-1.1780459594425328,5894.350209997889
0.428,-1.179157829678278,5897.126794787143
0.432,-1.1796750347499907,5896.907189370943
0.436,-1.1795197384960605,5902.309949466226
0.44,-1.177990076334147,5897.463002236614
0.444,-1.173880602351124,5906.056996153656
0.448,-1.1658698411010038,5903.862084391338
0.452,-1.1531012291145597,5899.578045397991
0.456,-1.1358200169109538,5899.432569307017
0.46,-1.1158247668747698,5898.134654737286
0.464,-1.0964508754097053,5893.7085438290405
0.468,-1.0819252885906323,5901.531792175532
0.472,-1.0761882784624692,5896.716405300896
0.476,-1.0815589963578705,5894.507473651234
0.48,-1.0977793706531738,5900.413333485199
0.484,-1.1218696010000901,5900.004876406847
0.488,-1.1488915198190535,5911.979824674943
0.492,-1.173360660438007,5904.5841630286
0.496,-1.1908514168950208,5900.312149662615
0.5,-1.1992869573198075,5902.524574422403
0.504,-1.199457297183716,5904.894147078894
0.508,-1.194529378910008,5896.445913714589
0.512,-1.1887051841841847,5894.250071822733
0.516,-1.1855661250751561,5890.81717747201
0.52,-1.1867868947187032,5908.800970288487
0.524,-1.1917145193274,5899.297974048439
0.528,-1.1978866461250914,5897.773217455673
0.532,-1.202154084100302,5893.544131391281
0.536,-1.201899087531182,5909.618048160256
0.54,-1.1959247951153127,5901.061758830151
0.544,-1.1847975437230396,5902.79988098707
0.548,-1.1706353118289934,5906.138646467492
0.552,-1.1564930149663923,5900.480429512675
0.556,-1.1455537424070381,5905.628390269941
0.56,-1.1403111059317996,5895.228952668781
0.5640000000000001,-1.141911363425294,5914.298668873511
0.5680000000000001,-1.1498442847798698,5896.434182532251
0.5720000000000001,-1.1621408645457,5900.623812314088
0.5760000000000001,-1.1760813160453774,5899.580019827786
0.58,-1.1891850652756166,5896.308242262432
0.584,-1.2000769018792203,5912.663542253208
0.588,-1.2088426747261876,5894.563912447459
0.592,-1.2167416406235168,5896.92286839109
0.596,-1.2254681279311617,5905.018289657453
0.6,-1.236326455764949,5895.981067208503
0.604,-1.249638548278046,5908.647843338532
0.608,-1.2645365343149482,5893.555694184728
0.612,-1.2791032897412251,5894.059670301089
0.616,-1.2906940238688058,5902.756769615697
0.62,-1.2962840834644402,5896.309207500116
0.624,-1.2928431510067915,5901.953681499358
0.628,-1.277879010037773,5902.508550039267
0.632,-1.250231586013316,5906.543641846679
0.636,-1.210939814390838,5887.750713695104
0.64,-1.1637921599223209,5895.423785998803
0.644,-1.1152002290727825,5900.631673057532
0.648,-1.0732672590881707,5900.423130691706
0.652,-1.0462112057597903,5910.146838092103
0.656,-1.0405197706826084,5899.425464833944
0.66,-1.059297481326848,5904.655520453785
0.664,-1.10122664562212,5897.390942595296
0.668,-1.1604446690001484,5898.458424719273
0.672,-1.2274601775347083,5897.615004020367
0.676,-1.2910093928205015,5909.119977622416
0.68,-1.3405065224580148,5901.820065732867
0.684,-1.3685042648591752,5905.508882497677
0.6880000000000001,-1.3724638625975356,5902.445343214837
0.6920000000000001,-1.3552474215874124,5907.132701272916
0.6960000000000001,-1.3241002367687662,5903.6641028093645
0.7000000000000001,-1.2884017705838389,5905.664213576918
0.704,-1.2569320809556224,5905.139076968108
0.708,-1.2355661751610596,5900.752594715502
0.712,-1.2260674506668083,5902.919679188992
0.716,-1.226178498064725,5897.037089497564
0.72,-1.230794376152662,5895.657320424814
0.724,-1.2337893096309753,5899.009249731557
0.728,-1.2299805265437773,5904.014896377727
0.732,-1.2166710569806956,5900.310734713956
0.736,-1.1942800116673362,5900.147814901799
0.74,-1.1658502822018026,5892.761658982239
0.744,-1.135686485352649,5908.764406143366
0.748,-1.107788862315578,5898.292795070406
0.752,-1.0848112698337742,5902.743459311726
0.756,-1.0678912881524343,5897.914605579455
0.76,-1.0571479919134819,5899.467430883204
0.764,-1.052330582390908,5896.236801005715
0.768,-1.0531943445293401,5900.124309470078
0.772,-1.0594917162962378,5899.091698929691
0.776,-1.0707240287453483,5900.564053345727
0.78,-1.0858938785525496,5910.871081943561
0.784,-1.1034476025797064,5897.751892723223
0.788,-1.1214653684603997,5896.715839962389
0.792,-1.1380391782048516,5908.982556483861
0.796,-1.1517223588832264,5898.2278786840125
0.8,-1.16189528510209,5902.875571189548
0.804,-1.1688655093395903,5904.907242956112
0.808,-1.1735879824339444,5902.964334008268
0.812,-1.1770922454506598,5899.063544015441
0.8160000000000001,-1.1799284506393544,5890.837340627311
0.8200000000000001,-1.1819907356221049,5896.034142405189
0.8240000000000001,-1.1828465706395628,5893.562530367461
0.8280000000000001,-1.1823501099749116,5895.759559092001
0.8320000000000001,-1.181134378937208,5903.065455510142
0.836,-1.1806846050014128,5902.2370349905
0.84,-1.182957320439803,5894.816361749952
0.844,-1.1897252406129006,5893.806763598703
0.848,-1.2018998795085598,5902.950761638977
0.852,-1.2190283576857897,5894.477484325132
0.856,-1.2390756610797373,5901.109393033211
0.86,-1.2585810331107317,5898.04779311645
0.864,-1.2732728042541293,5903.972917576904
0.868,-1.2791181990578844,5908.200048900052
0.872,-1.2735675650416634,5896.254166367664
0.876,-1.2565658048734645,5902.535653533537
0.88,-1.2309061024288903,5897.452926893078
0.884,-1.2017294590983683,5901.611948670952
0.888,-1.175290588200896,5895.894847933556
0.892,-1.1573419107152196,5891.398911739824
0.896,-1.1515925925147101,5901.7585836666885
0.9,-1.1587117287236448,5899.984538951744
0.904,-1.1762257571199468,5895.848657072099
0.908,-1.1993706222389537,5893.707034370353
0.912,-1.2226027337538687,5901.736977916204
0.916,-1.2412292655021757,5906.593162057133
0.92,-1.252593305441901,5904.494034023507
0.924,-1.2564569297794559,5892.96234795881
0.928,-1.2545893880787762,5893.576842231178
0.932,-1.2498941082542474,5899.899590503676
0.936,-1.2454965614365718,5892.861468980963
0.94,-1.2440408243804586,5901.28242587778
0.944,-1.2471931656580166,5911.490918687701
0.948,-1.255265687243938,5899.510707939135
0.952,-1.2669991813607542,5899.458783556266
0.956,-1.27967400805217,5905.018858993903
0.96,-1.2896477202166061,5903.869518408136
0.964,-1.29319698723294,5892.34670503513
0.968,-1.2873706607744,5901.910840755676
0.972,-1.270560537223474,5901.378354803805
0.976,-1.2426530175217205,5903.201258165993
0.98,-1.2048555862395753,5906.57232023735
0.984,-1.159466126868032,5906.03747510115
0.988,-1.1098230851537698,5888.135572016679
0.992,-1.0604088507880236,5908.046200918549
0.996,-1.0167807258934014,5903.638206738442
1.0,-0.9849708247606004,5898.050676459927
1.004,-0.9703002897384025,5905.412347920372
1.008,-0.9759621108051192,5894.907079426582
1.012,-1.0019467163020486,5903.79955077605
1.016,-1.044783719823375,5887.222116257633
1.02,-1.0982197286495232,5906.506851346848
1.024,-1.154553074653515,5894.908805600694
1.028,-1.206135761904389,5896.360137963163
1.032,-1.2466348013682582,5898.256958870986
1.036,-1.271900964430114,5905.685143145839
1.04,-1.2804851734414056,5900.496715493831
1.044,-1.2738347932091763,5895.621990306244
1.048,-1.2560663684245599,5895.313055751595
1.052,-1.2331536430121213,5893.974062428467
1.056,-1.2115436973970422,5901.422179990891
1.06,-1.1965379861031138,5901.606336304414
1.064,-1.1909824150463824,5898.145996511451
1.068,-1.194735094855728,5899.335070046523
1.072,-1.2050766945760947,5902.597852495486
1.076,-1.2178480543070869,5893.99217642545
1.08,-1.228823583141808,5903.391624560739
1.084,-1.2348171279847762,5907.607264107755
1.088,-1.2342531217497805,5904.678464203349
1.092,-1.227212068014318,5908.084641789721
1.096,-1.2150983185014024,5893.868596739393
1.1,-1.2000884819702415,5897.763275430198
1.104,-1.184510478140887,5900.965293779237
1.108,-1.1703246321253709,5892.823416178169
1.112,-1.1588754500968033,5901.1091041948
1.116,-1.1509782449176627,5903.086031818614
1.12,-1.1471994356575086,5899.335918836772
1.124,-1.1480255266260218,5911.204066995651
1.128,-1.1536856172230956,5902.561668394982
1.132,-1.1636990795488054,5896.777881309972
1.136,-1.1765065357440794,5902.70377116291
1.14,-1.189537906258798,5900.255732129427
1.144,-1.1997752433560913,5894.5216315388425
1.148,-1.2045523560309424,5894.2029629024655
1.152,-1.2022513766667988,5905.418366201457
1.156,-1.1926951557717156,5898.932633795448
1.16,-1.177211364408428,5890.648310733025
1.164,-1.1584384096259488,5903.939707975028
1.168,-1.1399453896534304,5899.1043012385935
1.172,-1.1257056043398592,5907.983665087358
1.176,-1.1194720403566518,5901.786880436234
1.18,-1.124150646933342,5903.941998481933
1.184,-1.1412607486128075,5908.321079248944
1.188,-1.1705029813161318,5895.179700753539
1.192,-1.2094641453831356,5893.216353526384
1.196,-1.2536248284633846,5899.137092753543
1.2,-1.2968950736839504,5898.5891790467385
1.204,-1.3327019611443736,5893.982748440495
1.208,-1.3553327094466496,5892.3173502343225
1.212,-1.3610860512661245,5888.988212278558
1.216,-1.3488875090049826,5896.315762219505
1.22,-1.3202611134649014,5893.874579643907
1.224,-1.2787817367995917,5900.63357489158
1.228,-1.2292501687691177,5898.136201693832
1.232,-1.1768039463770403,5904.274504627218
1.236,-1.1261105845890258,5911.357825058795
1.24,-1.0807973499185723,5896.78455838578
1.244,-1.043277673723289,5904.049159216935
1.248,-1.0150016300862776,5898.764860795181
1.252,-0.9969228228609058,5908.315438366145
1.256,-0.9898187802936896,5897.60963525642
1.26,-0.9941826800135268,5899.647814404232
1.264,-1.0097277776665272,5893.048868864312
1.268,-1.034884559086826,5894.399409770062
1.272,-1.06670420807644,5898.501416063211
1.276,-1.1012882429009911,5906.109661490287
1.28,-1.1345675994059863,5899.219556056941
1.284,-1.1631661511906686,5906.154634265913
1.288,-1.1850895750035109,5906.930164392718
1.292,-1.1999852572637586,5897.032739646761
1.296,-1.208844799388052,5903.121780666465
1.3,-1.2133103447955125,5895.388276211653
1.304,-1.2149735481903539,5897.0297132823525
1.308,-1.2150082779109863,5906.393505778376
1.312,-1.214219623611794,5903.705516020547
1.316,-1.2133414305558703,5892.533223679136
1.32,-1.2133135434089188,5900.709060334241
1.324,-1.2153312412130595,5897.966653182373
1.328,-1.2206202496158673,5898.245898292122
1.332,-1.2300502244355893,5896.175180587512
1.336,-1.2437624799785985,5899.460085924364
1.34,-1.260931019385692,5894.5593570136025
1.344,-1.2796816658807115,5903.896823304928
1.348,-1.2971725503567513,5901.346161272328
1.352,-1.309888129141137,5899.716558768396
1.356,-1.3141976873234396,5910.031816010251
1.36,-1.307116990527665,5905.951459595718
1.364,-1.287089452403072,5902.523745037712
1.368,-1.2545937215459662,5903.247739696623
1.372,-1.2124707034466433,5898.069079283902
1.376,-1.1659299630014746,5889.096500245577
1.38,-1.1221784248657514,5905.742953216464
1.384,-1.0895705115122398,5894.509521954529
1.388,-1.0762263319286258,5900.067880944466
1.392,-1.0882467680757408,5896.649346908298
1.396,-1.1278921419782173,5894.849911736992
1.4,-1.1922620841152303,5896.507392155278
1.404,-1.2730237019300412,5900.136754864769
1.408,-1.3575361011137714,5894.236192522832
1.412,-1.43131912086777,5896.2764533654135
1.416,-1.4813037584038973,5904.636028612097
1.42,-1.498909310979298,5900.130930493197
1.424,-1.4819843202730978,5905.385945588604
1.428,-1.4350628758712167,5897.775498262632
1.432,-1.3679829471916094,5900.620097899644
1.436,-1.293407783312668,5898.815892907555
1.44,-1.2240241389812965,5892.637857039252
1.444,-1.170130368390837,5909.3056316984375
1.448,-1.1380628913291608,5903.611167604708
1.452,-1.1295903421449787,5897.886471647887
1.456,-1.1421644186769075,5895.097691053702
1.46,-1.1698320555959418,5902.932781564405
1.464,-1.2046329334486996,5899.155999148025
1.468,-1.238280403007682,5898.254838847151
1.472,-1.263818781456138,5905.686357576419
1.476,-1.2769020766888626,5893.971609139655
1.48,-1.276433860753856,5900.74592157082
1.484,-1.2644793298278096,5902.3829596341
1.488,-1.2455337082820335,5906.050060219628
1.492,-1.22537356518817,5896.022631618198
1.496,-1.2097710341822296,5899.32245130364
1.5,-1.203292524911235,5900.170193224242
1.504,-1.208327649600374,5895.159550938256
1.508,-1.2244967990487046,5910.27929169978
1.512,-1.2486197836714494,5910.488119762424
1.516,-1.2753644386689353,5904.295749409956
1.52,-1.2985069372912306,5897.743319073993
1.524,-1.3125345421233792,5903.781531830161
1.528,-1.314186561481007,5898.986067519161
1.532,-1.3034650733830284,5894.918251858511
1.536,-1.283722468328449,5888.283687538741
1.54,-1.2607210198518752,5896.102654902535
1.544,-1.2409369651508908,5906.704474578443
1.548,-1.2296322762811007,5904.705484089393
1.552,-1.2292734280543818,5893.124183503684
1.556,-1.2387812257488993,5897.745551711288
1.56,-1.2538691086875269,5901.414304962818
1.564,-1.2683932000830316,5904.4272591788485
1.568,-1.2762890897816215,5894.9131485612015
1.572,-1.273451530828997,5896.856390676566
1.576,-1.2589342157650154,5901.844566025302
1.58,-1.2351075871763812,5896.63586654313
1.584,-1.2068044791678392,5907.8187853151785
1.588,-1.1798396638825157,5904.679967094742
1.592,-1.1594536979092807,5899.758237711077
1.596,-1.1491464180528896,5896.0318802956135
1.6,-1.1501070819892967,5900.981910240903
1.604,-1.161180539486704,5886.655052316997
1.608,-1.1792037091394794,5900.092160358966
1.612,-1.19964509415414,5899.067822794662
1.616,-1.2175961951503564,5895.4627443342215
1.62,-1.2290579031441722,5899.608485600732
1.624,-1.232169423053057,5901.133925510057
1.628,-1.2278621332876316,5903.594987860476
1.632,-1.2196064410265919,5898.151419192066
1.636,-1.212322291837649,5897.096193557558
1.64,-1.2108624962102248,5901.5207401028165
1.644,-1.2185889102806797,5891.934438056993
1.648,-1.2364282716525354,5895.574498605015
1.652,-1.2625424516556825,5898.024710846463
1.656,-1.2925888618643835,5904.768266798207
1.66,-1.3205558603472614,5900.727753241995
1.664,-1.3401674931369691,5894.146085166727
1.668,-1.3466592326052427,5902.322012511119
1.672,-1.3383753162979237,5905.640165391879
1.676,-1.3174583236694708,5886.814948591376
1.68,-1.2891916469224258,5891.393939076281
1.684,-1.260204827066001,5905.6345251704015
1.688,-1.2362999718756527,5894.003640531885
1.692,-1.2207420251504204,5897.122791300313
1.696,-1.2135061347803928,5902.523375097323
1.7,-1.2115278643224683,5904.485842047261
1.704,-1.2097683375898445,5903.666778615118
1.708,-1.202864282292138,5902.471301960207
1.712,-1.1870229179179008,5895.526512782488
1.716,-1.1615962936944342,5904.874432602275
1.72,-1.1297117627230888,5904.297235681135
1.724,-1.0976455599438681,5909.213596973146
1.728,-1.073143148023081,5906.549173525617
1.732,-1.0632808484997123,5909.527822529344
1.736,-1.0725301753898167,5901.966893350595
1.74,-1.1014842366014148,5900.352515154991
1.744,-1.1464450707338445,5893.259416054942
1.748,-1.1999072107932367,5901.947431568925
1.752,-1.2518950475944308,5905.340489674345
1.756,-1.2920133724580707,5897.013906793238
1.76,-1.3119046175856188,5906.180365087504
1.764,-1.3076513824703522,5892.220478650451
1.768,-1.281587488161278,5902.975722576191
1.772,-1.2429356522498365,5899.2798223458285
1.776,-1.2066794251211022,5901.281076986129
1.78,-1.1902986248840113,5893.852978715774
1.784,-1.208608824386879,5901.574678729106
1.788,-1.2677704120298592,5900.067927343834
1.792,-1.3601414857082519,5899.400483740003
1.796,-1.461723471593483,5896.018811242967
1.8,-1.5334957593055678,5905.451742155051
1.804,-1.5271294665140998,5904.597147361341
1.808,-1.3945311336762707,5906.273254659528
1.812,-1.0995260849404433,5899.72329685101
1.816,-0.6290090293907175,5903.13579761124
