时间(s),电压(V),幅值(高频80K)
0.0,-1.3474150089936399,5896.83017689554
0.004,-1.4507556399275265,5905.027312735287
0.008,-1.5390987829102067,5904.512254079032
0.012,-1.5998117712294102,5901.194832356039
0.016,-1.6256983773851021,5899.566903118801
0.02,-1.6159166452730083,5897.011213092473
0.024,-1.5753041771336294,5898.853414337574
0.028,-1.5125960977136121,5897.393203188698
0.032,-1.438364729715618,5897.255182811132
0.036,-1.3633956640487102,5899.049025700334
0.04,-1.297666543951092,5899.2942565622825
0.044,-1.249584333998552,5904.488691868966
0.048,-1.2251485255946264,5910.455094758669
0.052,-1.2271276029694806,5899.168583599138
0.056,-1.2546124131580374,5902.278478356186
0.06,-1.3031755120402322,5898.967421999142
0.064,-1.3655691966620438,5897.353000397359
0.068,-1.4327520363636876,5902.939340816269
0.072,-1.4950726515809531,5900.975782170017
0.076,-1.5435257033178043,5899.279946917
0.08,-1.5710201380555655,5902.165376060909
0.084,-1.5735175671403316,5895.373961961789
0.088,-1.5507810800901787,5899.293761909241
0.092,-1.5064837494734526,5886.493298925204
0.096,-1.4476127296947414,5911.804333018223
0.1,-1.383322553196924,5894.062502347863
0.104,-1.3234657253172943,5893.116339922086
0.108,-1.2769752980370932,5895.4526192714775
0.112,-1.2502716708303674,5898.574685090352
0.116,-1.2459880892729733,5892.355976709751
0.12,-1.2624126215326832,5899.51643872269
0.124,-1.293966237829074,5905.387836126865
0.128,-1.3327530804212415,5903.918775172813
0.132,-1.3708069327253949,5909.480115652414
0.136,-1.402278879390745,5890.879503793365
0.14,-1.4247311264857865,5903.758312757461
0.144,-1.4390988520254244,5902.739434666944
0.148,-1.4485437222457693,5900.47269552643
0.152,-1.4568522129616919,5902.907391622873
0.156,-1.4669826792141978,5902.025562332659
0.16,-1.4800813354914488,5904.340814472659
0.164,-1.4951139893514531,5906.866211489168
0.168,-1.5092183882603756,5905.1461865937845
0.172,-1.5187553186840996,5895.437400868989
0.176,-1.5207492521043013,5899.538038903732
0.18,-1.5141595848551048,5895.571823434127
0.184,-1.5004600805529091,5900.218566453608
0.188,-1.4833521785790784,5900.703096512942
0.192,-1.4678363997296713,5892.988999520079
0.196,-1.4590102097231339,5909.479303614408
0.2,-1.4608555487603012,5897.693778594153
0.204,-1.4752031349680277,5899.771180703113
0.208,-1.5011260263066033,5890.987897081353
0.212,-1.5350160676554798,5909.0130046648965
0.216,-1.571373391864133,5902.378014737545
0.22,-1.6040440318548308,5899.723632748862
0.224,-1.6275205753075987,5904.330803422415
0.228,-1.6380055845775183,5907.849551755645
0.232,-1.63407187909979,5899.325426747156
0.236,-1.616821248066348,5904.580006033876
0.24,-1.5894836765762062,5900.694233711277
0.244,-1.5565266625062566,5905.717417962196
0.248,-1.5225442399712195,5905.373083885876
0.252,-1.4912990942749593,5900.929907465326
0.256,-1.4651979165186546,5891.274055081644
0.26,-1.4452623935167015,5909.126558180743
0.264,-1.4314537372064442,5902.588136568446
0.268,-1.4231249652524065,5904.775857545666
0.272,-1.4194270450021966,5907.004617838553
0.276,-1.4195900435160167,5902.268827784955
0.28,-1.4230542697491235,5898.563492411986
0.284,-1.4294616136381595,5907.041025941604
0.288,-1.4385821531811454,5895.001661259958
0.292,-1.4502847461624098,5902.900539333491
0.296,-1.4645638858837133,5907.843636335597
0.3,-1.4814912317222433,5902.948633185753
0.304,-1.5009862474704505,5901.188337208051
0.308,-1.5225130732338952,5900.9249188370295
0.312,-1.5449553147657946,5898.637181655506
0.316,-1.5668117334301996,5899.475322410388
0.32,-1.5866078698697739,5906.945434627362
0.324,-1.6032797885742553,5903.049986148085
0.328,-1.6163638530753306,5899.593604125882
0.332,-1.6260087276964768,5893.329894561964
0.336,-1.6329229749377514,5898.009863271495
0.34,-1.6383063720594007,5899.635183535374
0.344,-1.6436820303157516,5895.262506126411
0.348,-1.6505171189656027,5897.307112053788
0.352,-1.659648846065354,5903.860800318154
0.356,-1.6706948363397527,5899.656656003779
0.36,-1.6816830026137104,5891.536162937254
0.364,-1.6890960361343137,5902.136077254772
0.368,-1.6884662277805165,5896.093720796932
0.372,-1.6755557932374168,5911.0299939145625
0.376,-1.6479291067176356,5902.3226930459
0.38,-1.606411106955154,5896.329548330675
0.384,-1.5557638381376162,5902.3370155080165
0.388,-1.504087429750103,5918.705163938764
0.392,-1.4609164980199678,5899.83557618631
0.396,-1.4345482006680066,5894.768975326926
0.4,-1.4295554889953779,5906.601134006086
0.404,-1.445450170072114,5900.223884599586
0.408,-1.4770133062307327,5905.983078242728
0.412,-1.5161421791622898,5897.733461488845
0.416,-1.5544683838658349,5907.362124750236
0.42,-1.5857080128129257,5897.518916632411
0.424,-1.606882753915979,5894.782085736398
0.428,-1.6181363098240942,5898.12600627536
0.432,-1.621511263163466,5893.448185730021
0.436,-1.6194329329535275,5897.10161985327
0.44,-1.6136685466349274,5904.2586275740605
0.444,-1.6051909001060685,5896.229777006426
0.448,-1.594837042929026,5899.343960380046
0.452,-1.5842561672793303,5896.4081286459805
0.456,-1.576555193995597,5908.282964866611
0.46,-1.5761582055603098,5905.971334277718
0.464,-1.5876470951772323,5900.132070592442
0.468,-1.6138294783727523,5905.565911179294
0.472,-1.6538391179769167,5903.494179279035
0.476,-1.7022789793843507,5908.068953524703
0.48,-1.7500022114269604,5901.162025008385
0.484,-1.786336090725944,5888.312230660688
0.488,-1.801918281528606,5913.037185647854
0.492,-1.79116900659531,5900.579573396365
0.496,-1.7537067188040214,5893.167252383067
0.5,-1.6944496996885163,5902.325777668699
0.504,-1.6225037317218434,5907.13580352847
0.508,-1.5491595599572239,5892.442148546529
0.512,-1.4854668625863392,5895.49444858635
0.516,-1.439943092747148,5901.288288495458
0.52,-1.416960570366059,5893.464826113531
0.524,-1.4161777795033808,5902.462627847901
0.528,-1.4330850611320378,5908.390978992811
0.532,-1.460436570104104,5902.314001326525
0.536,-1.4901351575600452,5902.8940833858505
0.54,-1.5150683438779828,5909.687643702007
0.544,-1.5304678115606662,5895.220205912228
0.548,-1.5345436152780223,5904.854157831327
0.552,-1.5283501292474082,5904.850604184401
0.556,-1.5150198918522175,5897.5464710937495
0.56,-1.4986407874707808,5906.872180356115
0.5640000000000001,-1.4831148026796572,5901.916570523806
0.5680000000000001,-1.4712758748403965,5893.143276138515
0.5720000000000001,-1.46439702909988,5896.338736537727
0.5760000000000001,-1.4620945869215498,5901.542299574541
0.58,-1.462603220620019,5896.916603358984
0.584,-1.4634013577781924,5898.060951534524
0.588,-1.4621201931130543,5894.089832550057
0.592,-1.4575459877911316,5895.562607955894
0.596,-1.450387511250252,5901.018845351021
0.6,-1.4434246802050708,5900.704269863333
0.604,-1.4407808285157266,5895.276547084242
0.608,-1.4464191913567055,5901.972179682141
0.612,-1.462414425713083,5906.569863145949
0.616,-1.4877745643049691,5903.357312404877
0.62,-1.5183837588307618,5906.652626464622
0.624,-1.5481277536355509,5898.914779489116
0.628,-1.570755901317619,5900.283318848698
0.632,-1.5817426893238258,5901.595171725292
0.636,-1.5794334802536272,5905.46297825996
0.64,-1.565117693200295,5900.983922063891
0.644,-1.5422118718388527,5902.632048827015
0.648,-1.5151023936991668,5902.676710029632
0.652,-1.4881586932786053,5895.403018732502
0.656,-1.4651164985878091,5894.92968725031
0.66,-1.4487586266174093,5900.074343829911
0.664,-1.4407415002772672,5898.372567497623
0.668,-1.4414733780284943,5897.835957788407
0.672,-1.4500538432423034,5893.992366701843
0.676,-1.4643837115631706,5895.429311994389
0.68,-1.4815930129457948,5892.987049551396
0.684,-1.4988456031301538,5898.35644078223
0.6880000000000001,-1.5143578245195761,5906.277685438411
0.6920000000000001,-1.5282125973749436,5900.380826677465
0.6960000000000001,-1.5424427984797835,5898.277767383994
0.7000000000000001,-1.5600908161182185,5903.786184729393
0.704,-1.58351486190144,5903.315319507409
0.708,-1.612744984051327,5894.298484552906
0.712,-1.6447465763468687,5904.354655555633
0.716,-1.6739673760976996,5913.733645134863
0.72,-1.6938991218364583,5899.459203389388
0.724,-1.6989780319416796,5896.054894576328
0.728,-1.6861248365682948,5901.776179986882
0.732,-1.6555070307105162,5899.643368697387
0.736,-1.61047731996935,5902.757608655508
0.74,-1.5568839520994275,5897.622700210868
0.744,-1.5020271738122972,5898.12366109
0.748,-1.4535397949983795,5906.867912071755
0.752,-1.4183882587822034,5894.592717098078
0.756,-1.4019960226233812,5901.297830784969
0.76,-1.4073527779675161,5901.747854376296
0.764,-1.4340997992670375,5897.594947176932
0.768,-1.4778980810261197,5901.019593715581
0.772,-1.530577671931167,5901.049554963367
0.776,-1.58142002624947,5900.388798000477
0.78,-1.6194972392330464,5903.885948590516
0.784,-1.636496389830246,5893.793277942182
0.788,-1.6291270283805872,5905.175645446348
0.792,-1.6002337700771794,5903.925009256499
0.796,-1.5581476615158585,5904.463107098677
0.8,-1.5144328744365063,5901.986091136986
0.804,-1.4807502133201689,5899.370761721711
0.808,-1.4658296142475447,5899.897924871144
0.812,-1.4734188391440777,5892.586977422319
0.8160000000000001,-1.5016837123000775,5896.5753416384105
0.8200000000000001,-1.5440927073627666,5903.486202071959
0.8240000000000001,-1.5914074394690625,5886.115524187322
0.8280000000000001,-1.634086728092674,5904.569248172223
0.8320000000000001,-1.6643895355644966,5899.48735922668
0.836,-1.6777859419853625,5902.832089522248
0.84,-1.6736473890775352,5899.464189879272
0.844,-1.6552498089806027,5896.979963211706
0.848,-1.6289871255316757,5905.114584750269
0.852,-1.602772992587995,5889.9734519565545
0.856,-1.5840111374372996,5910.752488787142
0.86,-1.5778173409017784,5904.838880394186
0.864,-1.586002619716869,5899.107962533166
0.868,-1.606877416931318,5906.486060003662
0.872,-1.635687542444247,5903.359567464548
0.876,-1.6655636484403316,5901.570364441653
0.88,-1.6889561914886022,5901.754749988116
0.884,-1.6993936362397444,5893.562110388159
0.888,-1.6931455265966857,5903.072230228336
0.892,-1.670241076978937,5890.507765400051
0.896,-1.6344189925368633,5892.402474143341
0.9,-1.5919616656212352,5903.961573914921
0.904,-1.5498417788132175,5899.045273839432
0.908,-1.5138681706055013,5894.046251936814
0.912,-1.4873872677732265,5894.236653999509
0.916,-1.4707846269954927,5901.575135180477
0.92,-1.461816230581664,5903.559679645042
0.924,-1.4566645445604716,5901.024508455988
0.928,-1.451423432183385,5893.64358530022
0.932,-1.443518992842164,5899.324590246567
0.936,-1.432541317220033,5901.069122727587
0.94,-1.4201700072322192,5893.755248684776
0.944,-1.4092505540194677,5896.006843585454
0.948,-1.4024482982221302,5909.1188297612
0.952,-1.4010833490070784,5897.941143217948
0.956,-1.4046479764731195,5902.218069646391
0.96,-1.4111794030706453,5896.980260842364
0.964,-1.4182404966634554,5893.008377449676
0.968,-1.4239701083097775,5900.08810325955
0.972,-1.4277170405090278,5889.176215363504
0.976,-1.4301142750367324,5896.069790470609
0.98,-1.4327658225312687,5897.411371298535
0.984,-1.437777179013355,5902.333762345681
0.988,-1.4472311204454582,5897.679813182519
0.992,-1.4626123504981516,5900.2872934573925
0.996,-1.4842279438466803,5894.658962026441
1.0,-1.5107790997976915,5906.376954978771
1.004,-1.5392942190845598,5900.148099710972
1.008,-1.5655954695201477,5907.4764141985415
1.012,-1.585328780266364,5911.332002445712
1.016,-1.5953331853739137,5888.416168140151
1.02,-1.5948698486489374,5903.204893048475
1.024,-1.5861795743355576,5899.469790425339
1.028,-1.5740742636494278,5913.911777373889
1.032,-1.5646589880010082,5905.497823607094
1.036,-1.5636096047750663,5907.304659168067
1.04,-1.5745540367632205,5897.825742275901
1.044,-1.5980128600698975,5893.529215165339
1.048,-1.6311382196624329,5894.765457207463
1.052,-1.668268724383348,5908.313471095438
1.056,-1.7021624682552479,5900.411800464764
1.06,-1.7256656384307447,5898.465085960417
1.064,-1.7334637555561978,5904.803112380619
1.068,-1.7234577243587643,5897.669865708857
1.072,-1.6973252511821193,5901.871461670796
1.076,-1.6600574773399548,5898.081302919584
1.08,-1.6186131676033746,5906.9515363541805
1.084,-1.5801235824840378,5892.94348243122
1.088,-1.5501911892856046,5910.361209377939
1.092,-1.5317255251292088,5899.268571051479
1.096,-1.5245191771153292,5906.039744853215
1.1,-1.5255620270703134,5905.290117332121
1.104,-1.5300197864357559,5902.705916228554
1.108,-1.5327380894915348,5906.721725119932
1.112,-1.529941386845516,5901.439563842273
1.116,-1.5205798778356283,5908.681806702185
1.12,-1.506771911143733,5901.170072077675
1.124,-1.49309334220381,5905.379701505033
1.128,-1.4849533976341585,5899.071187410583
1.132,-1.4867056158301235,5902.251059789583
1.136,-1.5002259160453737,5899.515895711278
1.14,-1.5244019051073927,5909.238427700586
1.144,-1.5555417327468666,5903.891213900289
1.148,-1.5884104734390383,5899.64875817961
1.152,-1.617521327560543,5904.051425461323
1.156,-1.6383477343074992,5898.8808607828505
1.16,-1.648179333738701,5897.839627479536
1.164,-1.6464253529926982,5896.307805305785
1.168,-1.634339681604128,5901.240433917264
1.172,-1.6143778513798557,5898.757992599255
1.176,-1.5895371537350893,5902.073806830528
1.18,-1.5629407633348564,5906.360780189192
1.184,-1.5376548394798666,5897.818842597575
1.188,-1.5164985821469534,5896.497416871448
1.192,-1.5016354527226723,5903.664783640823
1.196,-1.494000806242692,5906.644112284073
1.2,-1.4928610131815874,5904.497189069307
1.204,-1.4957971877105187,5894.7884060215765
1.208,-1.4992566145683404,5896.257168727438
1.212,-1.4996971838613153,5899.867869255482
1.216,-1.495192937322434,5899.040787402867
1.22,-1.4870510790549853,5898.222126475024
1.224,-1.4806985953536325,5907.61759939711
1.228,-1.4851314818451686,5894.468060972624
1.232,-1.5106170469106348,5894.99087575155
1.236,-1.5648882653596874,5902.982592745318
1.24,-1.6485610231716947,5900.268872136029
1.244,-1.7508653255573634,5903.787358223294
1.248,-1.8470148238253257,5903.917031129343
1.252,-1.8985995465846943,5904.532823619071
1.256,-1.8581089637908375,5905.584362613082
1.26,-1.6778586827987407,5902.860705245463
1.264,-1.3221470171656722,5904.089798400041
1.268,-0.7797569281543351,5897.62148316678
1.272,-0.0727015255664393,5902.150813385335
1.276,0.7427726537343354,5899.872952927373
1.28,1.584939570842393,5882.303100272637
1.284,2.363557967785502,5906.7116042432845
1.288,2.999874805135188,5926.064381589255
1.292,3.4430570308830024,5936.17024074616
1.296,3.678196665673688,5957.213224598146
1.3,3.7246666073839596,5973.631014299201
1.304,3.6269013125966416,5993.856089836311
1.308,3.4414098216469267,6008.064237084374
1.312,3.2239503285338995,6005.130459603108
1.316,3.019783452355966,6035.909628180627
1.32,2.858389610188203,6043.130791433301
1.324,2.7525533496749532,6072.171621289008
1.328,2.700730170333006,6076.046935143968
1.332,2.6913108752355006,6088.644752945087
1.336,2.7075486177959496,6116.596221951159
1.34,2.732128470802228,6128.788647091811
1.344,2.7505913701409255,6142.460386902492
1.348,2.7532331941155315,6149.1368251554295
1.352,2.7355861390567497,6162.33608895022
1.356,2.697864163821251,6175.9972268876245
1.36,2.6437516429392702,6177.178237702572
1.364,2.578832567973585,6199.714122755497
1.368,2.5089569413909225,6217.901880163816
1.372,2.4388994728914457,6217.984115240164
1.376,2.371665491349077,6236.846062524811
1.38,2.308625303173757,6247.63481540551
1.384,2.2503050759605525,6249.582620888707
1.388,2.1973260337746403,6277.427371514503
1.392,2.1509334856075966,6276.51308466712
1.396,2.11284533421241,6289.063712921442
1.4,2.084543351808687,6288.0525083611365
1.404,2.0663710542557943,6306.184539996684
1.408,2.0568478924913878,6309.623877620529
1.412,2.0525518180928937,6316.177091177919
1.416,2.0487610793354865,6332.726319884154
1.42,2.0407299518433306,6339.661270334284
1.424,2.025118592514072,6352.100792766088
1.428,2.000959345306507,6356.585428861212
1.432,1.96973942725216,6362.877452015162
1.436,1.9345863184474965,6377.890074865453
1.44,1.8989401529768493,6387.67618741466
1.444,1.8653096133115614,6395.894297333576
1.448,1.8346190144070622,6400.839363993789
1.452,1.8062966570841614,6405.056078316975
1.456,1.7788710880739624,6416.988385483281
1.46,1.750693031708527,6430.671131576632
1.464,1.720501657668399,6423.569638156902
1.468,1.687719103457077,6438.654509288371
1.472,1.6524612581986868,6448.12838979151
1.476,1.6153300808273814,6456.724155623332
1.48,1.5771519485756467,6464.275406315342
1.484,1.5388690155566904,6463.880241332072
1.488,1.5016658223499104,6472.28590310624
1.492,1.4671882327972394,6473.777980398633
1.496,1.4375957538014161,6481.467891523672
1.5,1.4152683408593147,6488.087137055676
1.504,1.4021570166752202,6496.511515319132
1.508,1.3989277292005406,6503.374797262189
1.512,1.4041904149206572,6502.875194604909
1.516,1.4141623143875937,6519.395920524919
1.52,1.4229926576401586,6511.401547841385
1.524,1.4237549073671039,6524.57690004171
1.528,1.4099512183653056,6531.148862953662
1.532,1.3772495695546663,6531.022376248429
1.536,1.3250027913777775,6539.9460777890745
1.54,1.2570163281416704,6542.613867935412
1.544,1.1812344090518423,6549.3592173599
1.548,1.1083892368309116,6553.026809879638
1.552,1.0499003696273526,6568.964161304774
1.556,1.0153751786311205,6566.641591634608
1.56,1.010165306567746,6563.870767878601
1.564,1.0336413141564633,6576.21597901795
1.568,1.0789117693767027,6582.070088753862
1.572,1.1343627502638853,6570.812495611092
1.576,1.186677116781796,6588.769152958316
1.58,1.2243331418816266,6586.383937939114
1.584,1.2404083588677877,6597.750814288542
1.588,1.2338549827973113,6597.061749713271
1.592,1.2089924527232547,6599.624978580219
1.596,1.1735382086370476,6604.215063534155
1.6,1.1359050212743778,6611.139230191688
1.604,1.1026131999816582,6617.827696470031
1.608,1.076540441974021,6612.1773499329565
1.612,1.0564874551128063,6620.613347502307
1.616,1.0381798817804413,6632.888375198948
1.62,1.0163365238501216,6622.596724532828
1.624,0.9869814363673949,6628.672190060018
1.628,0.949060538022342,6630.03023722873
1.632,0.9047880748483591,6630.139210075918
1.636,0.8587877996559243,6637.937913912986
1.64,0.8165744288931217,6643.373999652763
1.644,0.7829911668672249,6645.622144658137
1.648,0.761013790518358,6652.700205670868
1.652,0.751118461222918,6638.912476236298
1.656,0.7512739703102882,6652.210403717107
1.66,0.7574952484101963,6652.3560608218095
1.664,0.7647876744566904,6661.953667285539
1.668,0.7682863670112048,6658.877379900865
1.672,0.7644053903806829,6670.837759986751
1.676,0.7517623226904498,6661.51381996819
1.68,0.7315996953624239,6661.470926269732
1.684,0.7075316575885535,6677.828251945629
1.688,0.6846637257924387,6677.517093385938
1.692,0.6683052221134166,6677.469908369139
1.696,0.6625892870878067,6678.793721578185
1.7,0.6693814994970566,6684.571265140583
1.704,0.6878223703664289,6675.628976204805
1.708,0.714629213170666,6685.549245224426
1.712,0.7449867268144164,6686.010643713986
1.716,0.7736790185826095,6686.730378964302
1.72,0.7961345434296786,6689.942188789987
1.724,0.8092061207604115,6693.249139837024
1.728,0.8116676765256645,6687.158904596242
1.732,0.8044555022955762,6691.7201001190415
1.736,0.7905806800056824,6706.09013764875
1.74,0.7745171215713078,6700.623415198659
1.744,0.7609484548611503,6701.362653554033
1.748,0.7531320134602248,6694.531245343832
1.752,0.7515679107277661,6701.4003750600095
1.756,0.7536998408622234,6709.023174013514
1.76,0.7548676577025943,6718.465257034311
1.764,0.7500625289731715,6715.512789275421
1.768,0.7357086471519309,6713.82223628839
1.772,0.7108396848748589,6716.4739789955565
1.776,0.6774358250430416,6721.657579693881
1.78,0.6400561888625752,6716.0375599500285
1.784,0.6050421183364485,6711.247809670366
1.788,0.5794579026192737,6718.879954136915
1.792,0.5697727365122937,6725.327400880534
1.796,0.5803107430273822,6727.233712586125
1.8,0.6117454071849876,6714.043035456104
1.804,0.6601881780773152,6725.63624284024
1.808,0.7174480956011542,6725.551778160968
1.812,0.7726868650685731,6720.355984227992
1.816,0.8150697009747467,6734.972004545823
1.82,0.8364548529392689,6722.856229469102
1.824,0.8330733305096153,6724.970081318356
1.828,0.8056606119607415,6733.858496975488
