时间(s),电压(V),幅值(高频80K)
0.0,-1.2295956134173602,5893.279623536261
0.004,-1.2736540024633907,5896.594427027375
0.008,-1.311257605399564,5894.35209454506
0.012,-1.3375628770930872,5899.30706521354
0.016,-1.3512263103875264,5899.002335564444
0.02,-1.3543193589823594,5896.54540866298
0.024,-1.3511280935061947,5898.232039353158
0.028,-1.346492055559682,5912.464463269392
0.032,-1.3443752899266044,5904.413218984365
0.036,-1.3470614093476687,5901.622628053893
0.04,-1.3549691918279334,5903.72491022232
0.044,-1.3668857308067366,5892.600972028379
0.048,-1.3804712791275464,5905.994721230743
0.052,-1.3929808869415878,5905.373642651003
0.056,-1.4020657688838836,5907.181259211918
0.06,-1.4063585297493448,5904.885079421835
0.064,-1.4056029254328106,5897.789725699853
0.068,-1.4004305324169344,5905.230411233935
0.072,-1.392157649965678,5896.2940175646345
0.076,-1.3827945498304408,5895.336803473337
0.08,-1.3749973807057356,5899.40889831022
0.084,-1.3715452589131085,5900.933040566134
0.088,-1.3743297218858677,5891.119910019328
0.092,-1.3833693583652984,5889.725439694025
0.096,-1.3964682829691237,5897.972525978625
0.1,-1.4097554122426885,5895.481006104352
0.104,-1.4188363574263378,5903.905951255482
0.108,-1.420047769565268,5905.034466616028
0.112,-1.4114083624251526,5907.05594161849
0.116,-1.3930871882677962,5901.168310264095
0.12,-1.3673420798471847,5897.346112591848
0.124,-1.3379641014771126,5898.648600010923
0.128,-1.3094205576459537,5900.780153775455
0.132,-1.2860197220956118,5902.786739199666
0.136,-1.2713260746975874,5899.346718761592
0.14,-1.2677887820758251,5896.393833206258
0.144,-1.2764008749085922,5889.788776736206
0.148,-1.2963508647392752,5906.258036560266
0.152,-1.3248934600408644,5892.769419314486
0.156,-1.357727552597261,5890.623140129012
0.16,-1.3899168933105017,5893.284656274851
0.164,-1.4170557159129473,5905.4900811854295
0.168,-1.4362664725746812,5896.507781761534
0.172,-1.4467452514493186,5891.871979351959
0.176,-1.4497450989500538,5901.281598104844
0.18,-1.4479992276222997,5898.140768629009
0.184,-1.444704108707537,5904.900157857253
0.188,-1.442364045222064,5891.300612671916
0.192,-1.4419535769502134,5899.786954509834
0.196,-1.4428100204951526,5905.636138339511
0.2,-1.4433509579771695,5902.548232367673
0.204,-1.4422742369763897,5903.665011535909
0.208,-1.4396309238267553,5896.163920346559
0.212,-1.437236461161906,5903.3325765389145
0.216,-1.438225018659206,5899.767941518341
0.22,-1.4459322497130693,5903.467603870578
0.224,-1.4625253227324155,5894.1946546445815
0.228,-1.4878413199220484,5902.993736847508
0.232,-1.5188141341364492,5903.88672397393
0.236,-1.5497290471228309,5900.0932957785735
0.24,-1.5733312302651263,5898.25500402804
0.244,-1.5825375511072304,5903.762171947544
0.248,-1.572289796568088,5898.106136942278
0.252,-1.5410572890083765,5905.61467026142
0.256,-1.4915866359081957,5902.318096286404
0.26,-1.4306151317342461,5908.658423612199
0.264,-1.367478151037645,5891.296918502303
0.268,-1.3119046828445613,5905.996138343835
0.272,-1.2716499975796045,5901.346643397088
0.276,-1.2507419104814679,5904.423975775234
0.28,-1.2489366142332265,5903.325970412131
0.284,-1.2625262591151103,5899.78446090382
0.288,-1.2860763418797876,5899.760693814256
0.292,-1.3143064150645676,5908.539023961485
0.296,-1.3433780773727029,5904.341815064448
0.3,-1.3712265791151848,5906.839332256935
0.304,-1.3970169995271948,5895.542488498293
0.308,-1.4201405130958171,5896.646720251154
0.312,-1.4392999663870922,5899.901249521474
0.316,-1.4521461286984307,5896.143141954
0.32,-1.4556643612317153,5902.353157724113
0.324,-1.4471639393647093,5901.3651134101065
0.328,-1.4254234038753573,5903.134692319501
0.332,-1.3914613351935947,5897.547209685333
0.336,-1.3486002001079544,5899.014789281825
0.34,-1.3018460398277854,5901.526743665717
0.344,-1.2569016337207448,5897.374603698215
0.348,-1.219224485964095,5906.198297073972
0.352,-1.1934082095423761,5906.801720938527
0.356,-1.1828754356839235,5899.256618103204
0.36,-1.1896219258504939,5896.096351492075
0.364,-1.213784990523718,5905.32204577654
0.368,-1.2531216260680982,5897.799907519536
0.372,-1.3027724005598948,5902.675391015741
0.376,-1.3556932225236862,5897.743171242647
0.38,-1.4038682937233837,5899.426665314588
0.384,-1.440041405820137,5896.083528059767
0.388,-1.459410768807434,5898.123778068749
0.392,-1.460696163959466,5903.14341278864
0.396,-1.4462425044548857,5912.209466238925
0.4,-1.4212208960958246,5902.667240003448
0.404,-1.392308199582717,5901.743972145458
0.408,-1.3662928910585461,5895.033900568854
0.412,-1.348852177065269,5902.459821442889
0.416,-1.3435118715608072,5904.152830983651
0.42,-1.3508197513602633,5897.647375175668
0.424,-1.3679943448897216,5894.439710524905
0.428,-1.3894058449376476,5893.385976209581
0.432,-1.4079703915004664,5889.108365409258
0.436,-1.4170689953215725,5900.689677867118
0.44,-1.4123349062350963,5896.19273003715
0.444,-1.3927814361870199,5896.774627714828
0.448,-1.3610945600819142,5899.389846659176
0.452,-1.3231866690346434,5905.188518266099
0.456,-1.2871740182541291,5901.691508395687
0.46,-1.2619077605995963,5908.781260273613
0.464,-1.2551980973049213,5900.4297300614135
0.468,-1.271964112810948,5907.332508057323
0.472,-1.3127005874803575,5888.915796825677
0.476,-1.372788390439014,5901.197689733941
0.48,-1.4430871478169713,5900.198244829973
0.484,-1.5118301959551408,5902.878172803669
0.488,-1.5673126571529727,5896.7151116253
0.492,-1.600581292783873,5894.648733437929
0.496,-1.6073928689264303,5901.474991478407
0.5,-1.5889450634757023,5901.529022940455
0.504,-1.5512160070604486,5901.333683593321
0.508,-1.5031789796641533,5897.7016632688565
0.512,-1.454514084746189,5895.495715531653
0.516,-1.4134637675168682,5895.040220289264
0.52,-1.3852256197955493,5899.557555244254
0.524,-1.3710737809729916,5890.096404070052
0.528,-1.3683890646943606,5903.127943291519
0.532,-1.3717296438303503,5898.511326643476
0.536,-1.3747545687802745,5897.890900039998
0.54,-1.372350770718919,5891.71318767186
0.544,-1.3621172969537445,5898.244743370503
0.548,-1.3446743234491976,5898.014455106191
0.552,-1.322877557373819,5912.4479318962885
0.556,-1.3004848717946982,5899.035991801337
0.56,-1.2809158588255658,5900.790775136612
0.5640000000000001,-1.2665499417336021,5902.790675138041
0.5680000000000001,-1.2586790587792824,5893.366220181691
0.5720000000000001,-1.2578977859615426,5894.244766528456
0.5760000000000001,-1.2645364445930074,5900.909783645505
0.58,-1.2788262843618012,5904.462184631072
0.584,-1.3007384217108044,5894.774433051857
0.588,-1.3296396456662207,5892.249818662555
0.592,-1.3639519988853854,5899.799143870809
0.596,-1.4009671701153643,5898.074382643231
0.6,-1.4369392811677237,5896.314271161849
0.604,-1.4675476593218386,5900.335013501928
0.608,-1.4887271282641417,5907.051221070241
0.612,-1.4976999310382595,5899.309518267195
0.616,-1.493894349693362,5896.8923979448855
0.62,-1.4793894921783628,5909.386842997742
0.624,-1.4586154384505083,5894.807405407729
0.628,-1.437299779924935,5904.633469402764
0.632,-1.4210285098480797,5891.947098895384
0.636,-1.4139898457236237,5896.933685437454
0.64,-1.4182619846658444,5899.392123764502
0.644,-1.4335926506939218,5890.56534101948
0.648,-1.4574252782234827,5904.568329631158
0.652,-1.4850893822556308,5914.109569522208
0.656,-1.5103292078092316,5904.2139520858045
0.66,-1.526374222172636,5904.291265461934
0.664,-1.527486231141881,5902.103868612069
0.668,-1.5105484906347144,5894.351863152862
0.672,-1.4760810513711902,5897.047481087014
0.676,-1.4282340480470124,5895.276261892117
0.68,-1.3737361471769383,5898.5333899863
0.684,-1.3201948742180503,5905.567702470369
0.6880000000000001,-1.2743311833101985,5892.9374682421085
0.6920000000000001,-1.2406514586032567,5905.337806048936
0.6960000000000001,-1.2208546879100648,5896.668890521009
0.7000000000000001,-1.214059093576774,5901.911122578937
0.704,-1.21770966666168,5901.173189020484
0.708,-1.2287971841405,5902.819683197867
0.712,-1.2448784382144438,5897.150609173743
0.716,-1.264455028848669,5906.875967575374
0.72,-1.2865884434138701,5897.727243181171
0.724,-1.310083777618667,5897.106387907223
0.728,-1.3328520355735711,5900.588213795081
0.732,-1.3519073630757168,5899.947588199938
0.736,-1.364007129615121,5892.747648690386
0.74,-1.366608622184794,5898.776950317565
0.744,-1.3587891403325085,5898.1280732093255
0.748,-1.3418711397237204,5899.018850553495
0.752,-1.3195167293504837,5897.775338820136
0.756,-1.2971006005659058,5896.041086688672
0.76,-1.2804136264598505,5900.573411661888
0.764,-1.2741046754391752,5896.762588674364
0.768,-1.280446678111591,5901.3049757421295
0.772,-1.2988723604056336,5904.025914132385
0.776,-1.326378324706042,5901.001419859875
0.78,-1.3585360256312287,5898.859302225476
0.784,-1.3906437834433543,5905.2224066476
0.788,-1.4186145194176603,5898.447143470927
0.792,-1.439456620883269,5896.329447297367
0.796,-1.4514410307254277,5895.8632129853895
0.8,-1.454084496690957,5900.817047330106
0.804,-1.447985321835619,5908.587379082913
0.808,-1.434526750537228,5904.205661297704
0.812,-1.4155587418399915,5899.906408965575
0.8160000000000001,-1.3932059159758452,5898.467022994082
0.8200000000000001,-1.3698247730040205,5893.065807825909
0.8240000000000001,-1.347977826200247,5896.672966310479
0.8280000000000001,-1.3302591311374248,5905.982512926683
0.8320000000000001,-1.3188974321284654,5906.505531763918
0.836,-1.315210331522585,5906.122178508152
0.84,-1.3191156486719289,5893.378873854433
0.844,-1.3289478586336767,5893.770839521639
0.848,-1.3417364590892236,5893.328173413018
0.852,-1.3539148088938675,5904.852732960775
0.856,-1.362236306340555,5896.466982121739
0.86,-1.3645876028011201,5903.623715752592
0.864,-1.3604460410486585,5899.877518127797
0.868,-1.3508536367014503,5897.571574135923
0.872,-1.3379045524852848,5896.407161323855
0.876,-1.3239161517446005,5894.062409553977
0.88,-1.3106540541351224,5900.386775170674
0.884,-1.2989895020421995,5895.515450690221
0.888,-1.2890841927399004,5897.991711279625
0.892,-1.2808775683098423,5904.832657171703
0.896,-1.2745587599977548,5906.135848170883
0.9,-1.2708001395362782,5901.874301409586
0.904,-1.2706707547177238,5891.5698483861615
0.908,-1.2752951748306527,5890.063013644273
0.912,-1.2854198830006134,5898.063712650439
0.916,-1.3010181098683853,5893.307582229099
0.92,-1.3209824001721577,5897.027982195891
0.924,-1.3429767998718176,5909.709714615395
0.928,-1.3636179583294035,5903.316975225578
0.932,-1.379140300660757,5901.883491989852
0.936,-1.3864952393957382,5905.425899837248
0.94,-1.3845507975405613,5891.484671150034
0.944,-1.374884981272886,5892.008176234683
0.948,-1.3617499854522626,5909.865141520331
0.952,-1.351112442461009,5897.96455544756
0.956,-1.3490436366964258,5894.7461733912
0.96,-1.3599384837277377,5907.3003090237935
0.964,-1.3850675245068473,5901.837497034731
0.968,-1.4218912574911164,5904.656265662265
0.972,-1.4643943711774365,5894.679803128117
0.976,-1.5044094499504888,5891.226215385514
0.98,-1.5335813223848864,5905.208709114064
0.984,-1.5454237826548045,5895.782241490274
0.988,-1.5369146431242677,5900.393453384455
0.992,-1.5092226175252716,5894.339218094804
0.996,-1.4673884788361955,5908.72665190691
1.0,-1.4190496326740152,5895.294352064031
1.004,-1.3725464340050901,5902.467723641611
1.008,-1.3349068592698636,5895.688927961839
1.012,-1.3102486668505178,5902.989713336924
1.016,-1.2990659754465061,5899.323805879167
1.02,-1.2986347947084425,5902.597416418725
1.024,-1.3043741801298636,5904.542861008235
1.028,-1.311608232609673,5892.42323547484
1.032,-1.3170464951674092,5898.830253189101
1.036,-1.3195236138529725,5901.769061436289
1.04,-1.3199289815015445,5900.135939283735
1.044,-1.3205398914958406,5896.096727255147
1.048,-1.3240424939115403,5903.849544411982
1.052,-1.3324912348045226,5894.114549558103
1.056,-1.3464525993674168,5894.742498209542
1.06,-1.3645874788572807,5899.401904207546
1.064,-1.3838290178835766,5899.406976044445
1.068,-1.4000854074895548,5909.489971353775
1.072,-1.4091953968010051,5904.31014861913
1.076,-1.407858954336422,5903.811352879603
1.08,-1.3944207325194649,5896.807529923965
1.084,-1.3694781009462302,5902.294835150061
1.088,-1.3361909216524803,5900.095158502918
1.092,-1.3000347590799535,5903.028315711559
1.096,-1.2678073293324024,5899.418948223274
1.1,-1.246014939878577,5896.31878212829
1.104,-1.239134044864636,5899.817404087357
1.108,-1.2484004042287622,5894.415286711541
1.112,-1.2715819276504152,5905.303057509099
1.116,-1.30374862107029,5901.180213454572
1.12,-1.3386755699633215,5903.025477558266
1.124,-1.370411832393627,5896.891172691766
1.128,-1.394626353157977,5899.829381149862
1.132,-1.409426636694108,5902.4074113434735
1.136,-1.4154524655158358,5897.622152972134
1.14,-1.415270270742857,5899.8103029334125
1.144,-1.412359756837829,5904.744316419945
1.148,-1.4101013531532145,5905.513488161376
1.152,-1.411065837463946,5909.305304549421
1.156,-1.4166762941642261,5898.825396657471
1.16,-1.4271217054056353,5895.726996053451
1.164,-1.4413670152365399,5900.3100322260425
1.168,-1.4572179336727245,5911.213295813031
1.172,-1.4715260248363546,5899.12947711883
1.176,-1.4806198520078653,5899.320551051183
1.18,-1.4809315424058347,5895.393621093333
1.184,-1.4697084990597733,5902.337627981449
1.188,-1.445719943713727,5907.3435029693765
1.192,-1.4098607026201946,5902.869713125755
1.196,-1.3654455585493868,5912.381839466336
1.2,-1.31791639314404,5891.549634978575
1.204,-1.2738214682505205,5908.966318803402
1.208,-1.2392544329687978,5900.699054134273
1.212,-1.2182577037782187,5902.788626626507
1.216,-1.2117830499963627,5906.4516909403965
1.22,-1.2176029861840068,5899.00090124095
1.224,-1.23120097951337,5898.653108384891
1.228,-1.2473214294787316,5897.469917736553
1.232,-1.2616544567160124,5907.553538397084
1.236,-1.2720799063479895,5904.123941402235
1.24,-1.2790080309824068,5903.088395402421
1.244,-1.2846981102024764,5899.11800669731
1.248,-1.2919305309477551,5891.385409965761
1.252,-1.302716971123906,5902.686026081044
1.256,-1.3176197349410057,5901.110422977747
1.26,-1.3358623514917873,5898.413305778713
1.264,-1.3560297735817217,5908.31337018237
1.268,-1.376905576503416,5905.428108427166
1.272,-1.3979433194698703,5894.287700304793
1.276,-1.4190914423443555,5898.364392782367
1.28,-1.440088861912548,5903.743420816191
1.284,-1.459654525063304,5894.763764530206
1.288,-1.4750372350752075,5900.13904950086
1.292,-1.4822216422758103,5909.766661789683
1.296,-1.476823287699745,5898.554083748667
1.3,-1.4554331936078888,5908.593581286394
1.304,-1.4169931983183168,5894.628822680328
1.308,-1.3637936362908554,5896.930533068626
1.312,-1.3018312420202802,5899.381335392316
1.316,-1.240379728824706,5895.850538190863
1.32,-1.1906620687929184,5900.290066748313
1.324,-1.1636274533457827,5894.683825891172
1.328,-1.167172786456227,5904.669322144035
1.332,-1.2035968383423918,5909.59122281219
1.336,-1.268282469907581,5903.427709662307
1.34,-1.3502905664481613,5907.124927342632
1.344,-1.434822848904788,5908.120612695864
1.348,-1.5067855011252833,5892.623319971602
1.352,-1.5543260293774441,5901.074687195903
1.356,-1.5713218937298739,5908.973752302047
1.36,-1.5582530068422247,5902.410590601175
1.364,-1.521454257421002,5896.06860119088
1.368,-1.4711719360682016,5905.016419407286
1.372,-1.419018843003356,5904.930848852054
1.376,-1.3753980067773737,5902.60835138685
1.38,-1.3473897361516292,5898.802629234763
1.384,-1.3375274331531612,5901.636808801241
1.388,-1.3437367969832732,5904.243160803911
1.392,-1.3604174779997833,5896.90302856272
1.396,-1.3803212331664216,5908.114520763303
1.4,-1.3967105210078912,5892.738339747815
1.404,-1.405317298793414,5901.036751393079
1.408,-1.4057470736459043,5901.6691171784905
1.412,-1.4020343333968954,5888.932265004964
1.416,-1.402040448061583,5896.580180666395
1.42,-1.415457504329373,5901.107986736687
1.424,-1.4504655781423719,5901.114062625632
1.428,-1.5095038596629642,5896.584199712673
1.432,-1.5850117004233044,5902.189118735157
1.436,-1.6563362213562691,5901.062091084128
1.44,-1.689236882321603,5901.443332641515
1.444,-1.6393104206194695,5901.805585593756
1.448,-1.45993059118645,5907.408017930324
1.452,-1.1138998621083418,5900.0825926680345
1.456,-0.5862538180095466,5904.9169441143
1.46,0.10581998464616718,5894.903317448151
1.464,0.910318222373118,5903.799205621909
1.468,1.747763978857142,5902.962469210561
1.472,2.5277075176369466,5899.603436123882
1.476,3.169446076147354,5927.503254689319
1.48,3.619943349593172,5937.513524738082
1.484,3.863277391273958,5942.831416665592
1.488,3.9196506513718123,5957.322697399273
1.492,3.835738396602267,5958.027173226152
1.496,3.6704104398380077,5973.645800385022
1.5,3.4803759508634826,5979.569855012318
1.504,3.309413226339206,5999.300735998342
1.508,3.1830868718284453,6007.520884324335
1.512,3.1088937912238506,6017.091637099367
1.516,3.080284739821267,6020.19740319344
1.52,3.0823849709602964,6030.020738684214
1.524,3.0974895399166056,6038.482866207705
1.528,3.1092056082185415,6055.433068926977
1.532,3.104978652557075,6060.675073753991
1.536,3.077280035146195,6060.287910590738
1.54,3.0238293930848403,6077.915108700075
1.544,2.947058787100193,6094.648402117906
1.548,2.8529111709725288,6094.052786475907
1.552,2.7491775245802472,6099.493086297249
1.556,2.6438046637186603,6118.981797762492
1.56,2.543676793212064,6126.051426272963
1.564,2.4541280045282763,6125.515047979416
1.568,2.379016395838607,6131.659313671034
1.572,2.3209095184543314,6140.135604928264
1.576,2.2809978313901307,6142.208418946611
1.58,2.2586803454668436,6151.194870449595
1.584,2.251102639817319,6160.863469290052
1.588,2.2530661080185688,6160.879158787338
1.592,2.2576101117784475,6169.040780977872
1.596,2.2572652529864365,6176.214896320488
1.6,2.245632513967264,6186.782649325613
1.604,2.2187403861186454,6194.487749411544
1.608,2.1757071267891375,6201.679640466753
1.612,2.1185651222635036,6202.659562090766
1.616,2.051471068448575,6212.144721117431
1.62,1.9796815273750303,6222.6657765093605
1.624,1.9085858109108873,6217.211167429247
1.628,1.842936749254615,6229.376788110926
1.632,1.786340454952095,6239.074257063813
1.636,1.7410307288593265,6231.82377585505
1.64,1.7078933694677867,6236.626367007895
1.644,1.6866181017043564,6249.657127997161
1.648,1.675811952375172,6251.236319300937
1.652,1.6729997215163264,6257.014129998362
1.656,1.6746472052849628,6255.767590487535
1.66,1.6764784826145347,6268.539523874274
1.664,1.67423861181662,6272.56213405892
1.668,1.6647409232589836,6277.585406884506
1.672,1.646784144306888,6273.83322738489
1.676,1.6215177170396142,6275.475500040822
1.68,1.5920756534475808,6279.642702455708
1.684,1.562634482802191,6291.397435526697
1.688,1.5372634035195731,6297.251313221366
1.692,1.5189156039735303,6303.336643995528
1.696,1.5087681896709608,6303.592572192412
1.7,1.506029949210515,6310.1553829049
1.704,1.5082879871017056,6314.636656045219
1.708,1.5123077818756605,6315.097545194685
1.712,1.5149513618363317,6314.757717677755
1.716,1.513762612265809,6316.999054094108
1.72,1.5069548581013958,6322.624819688781
1.724,1.492942891872225,6328.669800011311
1.728,1.4699247192729663,6331.283469922677
1.732,1.4360488057666339,6330.993292611847
1.736,1.3902984657545763,6340.583535638909
1.74,1.3336451734877575,6345.920407137761
1.744,1.269723552613754,6353.999160252172
1.748,1.204489271277602,6345.396544150204
1.752,1.1448572900779492,6355.501730149556
1.756,1.0968174151838441,6361.098218604387
1.76,1.063728335490615,6360.4712533136735
1.764,1.0453741857828722,6357.474806229931
1.768,1.038072178869658,6359.726724058271
1.772,1.0357913247042008,6367.756115369828
1.776,1.0319514295155607,6361.761419483183
1.78,1.021364821804399,6368.27039683886
1.784,1.0017168916725476,6373.782143456607
1.788,0.9741192241431671,6370.962299374968
1.792,0.9426229645156863,6376.394914273032
1.796,0.9129861283188039,6384.036392214357
1.8,0.8911863028773699,6377.580631010005
1.804,0.8820905948288043,6380.648964902453
1.808,0.8884925131515168,6382.295957404778
1.812,0.9105557436930397,6385.24909168364
1.816,0.9456362906175623,6389.071232567668
1.82,0.9884782931949776,6395.142152065519
1.824,1.0318085001755504,6399.123332079178
