时间(s),电压(V),幅值(高频80K)
0.0,-1.025080973556004,5905.302210639096
0.004,-1.1547247941250434,5902.498074283494
0.008,-1.2746144673820021,5899.3491126532
0.012,-1.3756090216774457,5901.936759035107
0.016,-1.4508867924599669,5911.778566209702
0.02,-1.496848245780171,5895.111736788574
0.024,-1.513494666603575,5887.365469430888
0.028,-1.5042321262853873,5894.390148195248
0.032,-1.4753034322058356,5904.605731959146
0.036,-1.4350404879623353,5900.929265111124
0.04,-1.3929001768325344,5892.6614282942855
0.044,-1.3581595833781632,5898.676636646248
0.048,-1.3383875630605928,5910.589161534597
0.052,-1.3381140772586608,5902.917430932915
0.056,-1.3581253966126232,5910.071676767226
0.06,-1.3955338515592681,5901.922145148467
0.064,-1.4444973053057506,5886.810632914306
0.068,-1.4973652129615895,5904.727642065742
0.072,-1.5460459731872727,5893.313586156944
0.076,-1.5834085969055174,5899.369959525959
0.08,-1.6045045659176458,5903.939805324334
0.084,-1.6073591624594668,5900.442629320503
0.088,-1.5931115130480888,5889.661876336015
0.092,-1.565434669789371,5899.970130027476
0.096,-1.5294033426716067,5897.268827535941
0.1,-1.4901545578616626,5894.215736829319
0.104,-1.4517151606458,5894.311631379954
0.108,-1.4163172826272514,5900.491621711028
0.112,-1.3844265539415341,5895.97226305364
0.116,-1.3554693393072008,5906.010134235992
0.12,-1.3288940340466624,5910.997069550316
0.124,-1.3050181970744024,5900.934500191916
0.128,-1.2852837905374292,5899.095126517679
0.132,-1.2718932100749791,5903.6295832651895
0.136,-1.2670394619714846,5901.038531829719
0.14,-1.2720135194723219,5901.5616983058935
0.144,-1.2864871957441122,5909.2898065706895
0.148,-1.3082549350083907,5888.596807290518
0.152,-1.3335759103365592,5892.992921340023
0.156,-1.3579909605398774,5902.668064875085
0.16,-1.377278577630291,5899.7040435769895
0.164,-1.3882220911318501,5900.413161663735
0.168,-1.3890483876361093,5901.486760997554
0.172,-1.3795908066160645,5899.53598964474
0.176,-1.3612713133637764,5900.903617853335
0.18,-1.3368816703597897,5899.155927498477
0.184,-1.3100563792226358,5913.324303452562
0.188,-1.2844575868571297,5907.959610973388
0.192,-1.2629278970693874,5894.105880668032
0.196,-1.2469349922725599,5906.029250507384
0.2,-1.2364808456812484,5899.610158677719
0.204,-1.2304598725016598,5901.898508188548
0.208,-1.227341198797933,5895.427484599119
0.212,-1.2259917342404476,5895.7616896958025
0.216,-1.2263817054409023,5903.020101471665
0.22,-1.2298248345717802,5896.050291308282
0.224,-1.2384612920267524,5900.592660291777
0.228,-1.2540455152710566,5906.99916725313
0.232,-1.2765757694541071,5900.710313079647
0.236,-1.3034983475301531,5901.171485278449
0.24,-1.3299650296084229,5892.854158737537
0.244,-1.3501045936646126,5905.579514837677
0.248,-1.358800498847624,5901.954593071698
0.252,-1.3532741506722716,5900.1288284910215
0.256,-1.3339119454480315,5904.4067835862015
0.26,-1.3041326893257492,5902.887401484979
0.264,-1.2694657659684951,5909.561235277798
0.268,-1.2362200154039429,5901.633747242749
0.272,-1.2101354088551957,5908.56246069514
0.276,-1.1953286564316277,5899.839329994128
0.28,-1.193738233678348,5893.104163826114
0.284,-1.2051169101318555,5896.316286147221
0.288,-1.2274414883603095,5893.420016164117
0.292,-1.2575233397106285,5899.735595993546
0.296,-1.2916290746829946,5898.108608052815
0.3,-1.325981810633106,5900.890201558938
0.304,-1.3571010538674777,5895.153449172088
0.308,-1.3820660739437085,5902.170268196141
0.312,-1.3988494782570318,5900.334209046132
0.316,-1.4067563749660335,5896.014453391532
0.32,-1.406789534367726,5900.8186811720525
0.324,-1.4016325385933752,5901.770494909028
0.328,-1.395024658937115,5892.822659280086
0.332,-1.3905679356727876,5897.810405972188
0.336,-1.3903377172125162,5901.486023618235
0.34,-1.393899725874299,5909.482183305581
0.344,-1.3983003133551473,5901.591157592276
0.348,-1.3992263009825678,5900.357552167932
0.352,-1.3929543503306145,5898.028371144859
0.356,-1.3782141882597312,5904.00250703748
0.36,-1.3570129513165368,5897.581990996333
0.364,-1.3339744210020752,5900.721912482702
0.368,-1.3145716689128655,5904.857989702868
0.372,-1.3031815869461574,5898.835045151192
0.376,-1.301781514393979,5898.123238666909
0.38,-1.3095515429127216,5907.213361433752
0.384,-1.323182333186244,5895.950644753159
0.388,-1.3376076547739058,5906.020310643262
0.392,-1.3470268732975488,5902.02377884355
0.396,-1.3461710964189906,5903.105314516165
0.4,-1.3316984240091874,5896.133187064839
0.404,-1.3034490021786562,5896.789822337193
0.408,-1.2651563699388944,5894.294946329835
0.412,-1.2241985642172726,5896.102840833623
0.416,-1.190160409698969,5904.7205885524845
0.42,-1.1723695906835296,5899.626987699779
0.424,-1.17704341814572,5906.21209471049
0.428,-1.2050264399404482,5901.23661398166
0.432,-1.2510805218064056,5897.608917724637
0.436,-1.3051893615590482,5907.116594429092
0.44,-1.3555169824243496,5897.759180343562
0.444,-1.3919437427383337,5901.531867261485
0.448,-1.4088960795633265,5897.738600739409
0.452,-1.4065598612807804,5899.4056970064485
0.456,-1.390252349056118,5897.52605646111
0.46,-1.3683583340213488,5890.251152106726
0.464,-1.349604839820474,5903.94215214659
0.468,-1.3405383544759824,5901.275346234844
0.472,-1.3439151575254293,5902.815978166789
0.476,-1.3583653991916356,5896.804022647846
0.48,-1.3792523104369854,5894.732363401162
0.484,-1.4002745315545861,5896.443503687476
0.488,-1.4152001680122532,5908.796888031628
0.492,-1.4192455722869666,5896.9452825923445
0.496,-1.4099177086703538,5902.896605098155
0.5,-1.3873856636184199,5896.702318022958
0.504,-1.3544737460904144,5901.584650008883
0.508,-1.3162520029862996,5897.706286287414
0.512,-1.2791556223615852,5908.964236405742
0.516,-1.2497121686993835,5900.307260550607
0.52,-1.2331757869870255,5901.328095856736
0.524,-1.2324254053654797,5901.8065675556745
0.528,-1.2473392212671124,5906.809127541876
0.532,-1.2747210521146948,5900.564529221511
0.536,-1.3088400636189752,5903.151913091351
0.54,-1.3425968149163998,5902.380700849445
0.544,-1.369112905490278,5899.813172840799
0.548,-1.383289889398443,5900.6360693602655
0.552,-1.3828329025875916,5903.405326040196
0.556,-1.368473524294299,5910.67140688956
0.56,-1.343500883452405,5897.763355105686
0.5640000000000001,-1.312940140842421,5899.982767328269
0.5680000000000001,-1.2826667477424007,5904.446350479662
0.5720000000000001,-1.2585426148423393,5904.138116105445
0.5760000000000001,-1.245518142054084,5896.898858854457
0.58,-1.2466740931141038,5902.728001277244
0.584,-1.262362949135295,5905.220745956648
0.588,-1.2897889444115143,5899.737100769596
0.592,-1.3233395780170565,5895.587000454969
0.596,-1.3557330410580333,5890.259159667864
0.6,-1.3797303368712133,5902.615184176087
0.604,-1.3899242157466543,5902.300975612489
0.608,-1.3840620763079416,5901.572236819566
0.612,-1.363517381163323,5900.977074075034
0.616,-1.3327916218560016,5900.704970317847
0.62,-1.2982056684879621,5903.427639758585
0.624,-1.2662131843661433,5896.45359836486
0.628,-1.2419298466690438,5896.191322822491
0.632,-1.228327171505649,5910.745067747839
0.636,-1.2261514891527334,5906.151363184169
0.64,-1.2343221849726407,5889.731176905203
0.644,-1.250516447614807,5905.0269638196105
0.648,-1.2717465946655528,5900.713327976592
0.652,-1.2948298938677074,5912.166525981754
0.656,-1.3167185804194497,5893.779672030614
0.66,-1.3347341825050774,5903.970287278521
0.664,-1.346819134022468,5902.6373913386215
0.668,-1.351892372974605,5902.455734097126
0.672,-1.3502313758557707,5904.434364926528
0.676,-1.3436415943145983,5900.724750239424
0.68,-1.3352063541305237,5898.34247216347
0.684,-1.328614411119865,5910.394802245678
0.6880000000000001,-1.3272666821890207,5897.684804070672
0.6920000000000001,-1.3334636051173192,5895.240639141762
0.6960000000000001,-1.3479238646384355,5904.408079356462
0.7000000000000001,-1.3696852411125235,5900.602981304389
0.704,-1.3962481128503759,5902.394411524851
0.708,-1.4238401479064313,5894.367796605905
0.712,-1.4478712355929433,5906.555246550058
0.716,-1.4637582219356218,5908.185652973598
0.72,-1.4681364756334028,5897.557976972783
0.724,-1.4601032594927135,5897.453758264706
0.728,-1.4418614695970402,5904.575167434255
0.732,-1.4182561162051337,5895.146241968588
0.736,-1.3952142072850282,5895.830614507167
0.74,-1.3776822983885912,5903.762189507366
0.744,-1.3679538400863356,5895.430090494505
0.748,-1.3651308855466564,5903.133601248766
0.752,-1.3659162823613973,5905.033781255156
0.756,-1.366250330339755,5904.451540919885
0.76,-1.3629100852920468,5904.245992073241
0.764,-1.3543398707380807,5910.930190666888
0.768,-1.3405383478049753,5902.990625775117
0.772,-1.3223880666955605,5907.553178957018
0.776,-1.301021795178653,5904.87307755401
0.78,-1.2775879608311231,5902.154937195677
0.784,-1.2533503455869268,5908.059733012975
0.788,-1.2298125574316956,5892.746283656998
0.792,-1.2086410122489188,5901.4078010030535
0.796,-1.1913969103758217,5896.714783836532
0.8,-1.179247342001202,5892.37936130214
0.804,-1.1728165089032487,5902.020594411815
0.808,-1.1722074514319696,5901.692949465693
0.812,-1.1771063257197443,5899.697691676444
0.8160000000000001,-1.186873375539977,5907.104169569348
0.8200000000000001,-1.20058820028651,5900.481175283783
0.8240000000000001,-1.2170610504245256,5910.12666895365
0.8280000000000001,-1.234836409105749,5906.991464921879
0.8320000000000001,-1.252238233735791,5897.980113140021
0.836,-1.267517604153504,5900.295173362474
0.84,-1.279119892384745,5910.378581760626
0.844,-1.2860280603528977,5898.185377049119
0.848,-1.288107746418532,5892.557180411516
0.852,-1.2863361465539316,5895.882637203088
0.856,-1.2827450448274307,5899.951053042849
0.86,-1.2799838663785792,5904.125048979127
0.864,-1.2806410170176836,5906.539817695581
0.868,-1.286621441011164,5901.1399918380985
0.872,-1.2987736039121995,5893.0287408255945
0.876,-1.3167356503594692,5904.091192346532
0.88,-1.3388902115370862,5904.486496691065
0.884,-1.3624077230594327,5908.024617886644
0.888,-1.383471155091584,5902.7433569357245
0.892,-1.3978029318350007,5901.625717503235
0.896,-1.401523494270438,5897.987169674331
0.9,-1.3921894996649444,5899.156142945783
0.904,-1.3697005346231177,5910.504410479923
0.908,-1.3367479487412972,5898.000872968275
0.912,-1.2986143032698254,5904.264673608198
0.916,-1.2623133797266732,5906.23709504442
0.92,-1.2352179850227942,5897.241206548697
0.924,-1.2234705297667718,5895.436147593314
0.928,-1.2305796749304416,5904.930923040541
0.932,-1.2565721070493168,5903.021436570912
0.936,-1.2978921079491346,5903.104964681119
0.94,-1.3480549865048006,5897.984231888706
0.944,-1.3989293232011815,5897.801918254064
0.948,-1.4423955498008734,5902.655698765273
0.952,-1.4719982838043357,5901.895261676827
0.956,-1.4841757920347467,5900.376720650974
0.96,-1.4787720775505022,5899.727789383987
0.964,-1.4587433441498432,5907.766990766978
0.968,-1.429169383522888,5900.378205026363
0.972,-1.3958569859210703,5896.097794248266
0.976,-1.3639531400381766,5898.596856159988
0.98,-1.3369857153667093,5898.99524725579
0.984,-1.316572505971352,5908.530553420852
0.988,-1.3027512984503158,5897.279899714222
0.992,-1.2946335590700484,5898.888793749703
0.996,-1.2910218515448644,5902.352027754172
1.0,-1.29077202493321,5892.599653874028
1.004,-1.292876944656609,5893.211970618832
1.008,-1.2963628974209616,5905.782476995612
1.012,-1.300129886655479,5894.84607473593
1.016,-1.3028853584668523,5895.310308036214
1.02,-1.3032985073952505,5895.721835371361
1.024,-1.3003921368156706,5903.474883753351
1.028,-1.2940278482469623,5891.366089145772
1.032,-1.2852497388413122,5902.271571159362
1.036,-1.276299896768945,5902.887427418138
1.04,-1.2702479977036283,5891.812355597123
1.044,-1.2702975880795817,5903.601367505645
1.048,-1.2789144116172315,5897.588873539913
1.052,-1.2969867761709382,5901.983849484809
1.056,-1.323273397843878,5901.633297189911
1.06,-1.3543665109636387,5897.58089395524
1.064,-1.38526242037931,5904.127018408441
1.068,-1.410441831988134,5909.063457221366
1.072,-1.425202572163917,5902.49392187694
1.076,-1.4268941842518228,5905.984429641335
1.08,-1.4156901246849993,5899.062200001024
1.084,-1.3946314302152343,5894.1284476447545
1.088,-1.3688908029170161,5896.701886192275
1.092,-1.3444555229850077,5897.863826335524
1.096,-1.3266018549158813,5894.9173903061
1.1,-1.3185949125727052,5906.289153859148
1.104,-1.3210101005523383,5897.1493103673165
1.108,-1.3319196802392697,5902.815040648301
1.112,-1.3478888920103769,5895.6584315778655
1.116,-1.3653504845137565,5895.273862988041
1.12,-1.3817070807080618,5904.943708107066
1.124,-1.395673273080241,5900.403618220514
1.128,-1.406851060462484,5905.102952017834
1.132,-1.4149679426175188,5903.378629063606
1.136,-1.4192860539195713,5901.753798834644
1.14,-1.418463038188422,5906.025577538288
1.144,-1.4108826505506964,5900.848080080936
1.148,-1.3953123445661249,5893.527055012924
1.152,-1.3716256270975742,5906.167092735456
1.156,-1.341241551038772,5900.547281197269
1.16,-1.307020416278625,5900.928111673338
1.164,-1.2726479724662951,5902.596444854893
1.168,-1.2418176079007162,5903.71024102736
1.172,-1.2175505936285156,5886.48364995397
1.176,-1.201818932547338,5902.749499033408
1.18,-1.195462912019161,5896.530714523173
1.184,-1.1983223968713062,5887.069956227573
1.188,-1.2094695759013059,5891.775819689539
1.192,-1.2274103616360172,5913.349199472584
1.196,-1.2501657083521573,5904.486620119453
1.2,-1.2752680084105228,5898.438132476254
1.204,-1.2998330912522742,5906.451258171337
1.208,-1.3208887039577515,5900.2586786737
1.212,-1.3359970265104062,5900.555211190077
1.216,-1.3439613518891804,5903.507748470078
1.22,-1.3452389026217846,5899.578139011682
1.224,-1.3417603167264347,5893.813411303824
1.228,-1.336159433129222,5899.477359852556
1.232,-1.330737906736277,5905.647261349562
1.236,-1.3266280697374182,5907.749529666767
1.24,-1.3235141578762237,5903.406113646467
1.244,-1.3199903508352344,5901.292828930543
1.248,-1.3143442960393723,5896.320723307612
1.252,-1.3054510255038498,5902.651581748659
1.256,-1.2935376960816667,5899.987982540161
1.26,-1.2806179248385774,5899.600959289877
1.264,-1.2703311074962016,5903.277009550386
1.268,-1.2670069710608052,5893.385083283258
1.272,-1.274178388755785,5898.8328720286745
1.276,-1.2932082771091444,5897.8746924494335
1.28,-1.322728027838676,5896.235156280234
1.284,-1.35912161916714,5899.986703149551
1.288,-1.3976920911083892,5901.025251605118
1.292,-1.4338488054620824,5904.27807355625
1.296,-1.4638175427436664,5894.151637859036
1.3,-1.4848073805913555,5897.6024395865325
1.304,-1.4949139543753125,5898.931788712052
1.308,-1.4930945815848082,5907.720745169223
1.312,-1.479367418755239,5902.276446149609
1.316,-1.4551435742576257,5911.213376837179
1.32,-1.4234632606039244,5902.228496116889
1.324,-1.3889208927524415,5906.060338033011
1.328,-1.357156389985105,5899.380625067571
1.332,-1.3339022173046178,5900.658440518288
1.336,-1.3237213279830848,5898.971662419356
1.34,-1.3287473020727287,5895.194601656195
1.344,-1.3478635708769426,5899.574704679602
1.348,-1.3767124299857618,5898.846002724451
1.352,-1.4086655823122918,5906.095091253442
1.356,-1.436541609559055,5904.917082784224
1.36,-1.4545894984882701,5900.361236435174
1.364,-1.4601274150040364,5896.545603310143
1.368,-1.4542640836057494,5896.317287020957
1.372,-1.441406474744156,5903.122608342876
1.376,-1.4277074186176293,5897.505189730071
1.38,-1.4189936149067137,5898.958574867658
1.384,-1.4188711927442121,5900.376157356584
1.388,-1.427636575348629,5900.842617794593
1.392,-1.442347429798996,5899.571688427199
1.396,-1.45796352479552,5906.364549388508
1.4,-1.469049644904717,5901.89845021514
1.404,-1.471393939396286,5898.195183929348
1.408,-1.4630468764751885,5904.698968918305
1.412,-1.4445505850911413,5896.258361873489
1.416,-1.4183992265358665,5906.43558207834
1.42,-1.3880208031924148,5908.738598047507
1.424,-1.3567204316236956,5907.104653613646
1.428,-1.326981590344774,5900.248175885281
1.432,-1.3002971370888985,5892.014583045143
1.436,-1.27742480048047,5904.9422261119225
1.44,-1.258798383879751,5899.835307268394
1.444,-1.2448649727110181,5896.869204334217
1.448,-1.2362837520626153,5891.850487423374
1.452,-1.2340387109461786,5902.7477445811
1.456,-1.2394870963188973,5900.283090537696
1.46,-1.2542356419372067,5904.009966846171
1.464,-1.2796572439020122,5891.412678910543
1.468,-1.3159881235206974,5900.849725019282
1.472,-1.361263588032487,5900.539360873047
1.476,-1.4106233454400512,5899.904439857996
1.48,-1.4565211926404278,5899.501045441203
1.484,-1.4900701245456884,5897.271529525133
1.488,-1.5032507590022262,5894.796190900548
1.492,-1.4912513020143456,5894.072463882852
1.496,-1.4541055161915795,5900.457258458345
1.5,-1.3971570744485677,5899.246149854713
1.504,-1.3304210215469654,5885.666167756212
1.508,-1.267206480225294,5901.235759699325
1.512,-1.2222613799103206,5901.691903495455
1.516,-1.2094588627548513,5899.658000891757
1.52,-1.2390213210983962,5898.70497661922
1.524,-1.314524742885447,5891.73275737496
1.528,-1.4301723041076853,5898.065334563458
1.532,-1.5688718591789312,5906.375362353162
1.536,-1.7016386491932107,5899.296518466291
1.54,-1.7889827617217737,5902.771524474787
1.544,-1.7850785993921712,5891.757715891755
1.548,-1.6451898190292857,5903.762370017697
1.552,-1.3357642941940604,5897.909721144098
1.556,-0.8450925824880963,5895.166687766976
1.56,-0.1911598377710334,5893.72032276418
1.564,0.5768797043462667,5903.532043417082
1.568,1.3857297556424233,5891.9149554017695
1.572,2.152545677444829,5903.561526565035
1.576,2.8027476186454843,5924.840897652688
1.58,3.285107826464318,5940.175562734697
1.584,3.579570907975378,5946.105814100398
1.588,3.6965857773879516,5958.787043369554
1.592,3.669800107112155,5967.237302286428
1.596,3.5454779620865002,5990.665750019349
1.6,3.37192541513385,5983.711176784422
1.604,3.191176666544624,5995.148674998803
1.608,3.0339146656486102,6011.53805266852
1.612,2.9175783005902405,6028.956359355403
1.616,2.8470373200664447,6037.756435768564
1.62,2.8170427003129963,6045.919492850036
1.624,2.8156926518874332,6063.099822668349
1.628,2.8281907033192297,6063.64549572276
1.632,2.8401829214602476,6066.415212540164
1.636,2.840111770889464,6074.411387228841
1.64,2.820396879662004,6085.2293036458805
1.644,2.7776558798806685,6096.893079320352
1.648,2.71235632793449,6110.062978378953
1.652,2.628213437253929,6118.1549698132985
1.656,2.531473149250771,6124.017588546148
1.66,2.4300719110206668,6132.302889946136
1.664,2.332596074872682,6142.957757623703
1.668,2.2470176565702755,6150.689181711388
1.672,2.179355036785453,6157.118949793791
1.676,2.1325839819798724,6155.0150452270245
1.68,2.1061596346403424,6177.845790395793
1.684,2.0963528712027557,6180.999935809759
1.688,2.0973186833608124,6192.734618374945
1.692,2.1025315166529093,6188.632584549725
1.696,2.1060963365064866,6201.895953383671
1.7,2.1035586590336957,6206.254694396261
1.704,2.092124259734754,6216.7906745380415
1.708,2.0704901894639827,6215.197253586228
1.712,2.0386286442919372,6213.899776486665
1.716,1.9977756535829634,6231.804501429353
1.72,1.9505934375479874,6238.82865699106
1.724,1.9011875123071642,6248.142609023154
1.728,1.8546187902265978,6250.1444023217255
1.732,1.8158406026378389,6249.89853778185
1.736,1.788407493391585,6261.357560435719
1.74,1.7735187231947416,6266.100298685385
1.744,1.7698051460380673,6273.905934758682
1.748,1.7738679199377188,6280.305542651206
1.752,1.7812259645386264,6277.836482466197
1.756,1.7872435720007598,6292.366944794705
1.76,1.7877850552335741,6304.40259085531
1.764,1.7795882754478396,6295.801001218347
1.768,1.7604665761165195,6294.270696409629
1.772,1.7294232319826555,6309.940487463501
1.776,1.6867217331524709,6318.158806324233
1.78,1.6339491967739164,6323.059992201961
1.784,1.5740507168008022,6327.679317692155
1.788,1.5111725425185305,6323.880089620796
1.792,1.4500970406383265,6321.285992956237
1.796,1.3952480712178974,6327.782425402988
1.8,1.3495812707062842,6340.735851585487
1.804,1.3138411994897874,6344.270842023657
1.808,1.2865236131217554,6339.845186075499
1.812,1.2645657405836948,6350.837073943757
1.816,1.244492067887107,6353.100563366323
1.82,1.223565937974091,6355.382241078701
