时间(s),电压(V),幅值(高频80K)
0.0,-1.270283542746725,5892.946448998111
0.004,-1.297492759429954,5905.60389722473
0.008,-1.3224844937594666,5902.501579491612
0.012,-1.342435493325643,5901.264147241841
0.016,-1.3546465431540748,5899.9733860098
0.02,-1.3572122791150172,5894.415891521115
0.024,-1.3496885050759178,5901.565706282297
0.028,-1.3333742903206118,5900.0068508660215
0.032,-1.311063313363622,5891.547887336321
0.036,-1.2863984993806243,5898.586273055748
0.04,-1.263059854471014,5902.213789508186
0.044,-1.2439765939828495,5902.160396909703
0.048,-1.2307453784250602,5886.779442523927
0.052,-1.2234431708242148,5899.078945930248
0.056,-1.2208945671096567,5900.38834596016
0.06,-1.2212026140453887,5898.447426212586
0.064,-1.2222403091216658,5900.029262088262
0.068,-1.221988314089524,5899.657364975884
0.072,-1.2188557778960705,5899.091633617449
0.076,-1.2120968776591898,5898.331739376415
0.08,-1.2021853527249584,5901.899410109545
0.084,-1.1908802541788006,5895.738185518559
0.088,-1.1808652345965474,5893.535265052859
0.092,-1.1750960539951032,5902.382859343578
0.096,-1.1761229957606363,5906.091662941367
0.1,-1.18561340973026,5900.198900874792
0.104,-1.204158529043023,5902.407821180497
0.108,-1.2313034691429505,5894.810423841067
0.112,-1.2656639480637546,5908.696203805947
0.116,-1.3050098130989978,5895.1306846082725
0.12,-1.3462681856182055,5893.435518993615
0.124,-1.385493814979574,5901.125494735576
0.128,-1.4179697138044094,5898.559099516561
0.132,-1.4386847365824786,5899.891003992947
0.136,-1.4433358943668515,5896.715148098032
0.14,-1.4296603422794683,5894.249357505551
0.144,-1.3985470156619269,5891.626805853432
0.148,-1.354350853701183,5908.858615432672
0.152,-1.3041774593915894,5907.3260879764375
0.156,-1.2563371484836183,5890.324820032599
0.16,-1.218430861091536,5903.061939199802
0.164,-1.195609717542737,5895.397385771091
0.168,-1.189510765781376,5905.4421458773495
0.172,-1.1981936394315167,5901.110658186877
0.176,-1.217066225033147,5901.547798409893
0.18,-1.2404283636583198,5900.651116980467
0.184,-1.2630876157013782,5897.280617552353
0.188,-1.2815627686224127,5899.253466401415
0.192,-1.294583454028201,5900.444782556522
0.196,-1.3028208570029747,5899.104829449018
0.2,-1.3080076659502615,5895.499463576653
0.204,-1.3117976129941156,5898.285292678916
0.208,-1.3148245212269651,5892.921407632073
0.212,-1.3163620722805998,5905.087548301407
0.216,-1.3147121426875723,5901.611857294043
0.22,-1.308080698768691,5896.143017544695
0.224,-1.2954812163959155,5900.377802811168
0.228,-1.2772696847431904,5905.0613614480735
0.232,-1.2551516729087477,5906.050133203588
0.236,-1.231711768407808,5903.354399431614
0.24,-1.2096242572025442,5902.638239595268
0.244,-1.1907784952636913,5907.693973962824
0.248,-1.1756549311731548,5897.848760636697
0.252,-1.163320704110253,5897.750672887771
0.256,-1.152181118120399,5904.547474089776
0.26,-1.1411509011007845,5898.032102508161
0.264,-1.1305750590554158,5900.362111052754
0.268,-1.1223707200626682,5900.164189505508
0.272,-1.11935955528539,5903.362505873458
0.276,-1.1241938156107008,5904.194086632086
0.28,-1.1383708626260187,5899.496880744383
0.284,-1.161628842743805,5894.09353086692
0.288,-1.1917670888776506,5899.543702466157
0.292,-1.224843157552568,5905.22106546792
0.296,-1.2557428524083913,5904.417697331725
0.3,-1.2791277932320266,5902.90097394687
0.304,-1.2906412069412256,5901.416601747241
0.308,-1.2880683575388792,5906.809913358908
0.312,-1.2720551452863307,5907.180368604261
0.316,-1.246081744721388,5893.808370347491
0.32,-1.2156377789081891,5901.903740653655
0.324,-1.1868386296091482,5897.601868362994
0.328,-1.1649306928911682,5898.498146689333
0.332,-1.1531617047919334,5902.409595762431
0.336,-1.1523328522751817,5906.060508331595
0.34,-1.1610783339703725,5904.4811160751005
0.344,-1.176636222751778,5907.5126618255
0.348,-1.1957017599651765,5897.697896129229
0.352,-1.215013619659433,5888.856125358809
0.356,-1.2316059211673471,5891.575705167419
0.36,-1.242945222614898,5895.312261034504
0.364,-1.247216156300034,5899.333519742499
0.368,-1.2438022484504483,5913.759066324795
0.372,-1.2337365692894688,5904.866832407099
0.376,-1.2197832863512443,5900.3087078944445
0.38,-1.2059359419216449,5901.780255912673
0.384,-1.1964213260989258,5904.910957340016
0.388,-1.1945777575454528,5902.199827464534
0.392,-1.2020076488153473,5897.518388482812
0.396,-1.218196853075271,5903.236320650372
0.4,-1.2405947830286055,5901.569358821188
0.404,-1.2650966675701614,5902.977094750503
0.408,-1.286851896733174,5904.975848705908
0.412,-1.301242598699935,5900.117800083556
0.416,-1.304811890256988,5899.311405861864
0.42,-1.2959647429841297,5903.33861367049
0.424,-1.2753675999606664,5891.356158073036
0.428,-1.2460196640802765,5903.869101033404
0.432,-1.2129367048437116,5905.654727835742
0.436,-1.182367947280318,5907.515091783305
0.44,-1.1605532008242152,5907.815355964097
0.444,-1.1522368934330252,5901.625634792813
0.448,-1.1593859819557966,5899.285695289853
0.452,-1.1806154794604522,5899.833345106803
0.456,-1.2115927382996863,5911.852535640347
0.46,-1.2462849099806812,5896.834060621606
0.464,-1.2785797029941328,5894.216683415709
0.468,-1.3037175571731652,5899.689440409459
0.472,-1.3191411326333964,5904.931426423392
0.476,-1.3246679520614384,5906.893142585808
0.48,-1.3221152689831912,5908.600435127941
0.484,-1.3145437245178884,5906.916227601679
0.488,-1.3052476193553493,5904.389150502874
0.492,-1.2966848898219763,5900.031794441888
0.496,-1.2896959957965433,5899.587358071231
0.5,-1.2833868514038576,5898.2772411649685
0.504,-1.275809872659516,5911.900523541195
0.508,-1.2651962562446106,5903.344525150823
0.512,-1.2512042972649156,5906.255187770276
0.516,-1.2355945040207132,5889.7056496029945
0.52,-1.2219512486697697,5891.91557971692
0.524,-1.2144835802141212,5901.4249115443945
0.528,-1.2163858009906672,5905.750879611005
0.532,-1.2284739951786692,5902.352702746724
0.536,-1.2486811631179342,5898.528598511024
0.54,-1.2725857084428143,5896.540866313214
0.544,-1.2947347047851263,5895.875928012632
0.548,-1.3102883902503069,5901.012729720106
0.552,-1.3164472078376157,5896.3259766590045
0.556,-1.3131854142086798,5899.625122038507
0.56,-1.3030324706711969,5897.141037999631
0.5640000000000001,-1.2899910403362036,5897.748287716283
0.5680000000000001,-1.2780189555791956,5901.444705704516
0.5720000000000001,-1.2696821221347148,5898.563747532205
0.5760000000000001,-1.265515782834368,5899.71875069499
0.58,-1.2642931701371447,5898.048554611493
0.584,-1.2639340517347228,5907.07785575749
0.588,-1.2625070987940876,5895.480178471333
0.592,-1.258889392519376,5906.206781807368
0.596,-1.252969260353992,5898.3103953302825
0.6,-1.2454994834050253,5901.346132858339
0.604,-1.2377464901181419,5903.011490540733
0.608,-1.23105870775605,5908.716056291744
0.612,-1.2264733490234836,5907.297759179568
0.616,-1.224478366108415,5903.358664405335
0.62,-1.2250019968227872,5902.2875426760975
0.624,-1.2276014988295072,5902.481827282109
0.628,-1.2317204113659443,5892.363496668371
0.632,-1.2368720402464835,5906.441620274259
0.636,-1.2427028806193259,5906.12842957944
0.64,-1.2490020035539084,5901.594459772736
0.644,-1.2557409479665163,5901.966734617543
0.648,-1.263128769749449,5902.040731920565
0.652,-1.2715539444154362,5901.780734703201
0.656,-1.2813204344503408,5895.676984136353
0.66,-1.2922962410727488,5901.4176490887385
0.664,-1.30376644520214,5902.797652257676
0.668,-1.3146727816255097,5890.107632246999
0.672,-1.324087323781611,5905.093165697019
0.676,-1.3315502042559892,5894.382231459038
0.68,-1.3370148995468691,5902.270604221825
0.684,-1.3404653353538283,5901.088856486174
0.6880000000000001,-1.3415282312787389,5910.002069563129
0.6920000000000001,-1.3394146517017296,5903.654537250478
0.6960000000000001,-1.333280935781024,5901.687979971999
0.7000000000000001,-1.3227991628835944,5896.859287218783
0.704,-1.3086117796340546,5907.527957834522
0.708,-1.2924563984853774,5892.103871214711
0.712,-1.2769290315511794,5903.639673762486
0.716,-1.2649636917380587,5892.895734081952
0.72,-1.2591384619975174,5896.817857349309
0.724,-1.2609457949928362,5895.38771332239
0.728,-1.2702211871186506,5899.307653971326
0.732,-1.284961992253178,5897.085623922758
0.736,-1.301700171976088,5897.926933146336
0.74,-1.316383842841931,5881.213815797329
0.744,-1.3254751407562004,5898.046323634506
0.748,-1.3268609753289595,5906.230554493679
0.752,-1.3202618333101173,5903.322224795762
0.756,-1.3070376195433957,5904.139144161599
0.76,-1.289541058891756,5902.802049858326
0.764,-1.2703694520304647,5902.437900874343
0.768,-1.2518806435990417,5900.263583027095
0.772,-1.2361045056162678,5903.211874258078
0.776,-1.2248525625756987,5906.538250751224
0.78,-1.2196933959280665,5902.041904998775
0.784,-1.2216485455899393,5901.666380914889
0.788,-1.2307945068466344,5888.747976213082
0.792,-1.246118414387383,5902.964037587711
0.796,-1.265802387594807,5894.902358835086
0.8,-1.2877529565035635,5895.774779475262
0.804,-1.3100102947074848,5898.055288027379
0.808,-1.3308423959412687,5904.111804057453
0.812,-1.3486173761775937,5904.434354282197
0.8160000000000001,-1.3616505222567181,5888.186391197824
0.8200000000000001,-1.3681440306036092,5901.111695917497
0.8240000000000001,-1.3662554026551423,5889.613295215844
0.8280000000000001,-1.3543206939128385,5896.190558568979
0.8320000000000001,-1.3312739180361057,5901.623952454258
0.836,-1.2972696485753659,5898.173015244309
0.84,-1.2543796236666716,5902.246008567977
0.844,-1.207036423583434,5895.365997441155
0.848,-1.161812252650827,5892.84121026532
0.852,-1.126319108385757,5907.387604221033
0.856,-1.1074456611832713,5902.211178848895
0.86,-1.1095149462013523,5895.935839133846
0.864,-1.1329995773314254,5893.723966096748
0.868,-1.1741878042483662,5901.8168550569935
0.872,-1.2258632871039021,5904.358327519477
0.876,-1.278810462441633,5892.601980320938
0.88,-1.3238160344016154,5899.202866186204
0.884,-1.3537420700608869,5899.534208693546
0.888,-1.3651577595618505,5898.603859323847
0.892,-1.3590193921287128,5903.950056841797
0.896,-1.3401135118344758,5905.086572883031
0.9,-1.3154154907589983,5901.796455463465
0.904,-1.2919559319742846,5901.334706545295
0.908,-1.2749706857742484,5897.760650363699
0.912,-1.266921840340185,5903.930754924684
0.916,-1.2675346259071918,5899.436548616748
0.92,-1.2745647752076728,5909.701148481836
0.924,-1.284813809835175,5894.895753813855
0.928,-1.294988970997589,5895.4554781723255
0.932,-1.302243159562456,5901.1366392965065
0.936,-1.3044574792068935,5905.716564834154
0.94,-1.3004144152278265,5896.787728695674
0.944,-1.2899261830265778,5899.13932377409
0.948,-1.2738415915426173,5902.6393309868345
0.952,-1.253834328569681,5895.330655195532
0.956,-1.2320269467354092,5903.664011886879
0.96,-1.2106539452406204,5893.2679408588665
0.964,-1.1919106056759554,5900.703175092867
0.968,-1.1779159816626952,5909.774566305695
0.972,-1.1705868510097133,5891.393696353105
0.976,-1.1713048624573712,5893.598925198108
0.98,-1.1804472814844245,5906.252401017932
0.984,-1.1969911235487207,5901.305072016851
0.988,-1.218447109461874,5889.8506771592365
0.992,-1.241298877716222,5906.600608530048
0.996,-1.2618860752505532,5896.864822477012
1.0,-1.2774128010290111,5904.873508735707
1.004,-1.286695750629362,5897.624389514053
1.008,-1.2904043837636645,5889.831385691369
1.012,-1.2907319263059538,5896.180990495684
1.016,-1.2905851070001386,5903.07943892172
1.02,-1.2925228578825203,5902.703881216631
1.024,-1.297807123489766,5900.343222934681
1.028,-1.3059518654158542,5901.414829733431
1.032,-1.3149841036677454,5891.791729139966
1.036,-1.322318236625024,5903.31983383422
1.04,-1.3258549628152576,5905.637252011506
1.044,-1.3247964384340198,5897.108971763921
1.048,-1.3197909216678232,5888.467357809192
1.052,-1.3123569395420633,5905.253454356636
1.056,-1.303926135924628,5903.70117912938
1.06,-1.2950481507528837,5897.978912620801
1.064,-1.2851965399721146,5905.54775254766
1.068,-1.2732736534286881,5906.433428483374
1.072,-1.258516890327458,5905.368062522016
1.076,-1.2412755150037056,5891.709024922369
1.08,-1.2232189896229033,5899.018709387285
1.084,-1.2069001592863267,5902.392629793872
1.088,-1.194949272039708,5903.240400080927
1.092,-1.1892789435935778,5904.56288159895
1.096,-1.1905604584265237,5907.353719066073
1.1,-1.1980714177050433,5902.59260486679
1.104,-1.2099178143666807,5888.2881478206855
1.108,-1.2235662237124938,5902.004121213001
1.112,-1.2365308120128151,5903.679848198882
1.116,-1.2469782891325403,5901.242744583972
1.12,-1.254025686150645,5896.160002520483
1.124,-1.257636348723986,5897.88424723385
1.128,-1.2582107440750903,5904.871167900496
1.132,-1.2561235004286133,5893.790554550182
1.136,-1.251479501460831,5900.424227820967
1.14,-1.2442200488220425,5906.855061715972
1.144,-1.2344913773456645,5896.569239389243
1.148,-1.223040432719348,5895.158119617155
1.152,-1.2114172394168337,5901.0567988226
1.156,-1.2018834655501498,5903.347239041124
1.16,-1.197021488721783,5901.849427453474
1.164,-1.1990869717764232,5896.325189154904
1.168,-1.2092416308198553,5904.063472295317
1.172,-1.2269343370055503,5907.0798590198665
1.176,-1.249717126729271,5903.619806165111
1.18,-1.2736083289061093,5894.543515158854
1.184,-1.2938765123482223,5905.001962446576
1.188,-1.3059997047659557,5900.940675036012
1.192,-1.3065732455981034,5896.339944749237
1.196,-1.2939950463657235,5910.000288650975
1.2,-1.2688187798536037,5890.812285122685
1.204,-1.2337596509434445,5900.442171824045
1.208,-1.1934073519674648,5898.490531607894
1.212,-1.1536745396480819,5900.091910357583
1.216,-1.1209637141852382,5892.228444527337
1.22,-1.10111213779558,5903.012364732866
1.224,-1.0983328720948247,5909.345089186812
1.228,-1.1144029207373582,5899.5067226357805
1.232,-1.1482024805618063,5900.879801660494
1.236,-1.1955975280868474,5905.8970896109
1.24,-1.2497324061662989,5904.695047943974
1.244,-1.3019015228858135,5897.217952801685
1.248,-1.3430819485301067,5896.936429519142
1.252,-1.3659343146152545,5902.554777229128
1.256,-1.3667696732796966,5893.65660627454
1.26,-1.3468103618340725,5897.335477513604
1.264,-1.312197717221497,5898.2727347097925
1.268,-1.2726211478104281,5906.55297778597
1.272,-1.2389501172651562,5904.744287346807
1.276,-1.2205722206346927,5899.446883921442
1.28,-1.2231357401396885,5895.426669402886
1.284,-1.247150938199897,5895.546032941759
1.288,-1.2876602910157096,5907.386803325098
1.292,-1.335067167350186,5905.79459122878
1.296,-1.3771003770635897,5900.51186203719
1.3,-1.4016510137277824,5896.397288075554
1.304,-1.3998897690865046,5896.511039484357
1.308,-1.368826163045782,5898.753813990275
1.312,-1.3124750739399529,5900.235306729476
1.316,-1.2411409110310467,5897.637264337983
1.32,-1.168937993847583,5898.217810252637
1.324,-1.110270854601991,5894.506714707169
1.328,-1.0763146188237787,5885.931122404764
1.332,-1.0724646643063018,5909.672355776845
1.336,-1.0973701895476695,5903.881432781031
1.34,-1.1436898546966938,5898.737170221704
1.344,-1.2002294863731804,5906.970698540714
1.348,-1.2547705260107747,5899.309832034423
1.352,-1.2968208219501585,5900.433679074548
1.356,-1.3196998512002784,5898.191473371569
1.36,-1.3215985716538852,5909.658807435789
1.364,-1.3054370979116734,5906.079544806125
1.368,-1.277601294105047,5904.154314690205
1.372,-1.2459879462983159,5900.402909117028
1.376,-1.2180205384290703,5892.336670541328
1.38,-1.1992343253997964,5900.863116842613
1.384,-1.1926971538288673,5895.9727949710405
1.388,-1.199136045850451,5907.531136551676
1.392,-1.2174197916279113,5901.49194973226
1.396,-1.2450897972721344,5907.156724433299
1.4,-1.278815356737938,5908.548368767695
1.404,-1.314793685735481,5899.171422170703
1.408,-1.3491175858298865,5908.0517521345855
1.412,-1.3780481159443825,5897.40068290586
1.416,-1.3981369752517756,5902.166973416754
1.42,-1.4063155095577533,5904.718920402125
1.424,-1.400198375509689,5897.05333903891
1.428,-1.3787133996548584,5897.666490973487
1.432,-1.342855473876393,5906.916944258531
1.436,-1.2961607306494847,5897.615478795994
1.44,-1.2445462444684896,5902.693905690106
1.444,-1.1953793217691637,5903.400264479592
1.448,-1.1559136913677688,5904.924991658144
1.452,-1.131500500958226,5895.738966445501
1.456,-1.1241624239490082,5905.1232812647
1.46,-1.1320579928829848,5897.657578601709
1.464,-1.1500204099832487,5902.240606288838
1.468,-1.1709288568376852,5899.668566769028
1.472,-1.1874205604911894,5899.587138020575
1.476,-1.1934609547634425,5904.330789826183
1.48,-1.1854680648368248,5904.0216942074485
1.484,-1.162899118088448,5908.868102586771
1.488,-1.12833134697105,5898.492072027931
1.492,-1.0870659384379677,5893.301366218803
1.496,-1.0462492638158625,5900.636497641675
1.5,-1.0135697106478303,5897.1253633799215
1.504,-0.9957476559256849,5901.144689598622
1.508,-0.9971478188427978,5904.000695276687
1.512,-1.0188134844829957,5918.555844682839
1.516,-1.0581164437391575,5896.485391456894
1.52,-1.1091233850880706,5899.637445516351
1.524,-1.1636719226566632,5897.745869692692
1.528,-1.212987614057466,5898.713232956069
1.532,-1.2495145014293698,5897.446239276039
1.536,-1.2685403603229937,5905.191973768775
1.54,-1.2691833258594065,5888.555214282209
1.544,-1.254406225898212,5898.792764822687
1.548,-1.2300055599515018,5899.789953521169
1.552,-1.2029190616122223,5901.010351399727
1.556,-1.1794663550997981,5896.987217556367
1.56,-1.1640996664735117,5899.289452082967
1.564,-1.1589595152852745,5895.57740457557
1.568,-1.1641663816740837,5890.564173166657
1.572,-1.1784689220577849,5902.735519914831
1.576,-1.1997865568520563,5904.182007704016
1.58,-1.2254226978719405,5900.321248967574
1.584,-1.2520800449257063,5902.52125381851
1.588,-1.2759615690123733,5896.624585570438
1.592,-1.2931317810682204,5893.118033736584
1.596,-1.300135593702195,5890.724775488022
1.6,-1.29476142035863,5898.652309659336
1.604,-1.2767599781448793,5885.647826430759
1.608,-1.2482653578381853,5897.21627011025
1.612,-1.213684679318777,5904.92161555435
1.616,-1.1789681402446355,5901.215335352331
1.62,-1.1503755226498034,5903.179427364271
1.624,-1.1330507026730023,5896.443454931245
1.628,-1.1298577273713164,5897.476243352084
1.632,-1.1409078251215068,5900.801459233944
1.636,-1.1639228189100908,5899.434225925216
1.64,-1.1951702795604038,5915.404856648816
1.644,-1.2304782412036657,5906.890399802455
1.648,-1.2659551448798452,5894.101911153051
1.652,-1.298344691904714,5896.746813051104
1.656,-1.325158576449726,5898.675747828256
1.66,-1.34475503552858,5900.923766418494
1.664,-1.3564507166439181,5902.328230625044
1.668,-1.360642142428262,5889.186929948018
1.672,-1.3588008297323524,5896.402620481778
1.676,-1.353161263710126,5908.232278381332
1.68,-1.3460323916017314,5895.775366096103
1.684,-1.33891739244188,5906.629044626495
1.688,-1.33184000392464,5898.963010946784
1.692,-1.3232415030936189,5896.092192716818
1.696,-1.3105437962978548,5905.13954891084
1.7,-1.2911898607744754,5899.584083354014
1.704,-1.2638312920868788,5901.572078533863
1.708,-1.2293169313492043,5902.320008148788
1.712,-1.1911729622993066,5903.934788859368
1.716,-1.1553319234855297,5900.178841623121
1.72,-1.1290136959098667,5904.327356418053
1.724,-1.1189353936883568,5909.279144076886
1.728,-1.1293508503005287,5899.97911481208
1.732,-1.160587262626936,5889.211283807065
1.736,-1.2086174985533173,5901.949761800214
1.74,-1.2658467578302488,5903.6644708968815
1.744,-1.3228750413182433,5900.418973912447
1.748,-1.370656118267746,5896.705306279891
1.752,-1.402319397791627,5896.518271441092
1.756,-1.4140825053947554,5902.306834898436
1.76,-1.4051499171034623,5900.57311981222
1.764,-1.3769818518753907,5904.451751286009
1.768,-1.3324988296647404,5891.024124263674
1.772,-1.275624007218298,5909.50211799401
1.776,-1.211268793107775,5902.135948163232
1.78,-1.1456131435352992,5904.481855759621
1.784,-1.0863679566471234,5913.207376586286
1.788,-1.042636561380887,5898.438574655973
1.792,-1.024026624781162,5900.686032794088
1.796,-1.0388275514455554,5899.068857923462
1.8,-1.0913633088458932,5897.2371550509
1.804,-1.178975067723057,5889.244523837637
1.808,-1.2893638181544598,5906.939661248308
1.812,-1.399191032879247,5897.602410839253
1.816,-1.4748944633053924,5902.336811269395
