时间(s),电压(V),幅值(高频80K)
0.0,-0.9165023314263482,5898.959378172848
0.004,-1.0746155775130324,5898.301742536167
0.008,-1.2109876145016314,5900.75734108453
0.012,-1.3080712267019328,5896.0103232593065
0.016,-1.3564403433967969,5898.2962546709305
0.02,-1.3561894935167045,5901.533392203068
0.024,-1.3159042143159305,5903.306529432484
0.028,-1.2497831074538852,5892.426128136715
0.032,-1.174057390520799,5902.750417429121
0.036,-1.1037973431246682,5904.852454079496
0.04,-1.0506804304362714,5902.491001635994
0.044,-1.021784438435254,5901.452617215991
0.048,-1.0192546095668562,5902.678938267028
0.052,-1.0407120384701112,5894.788163979399
0.056,-1.08028554744128,5895.081139858158
0.06,-1.130066058338284,5899.678218316933
0.064,-1.1817254812924096,5894.004147158699
0.068,-1.2280979789767632,5895.9571139742375
0.072,-1.2645537366306956,5903.070175111824
0.076,-1.289867787755544,5899.805305145699
0.08,-1.3061624017965812,5903.862176640686
0.084,-1.3177041354337637,5895.984638311291
0.088,-1.3288964121151756,5896.997258820676
0.092,-1.3423215735883065,5896.876779946898
0.096,-1.3577038336460097,5899.922543381775
0.1,-1.3721594731595579,5903.802574767789
0.104,-1.381479302703444,5898.734058135139
0.108,-1.3818399846474867,5899.285545551807
0.112,-1.3713048301418327,5895.004865511437
0.116,-1.3506191206005913,5897.675719596097
0.12,-1.3230899583249458,5894.57632078272
0.124,-1.293717136469894,5894.110481324455
0.128,-1.2680044960046417,5903.136951954214
0.132,-1.2508534444732495,5896.454732977658
0.136,-1.2457047494879956,5897.020947697739
0.14,-1.2539066322783172,5898.818110873459
0.144,-1.2743036119019975,5904.5593200791
0.148,-1.3031894266574788,5906.361791005811
0.152,-1.3348428973050428,5903.945743817249
0.156,-1.3627191084298707,5907.606018175665
0.16,-1.3810362435332337,5901.22351122262
0.164,-1.3862105728345713,5898.00079588775
0.168,-1.377616034405101,5894.640407046026
0.172,-1.3574926120829076,5895.238782273769
0.176,-1.3301847115618024,5900.096909078099
0.18,-1.3009960116544579,5907.451305514713
0.184,-1.2749032575180126,5895.674886562293
0.188,-1.2553967669732151,5903.653510038273
0.192,-1.2437735272628463,5908.562054293136
0.196,-1.2391007239871237,5896.875432646808
0.2,-1.2387891043177606,5893.933256879059
0.204,-1.2394997077261045,5904.8003599233625
0.208,-1.2381095233985984,5900.347906202784
0.212,-1.2325874947550852,5899.509603329099
0.216,-1.2226972637619848,5902.29195368669
0.22,-1.2103721700235874,5910.813462612253
0.224,-1.1995097343135288,5893.969284755025
0.228,-1.1950105453495241,5897.695433736252
0.232,-1.2012042823065832,5905.779580638676
0.236,-1.220173242093428,5899.720562360833
0.24,-1.25062927827068,5890.588507193299
0.244,-1.2878204728057723,5898.510458782764
0.248,-1.3245634056540043,5901.332058066549
0.252,-1.3531070162776544,5900.553326521395
0.256,-1.367246852639724,5905.449412946208
0.26,-1.363991933841381,5902.670703982413
0.264,-1.3442276525153751,5900.257872575272
0.268,-1.3122255569397683,5897.705858887278
0.272,-1.2743171750717799,5899.643825774295
0.276,-1.2372696084278816,5906.999364216715
0.28,-1.2068023845373046,5903.612757802662
0.284,-1.1864929098464199,5906.233301506194
0.288,-1.177230381108065,5901.616402042397
0.292,-1.1773470673028148,5908.368654694609
0.296,-1.1834322648798035,5910.010925178426
0.3,-1.1915975250458248,5892.838651076471
0.304,-1.1987665868298618,5897.382308308593
0.308,-1.203571055425712,5889.098131918948
0.312,-1.2066233658514445,5901.689427899691
0.316,-1.2101670206407296,5903.088465107481
0.32,-1.2172784777222811,5901.890236580943
0.324,-1.2308830443256769,5902.260971366481
0.328,-1.2528246882699923,5901.275511171782
0.332,-1.283139951529599,5891.542791762955
0.336,-1.3196317243231699,5908.324597104476
0.34,-1.3578538025964584,5899.803024551489
0.344,-1.3916344959205365,5901.544193165881
0.348,-1.4141990446802952,5896.603006627982
0.352,-1.4197509086923272,5893.235870606412
0.356,-1.4051051201113103,5897.832662633481
0.36,-1.3708306289115355,5909.066289525628
0.364,-1.321497405540312,5908.389579413206
0.368,-1.2649297812325915,5910.6810146966645
0.372,-1.2106358420630992,5897.2023334116975
0.376,-1.167774786551096,5907.176593827045
0.38,-1.1431737952111827,5900.930702605706
0.384,-1.1399339315575956,5890.926355607326
0.388,-1.1569952213975725,5900.331467395278
0.392,-1.189730282471322,5898.831825207877
0.396,-1.2313231195511838,5902.306857423754
0.4,-1.2744723179511788,5895.641751183886
0.404,-1.312923537811045,5899.460834725855
0.408,-1.3424613214637329,5903.290026971577
0.412,-1.3611731370944995,5900.123725110745
0.416,-1.3690206751471354,5904.94976200423
0.42,-1.3670102617841737,5896.534129925204
0.424,-1.3564105138245433,5887.623279193213
0.428,-1.3383915603748016,5901.764456734548
0.432,-1.3141963766279285,5898.348928695231
0.436,-1.285642324604207,5904.638225372481
0.44,-1.255540820897105,5899.803175252145
0.444,-1.2276429433042397,5895.967617434428
0.448,-1.205983468148894,5900.916551549874
0.452,-1.1938490042953065,5904.357089740581
0.456,-1.192810586979371,5892.641339912445
0.46,-1.2022161622871113,5893.876549674232
0.464,-1.2193070732646885,5903.359421314113
0.468,-1.239883070284087,5907.227024851015
0.472,-1.2593077253734166,5899.122635483156
0.476,-1.273615705994453,5902.119643479209
0.48,-1.280487678663685,5903.790856222938
0.484,-1.2798503931358778,5898.335065296514
0.488,-1.2738897736376207,5904.49919291978
0.492,-1.266429761627711,5897.003789219124
0.496,-1.2618680970014158,5900.4054496887975
0.5,-1.2639681117792412,5894.70021046467
0.504,-1.2747538738470625,5899.842946408596
0.508,-1.2937305563617096,5902.462268729666
0.512,-1.317686902855755,5893.188408419608
0.516,-1.3412480228710721,5907.6814624164135
0.52,-1.3580974179314402,5901.266277658997
0.524,-1.3625767352700946,5901.021149939785
0.528,-1.3513042242076914,5895.954310981632
0.532,-1.3244158982455863,5906.3741953705285
0.536,-1.2859924197876458,5899.793543940115
0.54,-1.2433681672256585,5907.885095791479
0.544,-1.2054132824780526,5904.930992795469
0.548,-1.1803106093158178,5898.710874438649
0.552,-1.1735229121624262,5892.560856118787
0.556,-1.1865101576536001,5903.811560142292
0.56,-1.2164739094152197,5905.418377772965
0.5640000000000001,-1.257128717433316,5890.3975169217765
0.5680000000000001,-1.3002748261582875,5888.069740174882
0.5720000000000001,-1.3377698097926802,5895.188960606735
0.5760000000000001,-1.363399611206439,5900.1822543149865
0.58,-1.3741880006063658,5896.511452655693
0.584,-1.3708371936846049,5913.058064496572
0.588,-1.3571806372425435,5895.196195232241
0.592,-1.3387590212863707,5894.794501341464
0.596,-1.3209367661505835,5895.585562043223
0.6,-1.3072245923203345,5903.361100000555
0.604,-1.2984523960069614,5899.9902251815765
0.608,-1.2930984357346342,5904.569293081207
0.612,-1.2885745532263335,5904.776474589135
0.616,-1.2828270118179117,5904.57642338018
0.62,-1.2754635239172576,5907.869690457488
0.624,-1.2678812023262016,5899.138772698755
0.628,-1.2624499383100038,5902.312861344586
0.632,-1.261331135489455,5900.70373577425
0.636,-1.265589149341074,5900.974106967592
0.64,-1.2749009707914187,5900.192472544747
0.644,-1.2877995945961032,5901.373967336002
0.648,-1.3022694576648872,5896.305434847523
0.652,-1.3165308334798258,5906.721324290987
0.656,-1.3297981215246004,5891.845227889039
0.66,-1.3426871011609414,5890.678177071333
0.664,-1.3569707098527768,5894.331480819643
0.668,-1.3746547326156868,5894.622195618191
0.672,-1.3967357971772507,5903.570997411744
0.676,-1.4222508235634541,5896.868684966961
0.68,-1.4481313270912592,5894.555197986556
0.684,-1.4699507522229753,5897.823976789935
0.6880000000000001,-1.4831800055342013,5901.749432679153
0.6920000000000001,-1.4843935862617508,5897.326036934621
0.6960000000000001,-1.472060713864931,5894.753495582805
0.7000000000000001,-1.446855659069249,5905.653880140808
0.704,-1.411564297948222,5901.791758156593
0.708,-1.3706320092384037,5892.631780329471
0.712,-1.329370382522481,5905.950493384591
0.716,-1.292943461284613,5896.30557548897
0.72,-1.2654083749483602,5898.84922576034
0.724,-1.2491158625872363,5911.234113100867
0.728,-1.2446334857821932,5905.166029961585
0.732,-1.251142541700721,5899.331014303966
0.736,-1.2670739842924361,5898.702741376757
0.74,-1.2906274381998208,5892.480661558016
0.744,-1.3198534445972085,5895.48694675744
0.748,-1.3522613867333502,5902.542597575882
0.752,-1.384311006924157,5890.521975981034
0.756,-1.411330135153498,5899.689624711669
0.76,-1.4281887602546048,5899.901140414581
0.764,-1.4306077731145215,5909.225338148686
0.768,-1.416622848576623,5904.196484070998
0.772,-1.3876392752504947,5908.9370211517535
0.776,-1.3486411717791853,5897.982822011104
0.78,-1.3073650602345872,5902.783352532248
0.784,-1.2725872224713042,5906.080144886171
0.788,-1.2520038817298837,5900.070498971305
0.792,-1.2503204062718571,5901.210260297903
0.796,-1.2680665226032657,5906.915420150684
0.8,-1.3014488973159177,5901.451520798373
0.804,-1.3433280195836474,5896.361694087056
0.808,-1.3851204671477015,5899.290235834681
0.812,-1.4190801434085831,5895.571568417065
0.8160000000000001,-1.4401854016380864,5895.647222631692
0.8200000000000001,-1.4469821327605983,5906.607552626062
0.8240000000000001,-1.4412022585329396,5906.775090841142
0.8280000000000001,-1.4264986157527162,5903.708300242332
0.8320000000000001,-1.406907088983912,5903.829616920317
0.836,-1.3856067445433706,5890.0033793000375
0.84,-1.364323261840924,5899.212508370257
0.844,-1.3434428944124424,5898.312212736266
0.848,-1.3226579044548143,5887.882561398697
0.852,-1.301802508399469,5902.220368531688
0.856,-1.281506514825612,5896.275490065187
0.86,-1.2634146528039445,5903.719187090143
0.864,-1.2499236055188283,5894.979084551697
0.868,-1.2435428774486603,5900.168149784883
0.872,-1.246054017095826,5902.372889333579
0.876,-1.2577182466381596,5907.5636907745375
0.88,-1.2768803123560153,5893.025698252697
0.884,-1.3002626209195693,5895.912099973137
0.888,-1.3239133548736324,5904.882642657979
0.892,-1.3443561431344395,5892.582305726131
0.896,-1.359360218094465,5897.180927965824
0.9,-1.3680507173823553,5900.452618196013
0.904,-1.370539747763041,5901.224460220696
0.908,-1.3674948271023175,5914.3724666626695
0.912,-1.3599589233907117,5897.364415142318
0.916,-1.3494544367862629,5893.793362353268
0.92,-1.3381412455397728,5902.6669546370185
0.924,-1.3287098247587308,5906.385341080491
0.928,-1.323845659686113,5904.817202052498
0.932,-1.3253926921302355,5899.324467999758
0.936,-1.333559025614895,5904.138655266456
0.94,-1.3465385974385493,5894.329880942427
0.944,-1.3607931128194402,5897.035830074142
0.948,-1.372013171979301,5906.760940743156
0.952,-1.3765360485381497,5899.7868774503295
0.956,-1.3728118187191707,5898.534171293783
0.96,-1.3623996554472906,5900.673466256818
0.964,-1.3499802253861022,5898.842631557082
0.968,-1.3421050262699057,5901.669904696665
0.972,-1.3449171645878277,5900.082528220228
0.976,-1.361666135445968,5900.951535924534
0.98,-1.3911073187111231,5899.621039258167
0.984,-1.4275541216578624,5904.663590045448
0.988,-1.462580983735343,5902.372073354926
0.992,-1.4876355383837636,5900.335891447371
0.996,-1.496517204453783,5895.377955415386
1.0,-1.486905693458813,5894.035020815208
1.004,-1.460662900975671,5903.906423685031
1.008,-1.4230985875173636,5896.544813607268
1.012,-1.381521731176246,5896.75460639768
1.016,-1.3433460980826628,5904.253702642473
1.02,-1.3141216568854293,5896.431100327269
1.024,-1.2961050150234128,5899.148969957602
1.028,-1.2879591647193414,5901.406250877159
1.032,-1.2857000529187792,5897.633033931285
1.036,-1.2844184530165714,5899.933656685356
1.04,-1.28002876117999,5908.696355466158
1.044,-1.2704230130411718,5894.273815327171
1.048,-1.2557659094082683,5909.0165483589935
1.052,-1.2380404698962084,5892.276597561559
1.056,-1.220177828954417,5891.1224447488685
1.06,-1.2051309117445785,5900.330493821577
1.064,-1.1951608721054676,5899.130773578064
1.068,-1.1914817154476915,5889.889468691229
1.072,-1.1942745053435033,5900.561316756845
1.076,-1.2029602271917303,5893.80743675353
1.08,-1.2165477225652126,5901.524353673574
1.084,-1.23387126167863,5894.171997596706
1.088,-1.2536294233677234,5897.948941108765
1.092,-1.2743329490849342,5900.369354682357
1.096,-1.2944121801605333,5894.528781427891
1.1,-1.312601534184919,5898.36189169069
1.104,-1.3283543908969222,5899.203618825584
1.108,-1.3418509995542156,5889.293484655334
1.112,-1.3534467174647893,5906.862998382242
1.116,-1.3629226364316407,5897.649890048936
1.12,-1.3691066340668148,5901.47743492456
1.124,-1.3701500918188856,5905.786712973772
1.128,-1.3643207050053707,5897.579956402892
1.132,-1.3509743140659431,5892.476883558061
1.136,-1.3313627802658083,5905.225796115281
1.14,-1.3089228238116335,5900.5406875241
1.144,-1.2887422121395584,5899.430718867987
1.148,-1.276203254436544,5895.695214742515
1.152,-1.2752428228222914,5904.50134519949
1.156,-1.2868987041586795,5903.71308515252
1.16,-1.308681367319847,5894.798686289882
1.164,-1.3349655913042606,5893.096580788195
1.168,-1.3582724351416215,5899.845680036547
1.172,-1.3711403382044847,5898.851293154462
1.176,-1.3682038725995833,5905.353892895343
1.18,-1.3479605506208847,5906.76602033335
1.184,-1.3135785707353866,5908.454808575832
1.188,-1.2722794566217184,5902.71716371676
1.192,-1.2333885576689447,5904.7439158849
1.196,-1.205722935352812,5901.461628021119
1.2,-1.1952027569266168,5891.429179063129
1.204,-1.203396160401767,5896.675981350567
1.208,-1.2273253270765851,5890.527272713191
1.212,-1.2604473339860183,5899.971123317148
1.216,-1.2944138397139777,5907.581866612868
1.22,-1.3211084912906979,5901.9974054543245
1.224,-1.334524460861544,5899.775958454008
1.228,-1.332126741174928,5893.824701423543
1.232,-1.3153892846788722,5890.531032585839
1.236,-1.2893202156481232,5901.613413412312
1.24,-1.2610736128539077,5892.00699775255
1.244,-1.2380767785326745,5902.972369924329
1.248,-1.2262555134296946,5902.877808946208
1.252,-1.2288166571255592,5900.052521940989
1.256,-1.2457667530517584,5891.093413357813
1.26,-1.274119385883325,5902.514703562799
1.264,-1.308657868701428,5897.657240402939
1.268,-1.3430882633025676,5903.077007272184
1.272,-1.3713532987769474,5901.4955967304295
1.276,-1.3888178802069182,5893.165139753619
1.28,-1.3930632065882809,5894.29326195357
1.284,-1.3841613291720825,5894.772677251378
1.288,-1.3644953761258571,5892.897897456179
1.292,-1.3383133693735074,5902.556588987432
1.296,-1.311125370845262,5898.994040964395
1.3,-1.288867518073488,5902.4664077360885
1.304,-1.2767531508835601,5901.750240228867
1.308,-1.277983698426466,5900.52712363447
1.312,-1.2927342367869477,5907.02022333081
1.316,-1.3178621359853484,5896.163317038535
1.32,-1.34763834076397,5909.510795694697
1.324,-1.375466541810673,5897.317339581437
1.328,-1.3960471971436754,5898.156531674224
1.332,-1.407060464703794,5899.615454080968
1.336,-1.4095743066295776,5897.939907444744
1.34,-1.407023237262817,5899.485962921758
1.344,-1.4033155587751476,5898.432438870473
1.348,-1.400980197154038,5903.533557498489
1.352,-1.4001325963831723,5899.630234109895
1.356,-1.398595834484935,5897.547550346751
1.36,-1.3930499863216395,5899.694654450318
1.364,-1.3807563773801446,5892.359041019123
1.368,-1.3611792842878072,5896.07843011375
1.372,-1.336754052416291,5903.566752025852
1.376,-1.312335846938963,5896.696654755484
1.38,-1.2934900116026051,5905.151234251503
1.384,-1.284361656069321,5900.853776044973
1.388,-1.2860429718265376,5903.174866826238
1.392,-1.296127250868178,5896.420760365874
1.396,-1.3096480254703917,5895.632431601597
1.4,-1.3210288451498944,5896.0615350523085
1.404,-1.3262376619310576,5902.883696786565
1.408,-1.3242344709928606,5903.308275542066
1.412,-1.317088457568862,5903.350142778912
1.416,-1.3087531764280098,5896.54993188302
1.42,-1.3031334567008201,5893.9967996818095
1.424,-1.3023479065232197,5893.10128173768
1.428,-1.3058663801456774,5893.366520430595
1.432,-1.3107464790442651,5905.665912338283
1.436,-1.3127906468849266,5897.677811030426
1.44,-1.3081879859939614,5904.591658579742
1.444,-1.295086344365149,5907.619025223723
1.448,-1.2745465094408726,5899.926040649853
1.452,-1.2504866472784908,5901.730435919733
1.456,-1.2285680900535554,5897.294034781382
1.46,-1.2144061990819033,5898.7932528575775
1.464,-1.211777936210081,5904.789649075293
1.468,-1.2214872045096328,5887.898609515909
1.472,-1.2412739061047926,5897.649808182898
1.476,-1.2667354006897469,5905.359620340622
1.48,-1.2928244319922089,5898.745105871711
1.484,-1.3152855399556882,5905.038282715308
1.488,-1.3315057124250642,5882.680599851947
1.492,-1.3406008693114357,5906.975575396295
1.496,-1.3429271958099689,5903.31051979811
1.5,-1.3394133533967574,5895.29776854954
1.504,-1.331077438961684,5898.815760550233
1.508,-1.3188781950075594,5903.437451024353
1.512,-1.303826694116311,5902.047277148571
1.516,-1.2871817448243041,5900.279755994236
1.52,-1.2705363632758147,5909.598373193513
1.524,-1.2556269206777637,5906.949630733722
1.528,-1.2438368100224373,5894.799416711885
1.532,-1.2356365851998354,5901.949262577747
1.536,-1.230388025511559,5903.902242308067
1.54,-1.2267994997580474,5889.860695905664
1.544,-1.2238893024060225,5898.678791898703
1.548,-1.2219247753017566,5903.375449503849
1.552,-1.2227848305426583,5888.637600362824
1.556,-1.2295316498019193,5906.357823843099
1.56,-1.2453641770450543,5892.368936460619
1.564,-1.272307872455416,5901.430010997061
1.568,-1.3099920473470115,5908.066644337254
1.572,-1.3548496129356553,5897.871065798167
1.576,-1.400095630271919,5898.720198077391
1.58,-1.4367435416524283,5896.759624074611
1.584,-1.45558487121414,5908.243628332468
1.588,-1.4496589486018474,5898.445458542449
1.592,-1.4165597671388854,5903.440794125641
1.596,-1.3600107773291392,5900.082139331629
1.6,-1.290290961267742,5898.481600342965
1.604,-1.2232213951388673,5894.082528495229
1.608,-1.1776180544167123,5903.162174740477
1.612,-1.1714193258213432,5903.271836780692
1.616,-1.216980996861279,5899.907335874457
1.62,-1.3162351325705948,5901.635891242795
1.624,-1.456645174093197,5887.164488868712
1.628,-1.6091974495895487,5897.89987836519
1.632,-1.7297874870339809,5900.336966789509
1.636,-1.764934021212802,5903.136023717037
1.64,-1.6617014834845811,5898.085299116538
1.644,-1.3802677289166478,5907.986176217383
1.648,-0.9061475254008448,5894.0279514087615
1.652,-0.2582130603740014,5895.99405339701
1.656,0.5110278858998037,5897.646257412263
1.66,1.3244315584096866,5900.518612605959
1.664,2.0965754925472613,5912.688239248777
1.668,2.7522314872817644,5926.024193979369
1.672,3.24078200539909,5949.636984669199
1.676,3.542633165536015,5967.823765304683
1.68,3.667360896666757,5986.01352647482
1.684,3.64610789849588,5997.887501344294
1.688,3.5216544011116526,6015.347681183962
1.692,3.339029939446393,6042.339652434002
1.696,3.138331549836487,6052.1185677900985
1.7,2.9502614403219924,6064.292739031107
1.704,2.7941947263094353,6088.813406403811
1.708,2.678335884776263,6093.06874527576
1.712,2.6014721014446187,6114.911908056463
1.716,2.5557826098760104,6121.274515060274
1.72,2.5300912400709747,6140.195161659788
1.724,2.5129446604052155,6151.442548504704
1.728,2.4950273580691453,6178.745030134673
1.732,2.4706258622338555,6189.021029831981
1.736,2.438032021637253,6203.020712597198
1.74,2.398940979592252,6209.238380927631
1.744,2.357107550429872,6218.221595949035
1.748,2.3167271517493466,6236.615258805846
1.752,2.2810791938811845,6237.461791828927
1.756,2.2518261247661884,6260.343086394055
1.76,2.2290354217705834,6271.011721466482
1.764,2.2116512959610337,6285.493728242346
1.768,2.1979987029240764,6295.53280440203
1.772,2.1860484367100472,6305.221003650974
1.776,2.1734775816936733,6320.303257240028
1.78,2.157769528571339,6327.066001271217
1.784,2.1365678054465156,6328.340884796984
1.788,2.1082855365130233,6356.4634616268
1.792,2.0727314849492045,6355.1073773606895
1.796,2.031394154344202,6363.935321678477
1.8,1.9871347833491035,6373.341511721553
1.804,1.943355877255539,6389.723003582656
1.808,1.9030208891050628,6400.655109059558
1.812,1.8679593282533975,6403.871818727826
1.816,1.8386698724280957,6406.564331948636
1.82,1.8145252219614862,6422.840902123687
