时间(s),电压(V),幅值(高频80K)
0.0,-1.30531447914443,5904.422746756013
0.004,-1.3844177452642736,5901.1899592431
0.008,-1.4546186972290858,5895.164060959965
0.012,-1.5080122762522516,5901.060570001768
0.016,-1.5393842560995556,5902.607741819146
0.02,-1.546571607076165,5899.657025591485
0.024,-1.53024543554787,5904.8886693330805
0.028,-1.493415750791113,5899.855518310375
0.032,-1.4409231865387837,5902.155974579175
0.036,-1.3790338386675207,5904.651928963336
0.04,-1.315007402893723,5894.294196790233
0.044,-1.2563704028067815,5886.056842173842
0.048,-1.2098295323571606,5892.695432658634
0.052,-1.1801472613162807,5903.796506811587
0.056,-1.1694358772101197,5901.807318600265
0.06,-1.1770788466353825,5904.01266063049
0.064,-1.200186012430711,5902.43817360138
0.068,-1.2344085811251793,5901.998277180337
0.072,-1.2749663039694281,5903.780317357834
0.076,-1.31765416728092,5891.932139659007
0.08,-1.3594750303146317,5902.476228460985
0.084,-1.3986558810066214,5897.211738427382
0.088,-1.4341777150816717,5899.273896531726
0.092,-1.4652506213954506,5898.839048919412
0.096,-1.491089854952889,5900.51270261363
0.1,-1.5109968778927283,5897.033715733696
0.104,-1.5244998136439007,5886.189803662471
0.108,-1.531366539571786,5895.955437581926
0.112,-1.5315174891012007,5900.531377544459
0.116,-1.5249712347389246,5898.359869918706
0.12,-1.5118954840393994,5897.05051231742
0.124,-1.492746058490618,5901.199402253718
0.128,-1.468453304293165,5881.869517712575
0.132,-1.4406210257011054,5896.858997163499
0.136,-1.4116705775762517,5901.402509103753
0.14,-1.3847961186571505,5903.273009322815
0.144,-1.3635790234291885,5903.842809433294
0.148,-1.3512356400265573,5896.763278685256
0.152,-1.3497199856125581,5909.86943877788
0.156,-1.3590656637270178,5902.156091578117
0.16,-1.3772348526355076,5895.007111406312
0.164,-1.400454246759826,5902.91779775998
0.168,-1.4238748512019315,5895.995306194023
0.172,-1.4424623115766502,5897.564952973707
0.176,-1.4520268519408288,5901.797613626878
0.18,-1.4501152335093517,5905.205407826837
0.184,-1.436416734804927,5900.58218759083
0.188,-1.4126138929317615,5898.433813151578
0.192,-1.3819566966400183,5900.654151415026
0.196,-1.3488471637546138,5903.907522960908
0.2,-1.3184342778344342,5902.750642972472
0.204,-1.2960283288720085,5898.916348964803
0.208,-1.2862368879037633,5891.687463104523
0.212,-1.2919165496100296,5891.865884947011
0.216,-1.3131291628175021,5900.062368073859
0.22,-1.346360749629819,5905.965495214887
0.224,-1.3844174392665287,5898.073424046808
0.228,-1.4174712907020433,5899.875521127604
0.232,-1.4353749131969313,5894.517509142514
0.236,-1.4306597952633333,5901.43814175632
0.24,-1.4011042038471473,5897.902174318039
0.244,-1.3508441374030662,5908.048801000235
0.248,-1.289616174554107,5894.714216889432
0.252,-1.2304242157712988,5892.865820100993
0.256,-1.1863632736358536,5903.96060725875
0.26,-1.1674515208244354,5901.201287525436
0.264,-1.1782338181687664,5900.053874220568
0.268,-1.2167152582442105,5900.222328917652
0.272,-1.274874093428079,5902.219713239359
0.276,-1.3406281754617253,5911.628668053824
0.28,-1.4007802955773332,5898.595586113838
0.284,-1.4442164384165255,5897.374663235252
0.288,-1.464519175315034,5897.18518962221
0.292,-1.4612608776282652,5898.797707437192
0.296,-1.4396166306271265,5895.271089457036
0.3,-1.408480567159816,5900.741372677319
0.304,-1.3777281792623384,5903.519335118481
0.308,-1.3554555068646053,5904.237204190141
0.312,-1.3459423481216797,5898.854050560265
0.316,-1.3488181330703912,5901.857176490493
0.32,-1.3595634063431892,5890.74981201764
0.324,-1.3711710959036572,5901.582749687024
0.328,-1.376540215523312,5910.109869784917
0.332,-1.3709159169649154,5905.86539745302
0.336,-1.3535064430880042,5907.127329658813
0.34,-1.3275616290832857,5894.66021139135
0.344,-1.2988026901648901,5894.4849443221965
0.348,-1.2728882042620586,5898.77438619928
0.352,-1.2531021905352913,5886.80352817207
0.356,-1.2393144914739787,5899.108164251275
0.36,-1.2285809209575684,5903.483498614195
0.364,-1.2169673997451445,5908.841952149271
0.368,-1.201718164194572,5905.785723371319
0.372,-1.1828651227548328,5906.602586320179
0.376,-1.1636576726464236,5900.508730116062
0.38,-1.1496057817853604,5904.177633011422
0.384,-1.1464227459061285,5892.030044154007
0.388,-1.1576647108663838,5908.510888578142
0.392,-1.1831073715358533,5903.421479419196
0.396,-1.2185947789237856,5904.098546216285
0.4,-1.2573776957047686,5903.580430088726
0.404,-1.2922990479683072,5904.042122004106
0.408,-1.3179319134362006,5897.391288552233
0.412,-1.3319562468315433,5895.368747263578
0.416,-1.3354716529336523,5900.020193968301
0.42,-1.3323276808263316,5905.516452631428
0.424,-1.327775644278594,5900.995625990248
0.428,-1.32683946254247,5903.943944772572
0.432,-1.3328270908616973,5894.960263373672
0.436,-1.346361237007603,5901.190610472861
0.44,-1.3651960454733916,5902.74359729958
0.444,-1.3849030287505582,5897.893189544135
0.448,-1.4002488671613975,5904.085116570492
0.452,-1.4068376874227118,5906.120652702446
0.456,-1.4025018896628483,5897.56070192813
0.46,-1.3880213127112395,5893.100173770692
0.464,-1.3669471600043406,5901.709916559908
0.468,-1.3445773606730171,5897.156988468121
0.472,-1.3264336706893192,5900.19819372173
0.476,-1.3167755332139477,5900.51694956003
0.48,-1.3176313398363655,5907.520126927115
0.484,-1.3285809222955849,5896.623152859862
0.488,-1.3472359551548232,5902.371505981312
0.492,-1.3701602696917161,5899.362257509759
0.496,-1.393862444613862,5896.001355943782
0.5,-1.41546537460157,5898.116798598644
0.504,-1.4327975536143738,5896.588986370285
0.508,-1.4440002352369938,5911.044325690165
0.512,-1.4470933645722979,5909.365234636131
0.516,-1.4399896792449158,5903.246638506582
0.52,-1.4211282514542507,5908.743747393523
0.524,-1.3904456874192437,5905.892185529293
0.528,-1.3501217989339367,5906.217616153594
0.532,-1.304595977325758,5896.048050503983
0.536,-1.2597056011965595,5894.183394190293
0.54,-1.221237236805751,5904.320226873656
0.544,-1.193464922679535,5904.313291289686
0.548,-1.178262617889965,5901.688704176338
0.552,-1.175148964274822,5903.649407424085
0.556,-1.1822170189490375,5899.404598626492
0.56,-1.1974434831973364,5910.985002641453
0.5640000000000001,-1.2196483689993192,5906.790297133345
0.5680000000000001,-1.2486238296342185,5903.189156306919
0.5720000000000001,-1.2844949816800795,5897.877984802722
0.5760000000000001,-1.3267545571349608,5903.414492086427
0.58,-1.3734052154789929,5895.797591109697
0.584,-1.420474468264484,5902.89681256797
0.588,-1.4621330026451411,5898.863279969194
0.592,-1.491658823160665,5907.213670471699
0.596,-1.5032198250727735,5900.148267506831
0.6,-1.493901470806196,5892.900174768295
0.604,-1.4650328869331222,5903.60873452608
0.608,-1.4220565415554016,5898.611595936222
0.612,-1.3728914046221907,5903.264271316224
0.616,-1.3255344870362689,5893.670932362818
0.62,-1.2860305450224365,5896.112580544876
0.624,-1.2576373843042408,5903.724099775159
0.628,-1.2412119397982198,5903.963441679175
0.632,-1.2361419414813444,5894.356165247354
0.636,-1.241066080223732,5908.031833331438
0.64,-1.2541033782842121,5897.529956983262
0.644,-1.2728242502690807,5910.047497405988
0.648,-1.294313305091169,5908.536137983382
0.652,-1.3154527764070247,5900.729497137553
0.656,-1.3333514350944708,5896.868474084298
0.66,-1.3458337306645953,5898.964833346543
0.664,-1.3519378791483128,5898.918864249337
0.668,-1.3522660656274612,5900.072075413823
0.672,-1.3488735396515155,5905.491418679002
0.676,-1.344485377539372,5900.243507727338
0.68,-1.3412741751402413,5899.477704440921
0.684,-1.339826963928459,5900.841320033349
0.6880000000000001,-1.3388705997224875,5895.763245062717
0.6920000000000001,-1.335896138225942,5892.805901038725
0.6960000000000001,-1.3283824603486398,5890.278281059799
0.7000000000000001,-1.315086462870452,5892.5891574209
0.704,-1.296887411114213,5901.94560825178
0.708,-1.2768916186625112,5895.519113597812
0.712,-1.2597804037951599,5902.2919891866095
0.716,-1.2505998914708027,5902.448984153806
0.72,-1.2533220958656153,5906.715022291027
0.724,-1.269568114987514,5905.337553784969
0.728,-1.2978721836783473,5899.446876922128
0.732,-1.3337535365650335,5895.166709545063
0.736,-1.37063806005905,5901.192055948935
0.74,-1.4013833036077068,5896.241616724763
0.744,-1.4199410989468946,5903.070110799669
0.748,-1.4226922715092596,5904.818348852588
0.752,-1.4091992441885874,5904.924715763387
0.756,-1.382316505551364,5893.582173319543
0.76,-1.3476283803640074,5899.256472491017
0.764,-1.3122327822316262,5904.31947912489
0.768,-1.2831478494856605,5898.834863416599
0.772,-1.2658612469603276,5912.853879279582
0.776,-1.2634211294571123,5898.491631044134
0.78,-1.2760889984000428,5901.651311944755
0.784,-1.3013750529226376,5903.44229006513
0.788,-1.3343923468286343,5898.531534419561
0.792,-1.3686066231828231,5891.79733372562
0.796,-1.3969968421413992,5902.823412792909
0.8,-1.4134723894453234,5904.723576292888
0.804,-1.4142702268539968,5898.412713569105
0.808,-1.3989888656041816,5882.077724142111
0.812,-1.370908883784011,5895.392232737984
0.8160000000000001,-1.3363831498988619,5900.282034257139
0.8200000000000001,-1.3033778533496856,5896.328032069396
0.8240000000000001,-1.2795739519224048,5890.447089225183
0.8280000000000001,-1.2705857886229956,5898.829927971056
0.8320000000000001,-1.2787396546221788,5905.199015877157
0.836,-1.302640986775863,5898.313760962912
0.84,-1.3376005895625303,5900.455378243707
0.844,-1.376819038142568,5905.247600169762
0.848,-1.4130056689047839,5899.790491890648
0.852,-1.4399995678788613,5897.910629507763
0.856,-1.4540275706039902,5903.177587521182
0.86,-1.4543364870591318,5889.39844709486
0.864,-1.4430306251015734,5903.786141265883
0.868,-1.4241339462740699,5902.125102169584
0.872,-1.4021841768464192,5895.190631468796
0.876,-1.3809070093925433,5893.2969938616
0.88,-1.3625261549301944,5901.878860971269
0.884,-1.3479385707817597,5904.711474941834
0.888,-1.3374681755038547,5903.580818294258
0.892,-1.3315738914111488,5899.057431279628
0.896,-1.3309866706760374,5892.255149992576
0.9,-1.3361885174458994,5907.300383934322
0.904,-1.3466008050898854,5893.083451100939
0.908,-1.3600372443559572,5899.761190047411
0.912,-1.372828628816123,5907.020231627396
0.916,-1.3806837042482865,5903.115336375664
0.92,-1.3800073236824926,5905.130306869133
0.924,-1.3691795617765046,5901.857379911641
0.928,-1.3492867208957366,5898.245108394443
0.932,-1.3240140006262626,5897.337360854283
0.936,-1.2987652363489572,5895.3835325408645
0.94,-1.2793653813495762,5895.309187757973
0.944,-1.2707543678005881,5898.632134653118
0.948,-1.2759182524472834,5909.137639390864
0.952,-1.295141762138469,5904.187193469017
0.956,-1.32567727429138,5901.479983787092
0.96,-1.362026722154599,5899.382618963486
0.964,-1.3969984864052751,5905.118451018798
0.968,-1.4234359752370123,5899.78837053622
0.972,-1.4361543677115212,5893.413649435518
0.976,-1.4334146737036866,5898.5888766225125
0.98,-1.4173905875327448,5900.854284408198
0.984,-1.3934969819921577,5896.526744654789
0.988,-1.368870439462074,5904.2208446852965
0.992,-1.3504777453066377,5900.575920859721
0.996,-1.3432982592823983,5897.935906862454
1.0,-1.348937039814673,5896.157846214895
1.004,-1.3649547751844335,5902.699259346122
1.008,-1.3851403718458297,5897.530924909256
1.012,-1.4008481104608244,5899.512845156686
1.016,-1.403290414618077,5896.554383883738
1.02,-1.3863210510090853,5897.785928938125
1.024,-1.3489087563322453,5902.593403480412
1.028,-1.2963876654616013,5903.860731777757
1.032,-1.2398269810628464,5913.051642731283
1.036,-1.1934664348516573,5896.44995730902
1.04,-1.1708596591388774,5891.698155204548
1.044,-1.1808566375500877,5891.641826232687
1.048,-1.2246980559246319,5900.982180746225
1.052,-1.2952340552694663,5902.7705493682215
1.056,-1.3786279491587146,5897.720773414333
1.06,-1.45806063131834,5905.197989480101
1.064,-1.5182418376827171,5898.499692013414
1.068,-1.549251549261813,5895.61183821959
1.072,-1.548537244027779,5902.332730786315
1.076,-1.5206621245706136,5898.996884273815
1.08,-1.4752240739591125,5900.8492447937215
1.084,-1.423863924227101,5898.338143656129
1.088,-1.3773548140713094,5900.548600632376
1.092,-1.3434898430063338,5900.874659478648
1.096,-1.326030251320739,5897.524077452859
1.1,-1.3246070930488065,5902.676855439275
1.104,-1.3353532052892394,5903.74348841459
1.108,-1.3520691443086488,5899.130246174712
1.112,-1.3677190258092087,5891.923657483247
1.116,-1.3760094017648394,5902.109577811402
1.12,-1.3727921042608198,5907.14993637438
1.124,-1.3570364021590757,5890.336401658436
1.128,-1.3311284261195744,5887.243695669356
1.132,-1.3003270762136256,5900.564321239212
1.136,-1.2713796845874163,5907.985644078392
1.14,-1.2505867921806473,5894.104319505634
1.144,-1.241910002841869,5896.680081990995
1.148,-1.2458040882753862,5904.103536488059
1.152,-1.2591792338129963,5895.384981627803
1.156,-1.2764297070079142,5901.170816314169
1.16,-1.2911010258810387,5896.790100289418
1.164,-1.2976506287081955,5903.116927350839
1.168,-1.2928473980315824,5902.883313718396
1.172,-1.276532897805904,5903.188166073532
1.176,-1.2516181260010464,5900.2622046554925
1.18,-1.223310140753575,5901.71322024608
1.184,-1.1977400697650638,5897.265323722498
1.188,-1.180391598737355,5895.203835048705
1.192,-1.1748446422951218,5906.652636088193
1.196,-1.1822142050389404,5897.291570551178
1.2,-1.201326230003634,5904.9264904875545
1.204,-1.229334316691078,5900.413894146685
1.208,-1.262375045225252,5907.78686184651
1.212,-1.296066754817257,5905.987191819357
1.216,-1.3259781305058922,5908.212919538519
1.22,-1.3482856796688554,5897.080981898123
1.224,-1.3605775335621677,5898.928671886077
1.228,-1.3624265781964284,5904.698008162886
1.232,-1.355348769499126,5908.354164835296
1.236,-1.3421118864873427,5895.950154649988
1.24,-1.3257122837425614,5895.143209314563
1.244,-1.3084423427535603,5903.255417886401
1.248,-1.2913893037557027,5885.277697949725
1.252,-1.27454181572182,5889.003700577293
1.256,-1.2574493196407868,5893.652873669128
1.26,-1.240129282796523,5914.564357228837
1.264,-1.223762320420992,5896.749692329541
1.268,-1.210772630156629,5890.562651971314
1.272,-1.2042021909587206,5901.629635317971
1.276,-1.2066993634113907,5899.970278939535
1.28,-1.2196552664851328,5904.586475816232
1.284,-1.2428666744997934,5898.808870978858
1.288,-1.2747205881464225,5896.053660863551
1.292,-1.3125974060262173,5897.592596885423
1.296,-1.353204462241273,5902.480227043623
1.3,-1.3928272728925024,5898.401926217375
1.304,-1.427715115121201,5893.386047746047
1.308,-1.454740053291373,5903.423421324128
1.312,-1.472171448872279,5915.675565065186
1.316,-1.4802193406752007,5908.457203276422
1.32,-1.4810788574600486,5897.348783585608
1.324,-1.4784130453738984,5899.269622773988
1.328,-1.4763864767552033,5903.765141695934
1.332,-1.4785012376204727,5902.812540455578
1.336,-1.4865799407057987,5902.584729286381
1.34,-1.5002124443087264,5909.17320239299
1.344,-1.5168291872299657,5902.289913906748
1.348,-1.5323529949628953,5892.318161698899
1.352,-1.542180664391282,5887.044407179874
1.356,-1.5421574340043724,5898.13243534192
1.36,-1.5293160305505202,5900.994433201941
1.364,-1.502374489192633,5893.996400631868
1.368,-1.4621348523613507,5898.352468901189
1.372,-1.4119012232209567,5896.6775521042
1.376,-1.3578707716837441,5900.626451942652
1.38,-1.3092417136691956,5900.4908540368015
1.384,-1.2776466532176587,5903.32851909062
1.388,-1.2755368025478246,5897.091036180347
1.392,-1.3133526222242524,5909.942767793373
1.396,-1.3957334308211933,5909.224823175284
1.4,-1.5175227348434606,5893.764585669017
1.404,-1.6606743700970437,5900.517116381199
1.408,-1.7932208546368789,5902.292260060268
1.412,-1.871276088057261,5905.577307275586
1.416,-1.84465408650354,5894.94766217863
1.42,-1.6660054744979522,5903.025787375611
1.424,-1.3022883767034432,5901.852797366105
1.428,-0.7460294249381593,5893.079517546647
1.432,-0.02275722203821602,5899.390207207
1.436,0.8089675691683696,5897.827964839437
1.44,1.666726658117395,5887.11024960119
1.444,2.461085991801163,5900.745600634607
1.448,3.115095607152006,5923.931530312207
1.452,3.580022426041121,5942.82744816304
1.456,3.8426257932534233,5948.082454706868
1.46,3.9229649833409828,5967.776645606554
1.464,3.8650527297930775,5991.235338220702
1.468,3.724219938636048,6005.848052356809
1.472,3.5548501233677134,6015.210218171922
1.476,3.4009701504200653,6032.975639424592
1.48,3.2908401490209873,6044.544874651444
1.484,3.23558563423286,6059.194291921225
1.488,3.2311592808721143,6073.45310093392
1.492,3.262517762527236,6091.9511332742295
1.496,3.308835638718719,6106.916714530664
1.5,3.3487346038262515,6113.329593618438
1.504,3.3647001562044943,6123.954533790832
1.508,3.3460439023482937,6138.82924852959
1.512,3.29005952890755,6156.361738351554
1.516,3.2014196160354333,6175.113617807817
1.52,3.0901948512703585,6177.188130215734
1.524,2.9690621850126493,6197.131421934357
1.528,2.8503888251715517,6206.882382313539
1.532,2.743936512889907,6214.546083533769
1.536,2.6557644043890365,6221.747675824054
1.54,2.588436348786714,6240.0418800623975
1.544,2.5420659519221656,6245.820234374123
1.548,2.515450041614419,6263.030101307665
1.552,2.506720025058213,6267.428132124639
1.556,2.513334819170495,6280.5983110504485
1.56,2.531557883281551,6287.230934342239
1.564,2.5558116135496727,6298.824277986281
1.568,2.5784982375569876,6306.632713718766
1.572,2.590770181783213,6309.864497183251
1.576,2.584207135508062,6321.205395227926
1.58,2.552773438709886,6329.761890117779
1.584,2.494257118363398,6353.733307264663
1.588,2.4106810420094416,6355.805134219596
1.592,2.307637761100254,6360.089180831999
1.596,2.192912180184415,6365.634468221689
1.6,2.0750068705861464,6374.974184370133
1.604,1.9621009831280978,6375.497673298879
1.608,1.8615369750720583,6391.005004845319
1.612,1.7795051197239198,6396.907224305387
1.616,1.7205627698071464,6399.789671496107
1.62,1.6869283250065117,6411.093287731234
1.624,1.6777988987757937,6423.641375464333
1.628,1.6890510648158426,6428.136676418928
1.632,1.7135999266490005,6431.918601116795
1.636,1.742488834456546,6427.441349276295
1.64,1.7665389760075134,6438.5979978330615
1.644,1.778187670526839,6454.7816353567205
1.648,1.7730423692816362,6448.5887201759815
1.652,1.750694780598285,6470.215835700286
1.656,1.714500996803086,6476.848791443463
1.66,1.6703393152514723,6485.359348137503
1.664,1.6247193455469386,6473.286659546602
1.668,1.5828774167214172,6487.915006713112
1.672,1.5475040752139901,6492.359665768907
1.676,1.5184726998280285,6498.300004402614
1.68,1.4935324992856287,6505.193834756604
1.684,1.469627420153983,6511.000288766023
1.688,1.4443819149684927,6520.671472262758
1.692,1.417267884112836,6518.489121438697
1.696,1.3899961021604652,6517.618742417785
1.7,1.3658660554119557,6528.412972835836
1.704,1.3482241748024304,6529.218744268206
1.708,1.3386460549032957,6542.491456037055
1.712,1.3356729203579283,6537.729209901375
1.716,1.3347475498678592,6543.429088698553
1.72,1.3294934583979015,6539.699091884105
1.724,1.3138824576310641,6551.812410831647
1.728,1.2844129225211038,6557.657838015753
1.732,1.2414036455515771,6566.670106054451
1.736,1.188928078370075,6565.947281660519
1.74,1.1335441174592258,6569.643711656876
1.744,1.0824609794190576,6570.998361821787
1.748,1.0418736334918028,6574.938217176522
1.752,1.0159091799732134,6581.795233449378
1.756,1.0062516614060535,6587.421881331545
1.76,1.0123070198724538,6594.247273151771
1.764,1.0317303115399512,6591.375187050806
1.768,1.0611244062023129,6590.653084622214
1.772,1.096706755853243,6594.072920557207
1.776,1.1347529274866053,6590.968851267859
1.78,1.171683476485538,6610.283458655996
1.784,1.2038548891196281,6604.228818303239
1.788,1.2274124541337776,6625.191200986907
1.792,1.2386340645803229,6612.553247232826
1.796,1.2348202471343983,6611.6780858994425
1.8,1.215282505052289,6620.090972687119
1.804,1.1818547586091341,6624.724950945064
1.808,1.1386559688477216,6626.801984518091
1.812,1.0911899584597442,6627.540071868456
1.816,1.0450492297306722,6636.809139157767
1.82,1.004593951609374,6642.695381547121
1.824,0.9720525156848647,6648.609743109637
1.828,0.9473755171954624,6639.295704949211
