时间(s),电压(V),幅值(高频80K)
0.0,-1.4638896927045741,5907.581627565418
0.004,-1.3862937191045106,5894.383037289908
0.008,-1.3216581969789205,5898.214029884482
0.012,-1.2787528700862165,5886.205534148855
0.016,-1.2594768770632803,5897.30388908052
0.02,-1.2586568385068109,5902.11644207758
0.024,-1.266140108387929,5898.404838329484
0.028,-1.270330769152551,5894.641391801668
0.032,-1.261925138727717,5894.333972236044
0.036,-1.2365364712822644,5899.204695242881
0.04,-1.1953251657763204,5890.843454091105
0.044,-1.1436332818876866,5894.660666358703
0.048,-1.0885161720039602,5897.683111404866
0.052,-1.0364361832769688,5901.996250839852
0.056,-0.9920272177833968,5897.164528079028
0.06,-0.9580391852263692,5891.644665724757
0.064,-0.9359204096285751,5911.043161886981
0.068,-0.9263870223327665,5899.171912581105
0.072,-0.9296206860474413,5898.069829799905
0.076,-0.9450602278295979,5894.246995787479
0.08,-0.9709685476875445,5896.194882022386
0.084,-1.0041064019859374,5900.491087133728
0.088,-1.0398832917978127,5904.234142511618
0.092,-1.0731699638122183,5905.09661837819
0.096,-1.0995810313930336,5896.927022253458
0.1,-1.1167084620385757,5899.19701493487
0.104,-1.12476586595895,5897.710464240663
0.108,-1.1264132851418491,5897.528830411327
0.112,-1.1259143441006374,5902.34801796091
0.116,-1.127953670012065,5902.225448028144
0.12,-1.13639450146099,5896.824320059683
0.124,-1.153186720766974,5906.290369021831
0.128,-1.1776717886396249,5908.756793373123
0.132,-1.2065631025822476,5893.057438713795
0.136,-1.2347357623667798,5908.7689651739165
0.14,-1.2566546744793445,5898.524745268364
0.144,-1.2679892108527446,5897.632330259381
0.148,-1.2668654923494833,5906.383962195818
0.152,-1.2543360135042065,5898.294481434489
0.156,-1.2339328944007055,5900.646374900296
0.16,-1.2104742310813967,5897.498679794419
0.164,-1.1885098463511663,5891.757274952716
0.168,-1.1709210445597453,5899.728453729244
0.172,-1.158206239927708,5909.538144636143
0.176,-1.1487770446274999,5900.50468276928
0.18,-1.1401394279534909,5884.901825010644
0.184,-1.1303884518839167,5894.064700678789
0.188,-1.1193311889235735,5906.289638921765
0.192,-1.1088196209487606,5907.8194186918645
0.196,-1.1022522064514113,5909.254410650838
0.2,-1.1034526276588392,5904.41652699529
0.204,-1.1152723721579854,5905.1824029249165
0.208,-1.1383609766909808,5906.581914556418
0.212,-1.1705364588162024,5894.703632623598
0.216,-1.2069824777408484,5900.080113623809
0.22,-1.2411782203479598,5906.603484433324
0.224,-1.2662509490265528,5893.322135662839
0.228,-1.2764518296466951,5905.567394749403
0.232,-1.2685407595510054,5909.707632556276
0.236,-1.2428080757144744,5901.298567633726
0.24,-1.2033414979467747,5897.241431696318
0.244,-1.1572556212950451,5891.654871475457
0.248,-1.1130074301209547,5901.680376121089
0.252,-1.078356575491536,5901.252169763315
0.256,-1.05867981748945,5906.702120381605
0.26,-1.0561270201098447,5904.86824764544
0.264,-1.0696864558906112,5903.7148437808
0.268,-1.0959026013414237,5906.928629795222
0.272,-1.1299127757389165,5902.385405141152
0.276,-1.1665229775882786,5898.271810870308
0.28,-1.2010741225505095,5901.456024872372
0.284,-1.2299096223528843,5903.319773995799
0.288,-1.250437593543531,5901.894397276233
0.292,-1.2610031128632193,5896.198821416566
0.296,-1.26087773298209,5905.68740938755
0.3,-1.2505249443446773,5899.845707794612
0.304,-1.2319571741010256,5899.432310433774
0.308,-1.2087315953544955,5903.3671511893135
0.312,-1.1852335536042602,5893.371223245447
0.316,-1.1653526329752557,5902.464827365975
0.32,-1.1511274031120706,5902.27518169931
0.324,-1.1420562998624666,5902.772863517669
0.328,-1.1354461587795943,5898.413028090598
0.332,-1.1276355110570608,5911.363967191514
0.336,-1.1155405899632445,5898.294308209475
0.34,-1.0978972244572445,5893.29110059741
0.344,-1.0757529524999918,5897.487525372441
0.348,-1.0520844292848999,5900.3171934099055
0.352,-1.030773308948086,5894.587795753714
0.356,-1.0154233130019343,5894.116053186976
0.36,-1.0084967881388458,5906.574755803193
0.364,-1.0110005184377697,5911.245244464339
0.368,-1.0226453014129127,5899.799082443397
0.372,-1.0422352780858155,5901.352727205622
0.376,-1.0680511898512204,5885.522409422063
0.38,-1.09809447353696,5911.532661834057
0.384,-1.1301880042817423,5897.084831788286
0.388,-1.1620404317304605,5901.709934764527
0.392,-1.1913940702430417,5895.741167773045
0.396,-1.2162634503959222,5903.459051218022
0.4,-1.2351519494274052,5895.490830237702
0.404,-1.2471370023658006,5905.194568565989
0.408,-1.251815992668856,5889.345936336228
0.412,-1.2491927808662409,5909.530765290268
0.416,-1.2396097166809545,5899.489335202045
0.42,-1.2238053627027008,5896.047012102617
0.424,-1.2030952358202318,5910.183463222129
0.428,-1.1795325065612983,5893.975930947608
0.432,-1.155817226136518,5898.741330327143
0.436,-1.1348262973464325,5904.1859876047865
0.44,-1.1188855338327468,5902.177189690867
0.444,-1.1090824148832452,5903.746779075038
0.448,-1.104916364312309,5896.109863400299
0.452,-1.104471753880646,5891.411400735102
0.456,-1.1051180568647798,5900.578067496141
0.46,-1.104507072638441,5896.632176517632
0.464,-1.1014752626142177,5902.944587648936
0.468,-1.0964876512038846,5904.033515423096
0.472,-1.0914432329919206,5892.7265780233065
0.476,-1.0888984038283152,5901.347041889294
0.48,-1.0909746326208158,5902.585913582992
0.484,-1.098337793131775,5902.165799329863
0.488,-1.109641863626301,5899.0123359029085
0.492,-1.1217214508475812,5898.084437770393
0.496,-1.1305848741017208,5898.517040120698
0.5,-1.1329208462971692,5897.980310066317
0.504,-1.1275333239967205,5895.881663480896
0.508,-1.1160693743652548,5907.879283797557
0.512,-1.102668832426703,5906.825558078406
0.516,-1.0926119620773898,5896.984960596816
0.52,-1.0904755776171409,5903.964814593035
0.524,-1.098543297197281,5900.0686860320775
0.528,-1.1161144484039114,5904.146859881143
0.532,-1.1399375057970262,5897.2860200502255
0.536,-1.1654817609479249,5902.637286127646
0.54,-1.1884445192119995,5897.114099055776
0.544,-1.2059026705099485,5899.880135315306
0.548,-1.2167581221936854,5902.862866887926
0.552,-1.2214296681242447,5900.08084254326
0.556,-1.2210337652094,5906.687564302825
0.56,-1.216519926992493,5900.060326361312
0.5640000000000001,-1.208252555644992,5895.318785751829
0.5680000000000001,-1.196264703291569,5900.410481962444
0.5720000000000001,-1.1809674930338756,5894.206473544523
0.5760000000000001,-1.1637856301357552,5900.444469422552
0.58,-1.147242191263624,5902.906435214189
0.584,-1.1343764909894394,5897.512091368384
0.588,-1.127764136854534,5903.951910989149
0.592,-1.1285865427625226,5899.408839323881
0.596,-1.1361283052566657,5901.620577767441
0.6,-1.1478628355731135,5897.758262507924
0.604,-1.160060224496084,5903.134169259343
0.608,-1.168712167962674,5896.053744854106
0.612,-1.170522832434968,5910.077905462216
0.616,-1.1637188988455196,5898.051700911939
0.62,-1.14846543627548,5901.558648875287
0.624,-1.1267714581418573,5905.566180893131
0.628,-1.101960009676303,5903.409556131272
0.632,-1.0779597812676176,5902.614229305299
0.636,-1.0586650525618664,5900.060968821932
0.64,-1.0474155637160738,5894.214555217308
0.644,-1.0465098949313023,5900.4012329248735
0.648,-1.0567291836423978,5894.017918242138
0.652,-1.076985168800277,5893.815325947287
0.656,-1.104252518148401,5898.458207864112
0.66,-1.133891145079462,5897.673316848636
0.664,-1.1603687253049315,5899.266668810471
0.668,-1.1782864758075755,5902.941952630919
0.672,-1.1835120942717496,5903.030386736218
0.676,-1.1741454241768963,5900.096706738882
0.68,-1.1510151007576737,5907.372102315649
0.684,-1.1175168974705103,5903.494231252113
0.6880000000000001,-1.0788659254995279,5900.85599643471
0.6920000000000001,-1.0410555287893695,5896.170317162212
0.6960000000000001,-1.0098266199451589,5903.506304771684
0.7000000000000001,-0.9898163846405947,5902.142550837093
0.704,-0.9839306821387341,5901.512382253879
0.708,-0.9929436417901649,5899.396708661492
0.712,-1.015369939515374,5896.216162228388
0.716,-1.0477023386697342,5902.652301571244
0.72,-1.085033505076623,5899.339875201996
0.724,-1.121898190668837,5901.038988390904
0.728,-1.1530728728091122,5894.965509235071
0.732,-1.1741715223891456,5892.034488509339
0.736,-1.182065968027289,5903.781919945767
0.74,-1.1752543063430105,5901.622930651676
0.744,-1.154224935271773,5903.434339092221
0.748,-1.1216945300967596,5907.713747712304
0.752,-1.082502109753248,5895.212907965068
0.756,-1.0430085545132195,5891.58552045183
0.76,-1.0100175106005402,5898.740812164144
0.764,-0.9894009535168465,5893.329674436304
0.768,-0.9847544858233837,5906.2513235199085
0.772,-0.9965039044503112,5898.715208058934
0.776,-1.0218404216416366,5898.931463079746
0.78,-1.0556040393516515,5899.987272024692
0.784,-1.0918564326448352,5908.679786463077
0.788,-1.1255934453677776,5904.7510414808
0.792,-1.153995236155412,5901.034792466921
0.796,-1.1768134739312752,5885.970994153347
0.8,-1.1958438984962843,5898.982819169246
0.804,-1.213774054369148,5903.6164642019785
0.808,-1.2328900527764213,5899.988698815092
0.812,-1.254088663689814,5900.727301594564
0.8160000000000001,-1.276424976442812,5896.888338711207
0.8200000000000001,-1.2972228389243794,5902.099697465695
0.8240000000000001,-1.3126958587997402,5895.503464705689
0.8280000000000001,-1.3189683638563827,5888.580738776352
0.8320000000000001,-1.3132503493319982,5901.767609821423
0.836,-1.294806473729686,5895.983952610885
0.84,-1.2654115256296214,5905.816764644947
0.844,-1.2291856001043981,5901.3391042723215
0.848,-1.1918916197307634,5890.639968168577
0.852,-1.1598457754799798,5903.527740147116
0.856,-1.1386016635356195,5894.944333359767
0.86,-1.1316373179199928,5895.825948125697
0.864,-1.139386416140035,5888.029539028025
0.868,-1.1589840234005842,5892.272283809101
0.872,-1.184930743354611,5894.580764834104
0.876,-1.210533400578319,5896.529506690828
0.88,-1.2296525735092867,5899.820958185225
0.884,-1.2381813834612077,5896.694269621093
0.888,-1.2347979860783806,5900.283084553003
0.892,-1.2207846299868377,5896.414226147504
0.896,-1.1990494716733948,5900.310831344112
0.9,-1.1728165090595584,5896.692564892275
0.904,-1.1445623177088249,5889.7405580929535
0.908,-1.1156084164261426,5907.489715254478
0.912,-1.0864645731680032,5893.051115761844
0.916,-1.0577146207727264,5894.031848363886
0.92,-1.0310167653404017,5900.95873326292
0.924,-1.0097160911647745,5903.255229089774
0.928,-0.9986632082245992,5894.795907638185
0.932,-1.0030624234967203,5898.466429414975
0.936,-1.0265276725642072,5896.698749704574
0.94,-1.068979536860231,5888.300071327196
0.944,-1.1253453151015422,5890.882857115234
0.948,-1.1858948278256223,5900.62413923103
0.952,-1.23839130264421,5898.338372647104
0.956,-1.2714069199929936,5902.972298068726
0.96,-1.2776287211145205,5901.492377912628
0.964,-1.2560025877001513,5901.563984254542
0.968,-1.212038100138283,5896.060193956362
0.972,-1.1562685522706648,5907.160518811427
0.976,-1.101457503499583,5896.157016629545
0.98,-1.0594512765704316,5892.525548789455
0.984,-1.038529757887737,5900.353143618834
0.988,-1.0418337217810856,5899.974184464979
0.992,-1.0671348656002597,5898.069934928989
0.996,-1.1079184901169792,5907.769758944482
1.0,-1.155403463659822,5897.533353918697
1.004,-1.2007912959868496,5895.11488369126
1.008,-1.2369771209294467,5907.59069446043
1.012,-1.2593109659789086,5904.317361430925
1.016,-1.2655266921278525,5909.93608045162
1.02,-1.2552838068216714,5895.811360550335
1.024,-1.229775450633607,5897.600942157715
1.028,-1.1916569285705474,5900.608285476898
1.032,-1.145251459812358,5892.6216048509095
1.036,-1.0966829364936377,5906.3976709517565
1.04,-1.053440271127941,5895.455127209681
1.044,-1.023086171915616,5898.4903020955
1.048,-1.0113663576632816,5891.321575276451
1.052,-1.0204820310387959,5899.280774718442
1.056,-1.048318152561265,5898.838734563551
1.06,-1.0889477310364575,5900.30972278523
1.064,-1.1341558869080235,5897.50282020655
1.068,-1.1754052307441143,5908.953459793569
1.072,-1.205651459892249,5901.372116850806
1.076,-1.220591164086016,5895.480239839455
1.08,-1.2191514484026833,5899.460175354884
1.084,-1.2032393478120544,5892.794402870965
1.088,-1.1769418025187675,5897.209459630884
1.092,-1.1454800639836233,5898.732591577208
1.096,-1.1142105302969412,5897.629130963255
1.1,-1.0878291471188404,5897.87246270932
1.104,-1.0698084006078064,5896.862900247845
1.108,-1.0620665501995534,5897.603291863432
1.112,-1.0648708258841413,5896.035903773977
1.116,-1.0769386408957762,5895.322784783921
1.12,-1.0956772454446986,5895.919151257535
1.124,-1.1175368636835026,5893.729837515989
1.128,-1.1384879711086107,5902.598047648118
1.132,-1.154629178798426,5897.972028832408
1.136,-1.1628967344375154,5914.179780807357
1.14,-1.1617627612474744,5904.606134344686
1.144,-1.1517013178930466,5891.2226722779005
1.148,-1.1351928744086321,5900.579992337095
1.152,-1.1161995909023799,5906.485834895032
1.156,-1.099274058089758,5897.856660651794
1.16,-1.0885993386331965,5897.274356713524
1.164,-1.0872300253195812,5895.7793262200685
1.168,-1.096655652988468,5896.573722265085
1.172,-1.1166432735182876,5902.543534124178
1.176,-1.1452605155668025,5901.855341414224
1.18,-1.1790683646781959,5898.564848213428
1.184,-1.2135611524491088,5900.975369233015
1.188,-1.2438673481172842,5904.516677496679
1.192,-1.2655753956815776,5902.880978471211
1.196,-1.2755013529377264,5895.001165856264
1.2,-1.2723006755587,5901.72080427111
1.204,-1.2568889559608967,5905.30815325088
1.208,-1.232557625930677,5895.610465444743
1.212,-1.2045555228165494,5899.92086758113
1.216,-1.1789904235604483,5902.7980854236985
1.22,-1.1612398810067006,5898.06419697973
1.224,-1.1544071672326028,5898.163661953451
1.228,-1.1584303644131733,5906.419319122739
1.232,-1.1701813002311934,5897.058576169065
1.236,-1.1844573455013139,5901.008513814126
1.24,-1.1954577144979477,5889.748792832617
1.244,-1.198294829345478,5900.32516273487
1.248,-1.1902194980682979,5900.931265285532
1.252,-1.171349515145644,5902.308820113179
1.256,-1.1447385901323315,5896.27540451719
1.26,-1.1157013269941245,5898.949774873527
1.264,-1.090477841726416,5893.544789011119
1.268,-1.0745233048249019,5899.322541171118
1.272,-1.0708590190340554,5894.988121876536
1.276,-1.0789620423206538,5908.568164510426
1.28,-1.0945691997413212,5904.207179572261
1.284,-1.1105562666925262,5891.609080035863
1.288,-1.118783586225696,5889.319615656791
1.292,-1.1125141366263844,5896.872718457075
1.296,-1.0887571451949971,5899.115082077985
1.3,-1.0497628049961014,5903.12394923019
1.304,-1.0030015727049786,5897.986206086296
1.308,-0.9593726013311015,5891.039107883195
1.312,-0.9300286883550075,5899.614838002387
1.316,-0.9228280069561666,5899.051026929361
1.32,-0.9397117580944214,5909.273031884287
1.324,-0.9760467832383086,5905.097467296716
1.328,-1.0221890205926965,5902.077458681697
1.332,-1.0665923427124178,5903.978502582567
1.336,-1.0992436123790879,5899.489584287503
1.34,-1.1142811153532246,5898.223415143438
1.344,-1.1111296344409112,5891.887344304523
1.348,-1.0940324569944404,5893.088952587027
1.352,-1.0703184507519439,5907.564449678783
1.356,-1.0480529388648354,5901.550267057165
1.36,-1.033824267778202,5888.483406147375
1.364,-1.031289479873903,5899.841306803418
1.368,-1.0408001031340752,5899.973897129322
1.372,-1.0600607872475714,5906.23851617305
1.376,-1.0854454783225722,5900.819180147824
1.38,-1.1133975076586213,5899.698742537215
1.384,-1.1413473463095802,5904.417593114452
1.388,-1.1678291316518434,5894.364332953155
1.392,-1.1918969394281682,5901.814912990267
1.396,-1.2123296490020687,5893.415730090368
1.4,-1.2272096973522872,5901.990224389087
1.404,-1.234164435075966,5894.482372378021
1.408,-1.2310765653869644,5904.452688707547
1.412,-1.2167889319279814,5900.801802338947
1.416,-1.1914654984904793,5900.442098718111
1.42,-1.1566431228817387,5901.016395290027
1.424,-1.115218244171772,5907.88122779753
1.428,-1.0714720719785253,5901.138169756184
1.432,-1.0309373143489138,5899.940003608447
1.436,-0.999765194939618,5904.76675217915
1.44,-0.9834365570446334,5904.676960932729
1.444,-0.9851211923027794,5900.509346069467
1.448,-1.0044327933154797,5904.939947747368
1.452,-1.037363882759738,5907.680613066774
1.456,-1.0776631090908255,5894.255425741383
1.46,-1.119110894996293,5899.743278456119
1.464,-1.1575835663792189,5902.732944730011
1.468,-1.1918726617950535,5912.221864080823
1.472,-1.2229210847813607,5892.743586602671
1.476,-1.251996458748658,5898.665465511333
1.48,-1.2788139338050917,5899.731050221368
1.484,-1.3005441412486682,5894.723749273706
1.488,-1.312179288222389,5893.463719612401
1.492,-1.3081648657346954,5900.511933599995
1.496,-1.284695464358387,5899.610169284745
1.5,-1.2417323166870327,5899.51573142709
1.504,-1.1838181183074334,5899.411617418858
1.508,-1.1192589694948256,5903.610165949691
1.512,-1.0580060908701099,5902.67330117328
1.516,-1.0091384628051638,5899.55249870887
1.52,-0.9788875228305173,5894.118633423688
1.524,-0.9697240266949615,5894.645025270441
1.528,-0.9804991303566812,5901.503199428094
1.532,-1.0073050571642206,5897.525968355791
1.536,-1.0446658584076445,5902.229978719646
1.54,-1.0867662904839803,5895.58835771346
1.544,-1.1285127006060474,5900.309177063487
1.548,-1.1662323520329927,5901.568761302799
1.552,-1.1978539383730482,5898.8516853937335
1.556,-1.2225805972325132,5900.332641599746
1.56,-1.240298987294332,5907.153294182551
1.564,-1.251071934350692,5893.438048487255
1.568,-1.2549373365830787,5899.227899826131
1.572,-1.25198975987263,5898.044212652646
1.576,-1.242580026923539,5900.3376665176365
1.58,-1.2275172668395569,5896.861081170374
1.584,-1.2082262467659168,5900.430833997632
1.588,-1.1867621051290425,5891.731621338054
1.592,-1.1655438008335581,5901.525033332174
1.596,-1.146787948938915,5895.00012085978
1.6,-1.131825610634349,5906.06013876888
1.604,-1.1206005312547511,5895.309990068755
1.608,-1.1116203138005711,5900.35420804209
1.612,-1.1024842339989795,5906.121026950095
1.616,-1.0908943756239486,5905.524748047895
1.62,-1.075842475055616,5899.899247491696
1.624,-1.0585119825173672,5905.162408868951
1.628,-1.0424242773610812,5899.329248805017
1.632,-1.0326061672328006,5893.054163230922
1.636,-1.034014448012345,5902.543259572272
1.64,-1.0498189682162948,5900.437155504734
1.644,-1.0801762040680811,5898.274599115006
1.648,-1.121891645065694,5899.371200339151
1.652,-1.1690604545143295,5902.096140544314
1.656,-1.2144742856939341,5903.470387846783
1.66,-1.251342089119234,5895.106390399358
1.664,-1.2747975708160262,5896.007211233553
1.668,-1.2827878322460204,5896.398038184692
1.672,-1.2761673951611434,5898.035390804265
1.676,-1.2580616538805867,5896.2674177769
1.68,-1.232764065920847,5892.938442379809
1.684,-1.204545814900287,5895.9479986203605
1.688,-1.1767338571373072,5900.585120906566
1.692,-1.15126666505283,5893.770579255333
1.696,-1.1287752868197678,5901.294117383047
1.7,-1.109128983670959,5897.994700172887
1.704,-1.092248162135034,5894.7716608024175
1.708,-1.0787802401098459,5906.393850142312
1.712,-1.070159019452733,5900.964048827621
1.716,-1.0678548324685122,5911.03548290644
1.72,-1.0721639398785974,5892.854502482895
1.724,-1.0812959448244908,5894.094658498279
1.728,-1.0915018412865525,5889.950413344433
1.732,-1.0985164306531605,5903.754224816152
1.736,-1.099876087981332,5889.311184922795
1.74,-1.0970973793950463,5899.447887886021
1.744,-1.0966070947939293,5903.300462708284
1.748,-1.1087202702385421,5900.842602005626
1.752,-1.144602175665208,5906.294665604373
1.756,-1.2117703776424769,5899.42406334774
1.76,-1.3091855287829175,5898.536532107971
1.764,-1.4232734664155795,5894.093407026453
1.768,-1.5262273533002948,5896.201471701235
1.772,-1.5776408069411412,5897.821844966156
1.776,-1.5299940819665687,5905.576842742709
1.78,-1.3377568045931632,5896.589820155435
1.784,-0.968797847190619,5896.812064402363
1.788,-0.4155318898368565,5905.497717228087
1.792,0.29770566349392225,5889.283023973248
1.796,1.114493737626022,5896.66639061693
1.8,1.9551693250485487,5904.562942064848
1.804,2.7332699693954976,5898.439543643588
1.808,3.3746605744865255,5914.318931980062
1.812,3.8329039979799835,5930.369173594586
1.816,4.096126589798621,5927.946187983123
1.82,4.1843343455579625,5940.3851163689205
