时间(s),电压(V),幅值(高频80K)
0.0,-1.2154075007381513,5899.861561396022
0.004,-1.1662366400557278,5898.982711314286
0.008,-1.121884004250515,5907.343160025434
0.012,-1.0847786683742657,5893.779056140418
0.016,-1.0559300833665386,5896.37382988207
0.02,-1.0350882912581467,5891.907137804411
0.024,-1.0210678213535607,5908.0360841837655
0.028,-1.0120571343572753,5895.978434900344
0.032,-1.0059569671386617,5900.345345267916
0.036,-1.0008528964793477,5894.4413038810935
0.04,-0.9955995987565848,5903.471961775551
0.044,-0.9903515604618461,5891.775944422914
0.048,-0.9868351706201318,5897.712837199237
0.052,-0.9881823252156485,5894.619067350766
0.056,-0.9981780860385621,5908.841674567435
0.06,-1.0199109154015502,5907.239126494969
0.064,-1.0541685256195892,5901.535718295024
0.068,-1.0983033717467308,5909.394777120793
0.072,-1.14628470302241,5905.981918486098
0.076,-1.1901196476254077,5899.854924755862
0.08,-1.2221091950436,5901.822774080221
0.084,-1.2369999885224048,5898.311564147014
0.088,-1.233230690395072,5900.046652134364
0.092,-1.2129994065392888,5904.8520566996
0.096,-1.1813996755126013,5890.721176474245
0.1,-1.145067519555449,5906.238872353709
0.104,-1.1106922306690703,5903.527087298794
0.108,-1.083652172099128,5898.829418590154
0.112,-1.0670559547817235,5900.78626637963
0.116,-1.0614224152540495,5897.407439272684
0.12,-1.0649968657499285,5898.335460163073
0.124,-1.0744536941139395,5914.732863500195
0.128,-1.085710752537528,5906.000997393087
0.132,-1.094728739384876,5902.666961799576
0.136,-1.0982489402913265,5898.413160444462
0.14,-1.0943667342107881,5905.526429446307
0.144,-1.0828147090784181,5899.161355446525
0.148,-1.0649418908962016,5908.008300671487
0.152,-1.0434966516905029,5895.265492804081
0.156,-1.0222980228795708,5894.210035018023
0.16,-1.0057487706825827,5891.512089588729
0.164,-0.9980760799170035,5896.965726478897
0.168,-1.002314563783266,5898.568321485307
0.172,-1.0193107904191447,5903.396581205718
0.176,-1.047190682450398,5901.109750778406
0.18,-1.0816159285968219,5899.319562990665
0.184,-1.1168220189999813,5902.143080138697
0.188,-1.1470806274650673,5899.070543315897
0.192,-1.168053322634141,5910.259356080318
0.196,-1.1775980878764898,5901.955662630378
0.2,-1.1758932879961674,5894.320967226284
0.204,-1.165044901150346,5889.749434191121
0.208,-1.1484498000283336,5904.466661362643
0.212,-1.1301037218838386,5905.069220195864
0.216,-1.1139128803913583,5899.149528762401
0.22,-1.103009655211016,5895.284264382929
0.224,-1.099131288684448,5905.785953247955
0.228,-1.1022496347446509,5898.318300810415
0.232,-1.1106666397106746,5904.114347088913
0.236,-1.1216043979596564,5891.424720483471
0.24,-1.132066631231742,5899.786361429118
0.244,-1.139646704473296,5901.551517783908
0.248,-1.1430354770455577,5902.487527859135
0.252,-1.1421369391464853,5898.2019749766405
0.256,-1.1378431971985188,5902.542743705696
0.26,-1.1316106466263143,5893.320227835355
0.264,-1.1250135135572785,5905.198152652077
0.268,-1.1194464892662235,5900.428686621871
0.272,-1.116088310764953,5905.738132015296
0.276,-1.1160818281660305,5903.690577720564
0.28,-1.1206811056952766,5897.201390908727
0.284,-1.1310545273934887,5895.473182661127
0.288,-1.1476508510222823,5894.134096612717
0.292,-1.1693820850006462,5905.059799363837
0.296,-1.1930850119160918,5900.570021820673
0.3,-1.213697158624533,5898.721106619515
0.304,-1.2253379207024189,5894.391903010647
0.308,-1.2230676778408032,5895.606817539774
0.312,-1.2047037670633707,5901.558033861951
0.316,-1.171952069753816,5901.409528653704
0.32,-1.130331965206475,5903.590783792268
0.324,-1.0878238433291498,5903.603147965112
0.328,-1.052684662970392,5895.664018491745
0.332,-1.031233914522236,5896.015624575176
0.336,-1.0263981985795014,5898.311976702453
0.34,-1.037411045419036,5903.120858562085
0.344,-1.0605440931215604,5898.8290392001645
0.348,-1.0903926661651377,5905.837885460798
0.352,-1.1211901116655074,5902.375919201326
0.356,-1.1478215246892922,5900.231874854982
0.36,-1.166460221891611,5901.617514411224
0.364,-1.1748898852379628,5904.32836714191
0.368,-1.1725898836908089,5895.831562634115
0.372,-1.160645766869433,5906.44199360526
0.376,-1.141540991764823,5902.17682159339
0.38,-1.118858405517794,5904.187093311085
0.384,-1.096881035184123,5891.971158952766
0.388,-1.0800759056802918,5897.552295246731
0.392,-1.0724550036425093,5907.4185276565
0.396,-1.0768185275041553,5904.43351989514
0.4,-1.093972953052405,5897.593624770375
0.404,-1.122193799326879,5911.754777574615
0.408,-1.1572882303512508,5907.9925662725445
0.412,-1.1934258724497486,5899.20494889099
0.416,-1.224522761025529,5905.845546929393
0.42,-1.245672592360307,5906.536708733231
0.424,-1.2541380940598201,5895.115073333555
0.428,-1.2496712427183962,5895.592691747334
0.432,-1.2341974022281323,5897.76466349589
0.436,-1.2110714283916835,5896.82064923894
0.44,-1.1842090490279025,5897.973371180117
0.444,-1.1573834764393773,5903.373209522717
0.448,-1.1338194573486233,5906.800422233024
0.452,-1.1160203018639532,5890.05026947865
0.456,-1.105692381679562,5899.794459661096
0.46,-1.1036864593129552,5903.644988148298
0.464,-1.1099223361160055,5903.494146508037
0.468,-1.1232764504010855,5898.940978521328
0.472,-1.1414763919468103,5898.2029306026825
0.476,-1.161143664079301,5903.261203618783
0.48,-1.178128479076877,5897.263355960922
0.484,-1.1881516205436806,5897.427595003512
0.488,-1.1876230935595575,5909.756378591157
0.492,-1.1744478054079053,5897.969561374652
0.496,-1.1486213471063305,5906.134138565776
0.5,-1.1124156968868237,5905.842352592059
0.504,-1.0700343356304127,5904.972398806981
0.508,-1.0268344822274234,5892.846592208177
0.512,-0.9884102176817661,5894.327130285097
0.516,-0.9598027957108967,5890.749628575111
0.52,-0.9449061421026426,5902.885252723985
0.524,-0.9460029290713015,5895.483995812958
0.528,-0.9634088006439271,5890.260887160548
0.532,-0.9953010822627233,5900.760240601344
0.536,-1.037815660562468,5907.407833317858
0.54,-1.0854287739876993,5903.859755121303
0.544,-1.1316052583336382,5905.030164208139
0.548,-1.1696832369541617,5896.701742125752
0.552,-1.1938970496868722,5909.183439638881
0.556,-1.200360268210517,5898.452963665518
0.56,-1.1878374920892865,5904.301372990982
0.5640000000000001,-1.158173666569429,5906.888508357025
0.5680000000000001,-1.116225931852399,5905.954529441448
0.5720000000000001,-1.0691364584181078,5899.475818490564
0.5760000000000001,-1.02494402961596,5902.221466145476
0.58,-0.9908291625355558,5897.864231550887
0.584,-0.9715237897520353,5910.974686208218
0.588,-0.9684143383353808,5905.385566793864
0.592,-0.9796134393055107,5899.899007567787
0.596,-1.0009103636699699,5908.714246727042
0.6,-1.0272024797346053,5898.7955714357095
0.604,-1.0538844860313517,5900.609028841161
0.608,-1.077786023013746,5897.333304066091
0.612,-1.097518925091666,5903.751154899924
0.616,-1.1133309412222827,5897.231752775249
0.62,-1.126652776051485,5896.299507046362
0.624,-1.139506858448027,5889.457084399179
0.628,-1.1538784044071586,5908.121870077025
0.632,-1.1710793708985476,5894.553353768067
0.636,-1.1911506251546014,5897.832173981135
0.64,-1.2124601753327309,5898.37701506665
0.644,-1.2317193416284125,5896.703386881866
0.648,-1.2445454862624847,5900.667296206128
0.652,-1.2465114461863918,5895.043594997653
0.656,-1.2344311741210148,5908.735932003046
0.66,-1.2074937691116008,5897.345766697621
0.664,-1.1678477552344084,5904.577478793291
0.668,-1.1203877042257662,5905.040180344096
0.672,-1.0717455008100267,5899.697677883221
0.676,-1.0287576088728632,5897.416846442152
0.68,-0.9968842799726445,5905.892516572334
0.684,-0.9790809297323347,5893.751264590831
0.6880000000000001,-0.9754246269532764,5899.93721929549
0.6920000000000001,-0.9835103418587514,5903.604561882007
0.6960000000000001,-0.9994109040705321,5906.644028558543
0.7000000000000001,-1.0188651740278847,5898.690462319161
0.704,-1.0383067062346125,5905.526656965544
0.708,-1.0554323367149718,5903.564484648911
0.712,-1.0692425565030732,5899.147611318763
0.716,-1.0797176029425182,5907.575688089793
0.72,-1.0873887808698512,5904.604358910034
0.724,-1.0930177293955659,5895.500805303718
0.728,-1.0974508351843797,5904.100978260359
0.732,-1.1015308060449152,5896.1726968424
0.736,-1.1058651385633138,5891.233806409114
0.74,-1.110407198304716,5901.027815551744
0.744,-1.1140995194760295,5900.462842274572
0.748,-1.1149614576340356,5898.32656446362
0.752,-1.1108149100783962,5902.182489855624
0.756,-1.100464251522487,5897.858766342135
0.76,-1.084827122987822,5903.844866417599
0.764,-1.0674400200642988,5900.934851864757
0.768,-1.0539853983376726,5898.931505848944
0.772,-1.050874942718435,5900.184709679504
0.776,-1.0632777355938718,5907.6953848005205
0.78,-1.0931962792748127,5901.31644765582
0.784,-1.13824802680464,5904.60598291109
0.788,-1.1916800432189876,5905.284262951987
0.792,-1.2437972302722236,5901.825412725174
0.796,-1.284470509234905,5903.761561037481
0.8,-1.3059143884461062,5891.19940882594
0.804,-1.304750070000633,5897.023869096775
0.808,-1.2826305038027652,5898.126602040758
0.812,-1.2452998033512344,5901.479856716816
0.8160000000000001,-1.200606841686037,5900.171186488746
0.8200000000000001,-1.156342888792109,5901.946183134139
0.8240000000000001,-1.1186434043959614,5895.684986651426
0.8280000000000001,-1.0912376539466604,5899.463812443548
0.8320000000000001,-1.0754031674989575,5901.346312208969
0.836,-1.070326821532311,5900.4888652578575
0.84,-1.0736546899919543,5901.288921271719
0.844,-1.0821343232007241,5902.600462105154
0.848,-1.0922871362521893,5895.074484127564
0.852,-1.1010265999051045,5900.875740635461
0.856,-1.1061396704933166,5898.810379519161
0.86,-1.1065721226221787,5908.455608983337
0.864,-1.102475843066657,5898.759963776578
0.868,-1.095017787666143,5912.9019087110055
0.872,-1.0860204610565982,5908.966815350511
0.876,-1.07754269202667,5899.155385438517
0.88,-1.0715005475222599,5900.354440300574
0.884,-1.06940258105189,5906.955707931492
0.888,-1.0722213274230643,5900.665102584073
0.892,-1.0803410884778024,5896.681944313526
0.896,-1.0934918425901166,5898.748972299784
0.9,-1.1106597365089397,5894.087845781109
0.904,-1.130067505598519,5900.627857765719
0.908,-1.1493142180850795,5898.4575512261845
0.912,-1.165672291768711,5902.961800491626
0.916,-1.176478001244186,5907.62952117668
0.92,-1.1795452217333364,5899.056725432478
0.924,-1.1735283791586937,5902.190946193657
0.928,-1.1581673895250393,5894.897825848059
0.932,-1.1344007336032977,5898.514553187398
0.936,-1.1043783042997612,5903.085909635908
0.94,-1.0713518443712027,5891.945093345335
0.944,-1.0393175171433582,5900.95168831396
0.948,-1.0123226051061585,5903.893569063695
0.952,-0.9935840533882726,5895.937322803739
0.956,-0.9847807758982877,5899.428179254657
0.96,-0.9858475470794731,5904.591664429701
0.964,-0.9953533477107087,5906.313263809074
0.968,-1.0112767172239971,5907.474128048312
0.972,-1.0318171017425832,5905.434420638187
0.976,-1.055858140193807,5884.950615082179
0.98,-1.082852041990629,5903.59567136744
0.984,-1.1121756496428041,5911.554555655824
0.988,-1.1422934684645116,5902.104918710912
0.992,-1.1702204154748546,5900.079210006935
0.996,-1.1917064657493308,5896.7505695986265
1.0,-1.202234427744627,5905.615212926375
1.004,-1.1984730663543317,5910.633111837104
1.008,-1.1795582354688825,5894.892104067494
1.012,-1.1476701602652903,5900.516211895985
1.016,-1.1077138656233925,5895.3747760028455
1.02,-1.0662390558772368,5903.0023499926365
1.024,-1.0299467080990872,5901.608653995371
1.028,-1.0042337701976862,5900.504483178471
1.032,-0.9921873272952,5893.150579671791
1.036,-0.9942297591070322,5897.399582084366
1.04,-1.0083747296746972,5893.166227202299
1.044,-1.030944195757333,5903.4195132858285
1.048,-1.0575740284129063,5901.287549762442
1.052,-1.0842602947866893,5900.001213669912
1.056,-1.1081092766636318,5889.47446876248
1.06,-1.1275364096855869,5897.0646489178025
1.064,-1.1419579976120993,5898.647883070279
1.068,-1.1513179962193114,5893.152757544697
1.072,-1.1558135646411496,5904.493698378136
1.076,-1.1558943223407736,5900.493151687892
1.08,-1.1522959700141144,5899.044751041678
1.084,-1.1458537612245858,5897.387874180174
1.088,-1.137120075964571,5901.024042451968
1.092,-1.1260620335858544,5904.049855731963
1.096,-1.112098618515129,5890.881562719263
1.1,-1.0945106250465597,5903.388066263726
1.104,-1.0730361393094574,5909.544891954726
1.108,-1.0484077970701617,5896.976291486603
1.112,-1.0226693911506635,5899.121072749599
1.116,-0.9991699346721621,5895.178267664768
1.12,-0.9821176513897222,5910.26631731244
1.124,-0.9756220658442759,5905.681436962649
1.128,-0.9823743313634503,5901.296012998757
1.132,-1.002412486358631,5903.79771412357
1.136,-1.0325580144594033,5902.024970881507
1.14,-1.0669425649525484,5899.781810929329
1.144,-1.0986030953579946,5893.191365993544
1.148,-1.1216112959469529,5907.405150652191
1.152,-1.1329014296904052,5898.646903088354
1.156,-1.133071789439252,5908.602224119085
1.16,-1.125915330328904,5894.762856704484
1.164,-1.116995568462636,5902.277866454936
1.168,-1.1119015137804888,5902.28758217471
1.172,-1.1147688473463773,5902.6053562778725
1.176,-1.1273719103853308,5899.332735362454
1.18,-1.1488136960945459,5898.226692774987
1.184,-1.1757366997395822,5902.012847099356
1.188,-1.203016573573191,5895.516573997599
1.192,-1.2249088819804117,5892.987732721344
1.196,-1.2364875908068227,5889.145547888825
1.2,-1.2350145700750896,5911.991933600157
1.204,-1.220776036667495,5894.513749928262
1.208,-1.1970400236264085,5909.070254278838
1.212,-1.1691257047746852,5908.749625974091
1.216,-1.1429445154594662,5893.171835820407
1.22,-1.1235273385144435,5900.311079543464
1.224,-1.1139402029625742,5902.319700709598
1.228,-1.1147867730105663,5897.190957652762
1.232,-1.1243404367372467,5898.6322866461205
1.236,-1.139216919214592,5904.442479677712
1.24,-1.1553563149737678,5893.008970095932
1.244,-1.1690029427287651,5902.109426034901
1.248,-1.1774152192259135,5901.438310617875
1.252,-1.1791721169990677,5898.02834509591
1.256,-1.1741084840288696,5895.832212645844
1.26,-1.163048643827222,5898.612964719285
1.264,-1.1475250148620333,5895.1202999703055
1.268,-1.1295456538366302,5901.867848713138
1.272,-1.1113481105092828,5899.205626150843
1.276,-1.0950818382342793,5911.424104474751
1.28,-1.0824605535426113,5895.053906738119
1.284,-1.0744987370857246,5905.354924424892
1.288,-1.0714438195363183,5894.04159308452
1.292,-1.0729461743948472,5900.86298002774
1.296,-1.0783911335283671,5899.148837168387
1.3,-1.0872202385729839,5906.351759093742
1.304,-1.0990783828075423,5895.523793333197
1.308,-1.1137164178059764,5897.821343817824
1.312,-1.1306724046372054,5895.708224056356
1.316,-1.148851309705315,5897.572961429404
1.32,-1.1662269966200023,5903.450424342941
1.324,-1.1798907916441643,5897.933267025457
1.328,-1.1865133734514537,5909.209709069249
1.332,-1.1831088216741144,5904.052977451767
1.336,-1.1679057434083577,5893.663655493883
1.34,-1.1410783696114886,5907.79874464058
1.344,-1.1050463412275937,5911.982649704886
1.348,-1.064154455826609,5899.870464234285
1.352,-1.0238326051565525,5901.560034091386
1.356,-0.9895929249941013,5903.82148042957
1.36,-0.9662170788206355,5900.40729298568
1.364,-0.9572377413992798,5901.724281682194
1.368,-0.9645621904488467,5891.063505641214
1.372,-0.9880749814669517,5900.583767067538
1.376,-1.0253049275734836,5898.105523396092
1.38,-1.071473441144754,5893.887404406903
1.384,-1.1201803477259913,5898.525644085002
1.388,-1.1646465421048329,5887.940262419638
1.392,-1.1990919299139646,5898.35258615817
1.396,-1.219746596257774,5895.260614563645
1.4,-1.225225236983939,5899.654516254214
1.404,-1.2163525591155262,5897.06088406023
1.408,-1.19572913836841,5895.75189855988
1.412,-1.1672435891213633,5901.553076866658
1.416,-1.1355226857697358,5893.553727608582
1.42,-1.1052264946691779,5900.140589803962
1.424,-1.0802168638040763,5900.670440167016
1.428,-1.0628105105128893,5901.926968402511
1.432,-1.053402508121344,5901.8896913613335
1.436,-1.0506615003834296,5895.337761792955
1.44,-1.052297770273929,5904.6471602506845
1.444,-1.0561531523495056,5905.220898884501
1.448,-1.0611616627407423,5903.5878011814
1.452,-1.0677349349814238,5901.024390225973
1.456,-1.0773895016470183,5896.428075436344
1.46,-1.0917956635205754,5898.292363506938
1.464,-1.1116759355461732,5897.694380455499
1.468,-1.136022250852276,5903.180370800415
1.472,-1.1619362508924769,5901.069698221012
1.476,-1.1851008237903295,5905.994916354165
1.48,-1.2006484934377477,5893.71756653015
1.484,-1.204154194349637,5896.214093319842
1.488,-1.1925943002051111,5904.619820738721
1.492,-1.1652037610599915,5894.820330016259
1.496,-1.1241097657647907,5897.607625651537
1.5,-1.0744757992361618,5900.497119213414
1.504,-1.0238616418370738,5897.354669458991
1.508,-0.9807479694225896,5904.177653958068
1.512,-0.9525899954071311,5909.562421561969
1.516,-0.9440603694035309,5902.378642862636
1.52,-0.9560922479518217,5904.985259867211
1.524,-0.9859863528902911,5898.564630248643
1.528,-1.0284380065057208,5896.444930693369
1.532,-1.077046683289523,5903.820119841331
1.536,-1.1257580231665967,5898.952036289228
1.54,-1.1698018278057927,5899.214160104796
1.544,-1.2059828223123552,5901.728088758399
1.548,-1.2324772044131995,5891.596084326105
1.552,-1.2484375547698427,5904.81884372327
1.556,-1.2536820921750684,5898.320619253013
1.56,-1.2485886100190122,5904.956702072361
1.564,-1.234128890099018,5895.432760377263
1.568,-1.2118865047096803,5903.567948263789
1.572,-1.183953128573978,5900.899782715519
1.576,-1.1527303555754187,5894.407157481578
1.58,-1.1207389963178858,5902.464111480587
1.584,-1.0904910783250632,5892.281224440487
1.588,-1.0644009629727056,5901.682937590804
1.592,-1.0446933378846512,5900.1954778266
1.596,-1.0332623607081248,5896.966922244966
1.6,-1.0314221681501208,5911.933330451536
1.604,-1.0395614084604732,5893.326809477008
1.608,-1.0568721662251028,5899.191348098973
1.612,-1.081375364869089,5894.504431465375
1.616,-1.1103060852596691,5898.091634294667
1.62,-1.1406953232722563,5901.762649777369
1.624,-1.1698796816943917,5899.910285882919
1.628,-1.1957448618496371,5904.981087689863
1.632,-1.2167034246044437,5898.618922170539
1.636,-1.2315845030685708,5905.30274551321
1.64,-1.2396308093280912,5893.830343030052
1.644,-1.2406506668984414,5899.256024456318
1.648,-1.2351962613332614,5895.340194617432
1.652,-1.224567658358805,5896.5950458566695
1.656,-1.2105242328605197,5896.281278396649
1.66,-1.1947805327328334,5902.540327272669
1.664,-1.1785373708322398,5896.495803732331
1.668,-1.1623017039489103,5895.136493560006
1.672,-1.146076493989686,5904.759396455842
1.676,-1.1298044839738406,5907.029713143369
1.68,-1.1138533226919773,5899.679542068934
1.684,-1.099335798435273,5900.912827482818
1.688,-1.0881209650983292,5903.521679271035
1.692,-1.0824802003985543,5902.94366859401
1.696,-1.0844126412749076,5906.484125555077
1.7,-1.0948041844406124,5909.102957929693
1.704,-1.1126765634802285,5900.816639535978
1.708,-1.134826066174847,5906.757292008445
1.712,-1.1561031191039821,5889.66999982321
1.716,-1.170451701384301,5899.012277281492
1.72,-1.1725870073777658,5912.693395722572
1.724,-1.1598403487779028,5901.928721939329
1.728,-1.133429542844653,5896.729496108782
1.732,-1.0985051451202144,5902.111488946542
1.736,-1.0628325567739203,5906.4156543657255
1.74,-1.0346002898186697,5898.787665603156
1.744,-1.0201865115469622,5894.803313493526
1.748,-1.0226000354039442,5892.683966335071
1.752,-1.0409232539381916,5903.576179262277
1.756,-1.0707299722298182,5894.118434341222
1.76,-1.1052691925292357,5897.697516096724
1.764,-1.1371225671166705,5909.177811161825
1.768,-1.1599479015041094,5896.387559877519
1.772,-1.169846111995641,5893.703800788961
1.776,-1.1659709611809599,5904.179959873225
1.78,-1.1502616124525604,5904.705954616815
1.784,-1.126474524044522,5895.686267336607
1.788,-1.0989010555141248,5892.572262418446
1.792,-1.0712431625490402,5892.982319864958
1.796,-1.046032025646817,5908.791558939493
1.8,-1.0247021286090487,5895.365070015099
1.804,-1.0081190451122088,5893.086745433202
1.808,-0.9971829614253956,5903.388761565414
1.812,-0.9931427258248837,5894.900176636639
1.816,-0.9974356873187105,5900.12299581688
