时间(s),电压(V),幅值(高频80K)
0.0,-1.3715834887541658,5896.110721552049
0.004,-1.4605919356266461,5901.437513132117
0.008,-1.5458354425637684,5902.380721384673
0.012,-1.623557652123279,5905.764564608691
0.016,-1.6906983231500317,5905.065781448464
0.02,-1.745342882814548,5894.917585844128
0.024,-1.7869692652062659,5903.277707578632
0.028,-1.8163340506020598,5898.327317978007
0.032,-1.8350868594934806,5904.791725515458
0.036,-1.845343476677299,5906.820629549115
0.04,-1.8493658070294972,5904.616260533788
0.044,-1.8493434907223194,5902.146038474396
0.048,-1.847222543803296,5894.0097944634845
0.052,-1.844563930461062,5903.630229526803
0.056,-1.842432651932065,5897.910216382233
0.06,-1.8412941330213246,5908.526976088915
0.064,-1.840896636648877,5895.720309835163
0.068,-1.840193887290025,5903.702473970505
0.072,-1.8374526473850015,5894.068980763118
0.076,-1.830667435391561,5895.874877588939
0.08,-1.818227887228161,5903.7913204268725
0.084,-1.7995891429814423,5898.879061361081
0.088,-1.7756653673717815,5904.429175603383
0.092,-1.7488124196416954,5900.518237321282
0.096,-1.7224137072353796,5880.963285926022
0.1,-1.7001329495410766,5901.725622245437
0.104,-1.684964911711633,5898.183298284577
0.108,-1.678372018230372,5899.439601998764
0.112,-1.6798480092548767,5889.348664284372
0.116,-1.687034823912343,5899.861514807824
0.12,-1.6962412790015848,5904.160261092708
0.124,-1.7031853154099013,5900.708789508243
0.128,-1.7039449687401822,5909.968318349264
0.132,-1.696111682669887,5913.941632229049
0.136,-1.6798789190901582,5898.293094799739
0.14,-1.658550663007407,5901.208959933238
0.144,-1.63804424332741,5902.74558319761
0.148,-1.6254032724910346,5906.130337552707
0.152,-1.6268183200180597,5897.030124612366
0.156,-1.6458276215964704,5899.714203786003
0.16,-1.6821853128148292,5898.449183988411
0.164,-1.7315978633996958,5907.111901825341
0.168,-1.7863676109859996,5894.1153706598125
0.172,-1.8368961209778782,5896.083650598528
0.176,-1.873809412892892,5892.5750575692
0.18,-1.8901705475312278,5901.776717623758
0.184,-1.8830932568062586,5902.1212370931335
0.188,-1.854278563960939,5906.441576610108
0.192,-1.8094430076182269,5900.523454310933
0.196,-1.7569466980896138,5903.254740896605
0.2,-1.7059886242474618,5901.215145271969
0.204,-1.664664341462356,5900.895600130451
0.208,-1.6381940459612114,5904.622424164934
0.212,-1.6277269663585128,5901.790888027874
0.216,-1.630131718909548,5898.006793121951
0.22,-1.638976650273481,5893.964758533903
0.224,-1.6465430946481845,5905.319573689709
0.228,-1.646340296733011,5901.163331679337
0.232,-1.6353584161222463,5902.223776693998
0.236,-1.6153154844406836,5903.976037362444
0.24,-1.592419332578017,5906.696841590471
0.244,-1.5755926211093636,5900.705223316611
0.248,-1.5736152208085956,5905.819359448377
0.252,-1.5920775858516811,5890.991760300352
0.256,-1.6311849508147485,5897.242952422793
0.26,-1.6851910625291635,5907.103729424656
0.264,-1.743692590829893,5895.284640279221
0.268,-1.7944099644693994,5898.966036555082
0.272,-1.8266054494412374,5907.1391831386445
0.276,-1.8340832020490754,5898.730267328004
0.28,-1.8168573251898528,5904.864333373886
0.284,-1.781007975472003,5894.287937238688
0.288,-1.7368069366722119,5896.048603076023
0.292,-1.6957158224234044,5894.702481964403
0.296,-1.6671960839038131,5900.464220718145
0.3,-1.6562937774861037,5900.429391928914
0.304,-1.6626551168827748,5891.712794330972
0.308,-1.6811271589530363,5896.135330322874
0.312,-1.7036067685905227,5896.112521540164
0.316,-1.7214904552533035,5903.585148278828
0.32,-1.7280241606047189,5912.994444618717
0.324,-1.720006347934351,5898.704901896218
0.328,-1.6985291807750846,5905.889452730825
0.332,-1.668657430682841,5904.2498272718085
0.336,-1.6381339965723065,5904.769091214699
0.34,-1.6153808314544742,5894.867853008822
0.344,-1.6072321383465649,5905.891003861537
0.348,-1.6169674815008779,5899.84805418821
0.352,-1.6432469527307751,5907.442348285454
0.356,-1.680407649465812,5897.119547900462
0.36,-1.7202069924513421,5899.24703116991
0.364,-1.754548394129949,5891.925976565205
0.368,-1.7782281653160479,5900.396042108421
0.372,-1.7906104270601064,5890.8450030545055
0.376,-1.79551427467367,5889.705691194209
0.38,-1.7993278684517582,5895.908430450848
0.384,-1.808100298948958,5899.639765031844
0.388,-1.8247763879419414,5894.712975488091
0.392,-1.8476643759100992,5903.2971799110055
0.396,-1.8707078841283207,5898.249856063012
0.4,-1.885422202682106,5896.623135172613
0.404,-1.883771952159749,5894.710173783928
0.408,-1.8610003976309009,5899.422037745713
0.412,-1.8174868788663459,5903.26908292989
0.416,-1.7590610335941412,5893.956272483172
0.42,-1.6957280047780334,5902.319387164603
0.424,-1.639247585261599,5897.486454176753
0.428,-1.6002916099358961,5894.889197386658
0.432,-1.585952435185252,5897.728812084667
0.436,-1.5982260024582893,5895.429562356306
0.44,-1.6337880842806154,5901.116886612074
0.444,-1.6850280276615572,5890.772623391115
0.448,-1.7420225357241474,5896.5245297240745
0.452,-1.7949397003810266,5901.52160310475
0.456,-1.8362339967820025,5902.788703970015
0.46,-1.8620075749134495,5907.409856181567
0.464,-1.8721896366926554,5901.697873577884
0.468,-1.8696500776501708,5906.322248186497
0.472,-1.8587324236433487,5897.88045134446
0.476,-1.8437517671870824,5905.788624104567
0.48,-1.8278363137704743,5901.470491533945
0.484,-1.8123156793088364,5905.8810996124985
0.488,-1.7967409678343005,5901.619415284672
0.492,-1.7794868640688772,5891.79243131142
0.496,-1.7587316114591363,5899.595586322545
0.5,-1.7335095893359915,5896.345064795854
0.504,-1.7045056113320989,5901.465365006386
0.508,-1.6743034569382347,5898.124113945576
0.512,-1.6469402099047308,5898.362451427813
0.516,-1.626852808552894,5899.987225944688
0.52,-1.6175450610992195,5901.915677713711
0.524,-1.6204297660356675,5901.43234747166
0.528,-1.634265014263148,5904.669357286845
0.532,-1.6554463073766525,5897.572369207212
0.536,-1.6791565782926834,5902.642468233259
0.54,-1.7010224327441863,5899.441945444947
0.544,-1.7186258359647995,5908.9504581598485
0.548,-1.7322120251916682,5901.7372288191655
0.552,-1.744263990147668,5900.334891200182
0.556,-1.7580832589669502,5903.80405880668
0.56,-1.7759151939643123,5900.006683470393
0.5640000000000001,-1.7973834736456629,5890.46912824779
0.5680000000000001,-1.818956665470225,5900.318036736892
0.5720000000000001,-1.8347755935899372,5906.37138126297
0.5760000000000001,-1.8385595921062283,5899.297114910544
0.58,-1.8258380534027325,5901.430231238205
0.584,-1.7956716752270385,5904.768974733977
0.588,-1.751291399120141,5894.991992428528
0.592,-1.699497883677825,5898.2431703279335
0.596,-1.6490642092270755,5906.133285288335
0.6,-1.6086573639583615,5905.627353520661
0.604,-1.5848773935971598,5900.0774389061335
0.608,-1.5809255110453204,5899.026332324838
0.612,-1.5962059556158814,5894.156710172987
0.616,-1.6268622186942714,5896.558536057988
0.62,-1.6669390320618949,5895.633199261327
0.624,-1.7097362398133398,5896.608176435517
0.628,-1.7490213778778867,5900.987514161399
0.632,-1.779920424718312,5905.970176721287
0.636,-1.7993903207126598,5906.583266522058
0.64,-1.8062483327636958,5898.2127250309
0.644,-1.8008607254277922,5901.897076152254
0.648,-1.7847266064761653,5889.081054016583
0.652,-1.760196206416078,5900.070107806479
0.656,-1.730369410661064,5901.50393110933
0.66,-1.6989741108073715,5901.891867698081
0.664,-1.6699719056750073,5903.471134597379
0.668,-1.646848471216873,5895.736914106081
0.672,-1.6318256944394482,5898.612124794254
0.676,-1.6253481789631694,5909.142910932927
0.68,-1.626086965493173,5890.783060725232
0.684,-1.6314700369560755,5908.015599558477
0.6880000000000001,-1.6385292551617647,5895.747583964008
0.6920000000000001,-1.6447466098818062,5891.027720212991
0.6960000000000001,-1.6486265229005006,5895.444165641896
0.7000000000000001,-1.6498740745054812,5897.217641201464
0.704,-1.6492258450474144,5908.372651382732
0.708,-1.6480779742092475,5899.524667490565
0.712,-1.6480706937233207,5898.083033976006
0.716,-1.6507539614121536,5898.261056173812
0.72,-1.6573889823808308,5905.173490664304
0.724,-1.6688422423592872,5911.560498381937
0.728,-1.6854746493191053,5898.260092187568
0.732,-1.7069938403434641,5898.879891539378
0.736,-1.7323552816112282,5900.409270290516
0.74,-1.7598169757850606,5889.548934216503
0.744,-1.78714911801854,5897.9677708096615
0.748,-1.8118974481177876,5901.929081193866
0.752,-1.8316045314206335,5896.936277827493
0.756,-1.8439949580073383,5893.616782388042
0.76,-1.8472175738715855,5896.736870079341
0.764,-1.84020193492131,5901.761782609647
0.768,-1.8230440749760697,5895.05382970891
0.772,-1.797229137618038,5898.550808285295
0.776,-1.765534773016006,5894.338637663123
0.78,-1.7316031051670813,5895.878151787278
0.784,-1.6993049616279188,5898.920771697066
0.788,-1.6720818135014612,5904.057109136904
0.792,-1.6524394135316387,5903.717153284598
0.796,-1.641694098977813,5905.20829195732
0.8,-1.6399629752079776,5902.970385407277
0.804,-1.646304543121004,5896.525833361095
0.808,-1.6589023536986212,5904.33228013147
0.812,-1.6752270956181292,5898.243002753523
0.8160000000000001,-1.6921923759000408,5896.18648488572
0.8200000000000001,-1.7064158387894197,5897.677695448771
0.8240000000000001,-1.7147105568788377,5903.218150728553
0.8280000000000001,-1.7147652066537384,5906.455319264737
0.8320000000000001,-1.7057373658516426,5904.4805579824015
0.836,-1.6884488837721323,5898.895083477575
0.84,-1.6651261971876012,5897.126203961365
0.844,-1.6389210792828917,5914.663598508035
0.848,-1.6134653239974874,5901.419391795602
0.852,-1.5924877272022524,5897.447774524616
0.856,-1.579373799862212,5887.758010587409
0.86,-1.57663120707199,5896.139200191313
0.864,-1.5853761334920677,5902.4411001962
0.868,-1.605004804591635,5908.7056148944
0.872,-1.633166222992543,5901.579808698243
0.876,-1.666081505867231,5899.357862001549
0.88,-1.6991897207368574,5892.919380218498
0.884,-1.7280231143985578,5904.689113900667
0.888,-1.7491239327657144,5907.347980542333
0.892,-1.7607711628658014,5894.954607761287
0.896,-1.7633396052211503,5903.250933300806
0.9,-1.7592138720148085,5907.236456152093
0.904,-1.7522607833969364,5896.89361602194
0.908,-1.7469387198192625,5899.699131773647
0.912,-1.7472059471460446,5897.581536302065
0.916,-1.7554604013894313,5904.627644174029
0.92,-1.7717847117327794,5902.462574847387
0.924,-1.7937406780720249,5894.885866067321
0.928,-1.8168182517651659,5900.750527209553
0.932,-1.835458131065526,5901.808501781557
0.936,-1.8444199965202384,5896.200891999057
0.94,-1.8401554105214295,5900.771398744049
0.944,-1.8217863299857944,5899.989631282613
0.948,-1.7913910666352237,5900.593646059283
0.952,-1.7535525790755615,5890.069545120213
0.956,-1.7143574739957155,5899.998780596279
0.96,-1.6801347216818325,5894.522845989456
0.964,-1.6562366270671733,5899.995000921518
0.968,-1.6461365786661177,5893.492968058929
0.972,-1.651012245290714,5899.239528167712
0.976,-1.6698118405884732,5904.669712901981
0.98,-1.6996738316878384,5888.866577659235
0.984,-1.7365502824687036,5898.874830291142
0.988,-1.7759229962841219,5894.933785546833
0.992,-1.8135233225254985,5903.12169734714
0.996,-1.8459312799569025,5900.1093134706125
1.0,-1.8708744987417385,5896.686411217811
1.004,-1.8870938202812038,5893.135845359039
1.008,-1.8938590796965167,5899.142108436589
1.012,-1.8904862544891525,5900.738568570007
1.016,-1.8763226901380519,5897.312337349806
1.02,-1.8515164547486245,5899.590681672857
1.024,-1.8184615288266044,5886.906687761185
1.028,-1.7832386438231465,5899.961901576546
1.032,-1.7559868745525018,5902.71058463301
1.036,-1.74931045958978,5900.367093979299
1.04,-1.7745717005321198,5890.996156980082
1.044,-1.8368342927263352,5898.490902720645
1.048,-1.929826012599803,5897.681612371711
1.052,-2.0324568479777954,5905.280609757006
1.056,-2.108346430813934,5901.465314443037
1.06,-2.109551828707062,5900.059163371235
1.064,-1.9849733067784254,5896.0792377951375
1.068,-1.692505584150775,5902.825633889804
1.072,-1.21217974492697,5902.768574735762
1.076,-0.5561476074008577,5892.187425792969
1.08,0.2286732304492333,5903.347102335083
1.084,1.0676149476451975,5888.63703483697
1.088,1.8737636908607647,5905.514261750339
1.092,2.567129114428847,5920.092091358712
1.096,3.091068002698394,5925.2828231937465
1.1,3.4211170975046947,5941.11044761582
1.104,3.5648904598404165,5956.70338348929
1.108,3.5549011717405086,5959.0164648107
1.112,3.437768087657412,5977.231613066754
1.116,3.2632294807807374,5989.948897606576
1.12,3.0753077788696417,5994.609504708242
1.124,2.906624314462636,6009.853244988497
1.128,2.7758733075785167,6021.689576021352
1.132,2.6880375792201625,6032.731015553985
1.136,2.6368518937747725,6046.760683074041
1.14,2.608930099240383,6048.784489225002
1.144,2.58869610196313,6069.418651282001
1.148,2.5629682227598503,6070.915286743903
1.152,2.5240782636898627,6086.170333225969
1.156,2.4709000767823692,6098.369947776653
1.16,2.4078858276659503,6107.816870227324
1.164,2.3427771477028085,6107.987508075891
1.168,2.2838814977751802,6132.326909600353
1.172,2.2377235306566647,6126.497694591002
1.176,2.2075870788477747,6136.159000188009
1.18,2.193062586125327,6151.252657592365
1.184,2.1903999287233327,6155.80033303981
1.188,2.1933959554443843,6164.786755886694
1.192,2.1946461046589203,6172.049975485741
1.196,2.187025068023785,6189.463260352648
1.2,2.1651479070457835,6200.37015654572
1.204,2.1264759143237013,6198.639231413206
1.208,2.0718276659969246,6215.251673799065
1.212,2.005238158148195,6223.049553014191
1.216,1.9332105673606672,6226.693745451672
1.22,1.863455227902959,6226.824650455781
1.224,1.8033340490356102,6238.496768446065
1.228,1.7583866930559802,6249.260621927705
1.232,1.7313244537813848,6251.658433965844
1.236,1.7216771363900152,6246.971652331053
1.24,1.7260401773873613,6252.706001032604
1.244,1.7387811590922553,6269.176775034453
1.248,1.753089804116268,6268.062370352905
1.252,1.762241026902663,6273.853493131288
1.256,1.7608668218113601,6282.516083281785
1.26,1.7459795279901105,6283.039833355208
1.264,1.7174755371754473,6294.695627330424
1.268,1.6778946282353588,6298.391900687973
1.272,1.6314137503609194,6309.949329025478
1.276,1.5824124569309,6319.194435905355
1.28,1.534219196428022,6314.451567113515
1.284,1.4885661544546291,6320.759487284924
1.288,1.4458642291888522,6327.735865299907
1.292,1.4059710977441706,6332.496058065537
1.296,1.368958020668745,6340.344605649062
1.3,1.3355067947169037,6345.723849983798
1.304,1.3068191330890224,6340.397898109514
1.308,1.2841474979660852,6355.252172544733
1.312,1.2681792400040088,6359.102544319421
1.316,1.2585084172831322,6370.1554651773695
1.32,1.2533762265029476,6372.022639958718
1.324,1.2498081472393765,6371.419908878532
1.328,1.2441872793898094,6371.554189623141
1.332,1.2331539072753903,6372.774524783944
1.336,1.2145837700727127,6387.639635064301
1.34,1.1883360122573778,6372.242772154312
1.344,1.1564844698817462,6385.859696851131
1.348,1.1228799652984451,6384.454297337403
1.352,1.092131733132543,6382.533949594074
1.356,1.068332153718707,6390.304547613686
1.36,1.0539539326778686,6400.8115707094485
1.364,1.0492651744033912,6409.41765889867
1.368,1.0523712165414072,6405.511674131573
1.372,1.059754386178511,6414.115183625609
1.376,1.0670976926820699,6420.448504938225
1.38,1.070217741566852,6415.8089711333705
1.384,1.0659433646339997,6416.05617559779
1.388,1.0527283500132607,6427.258100843712
1.392,1.0308138144487045,6422.618703470454
1.396,1.0019336452144967,6427.098435765311
1.4,0.9687613847501821,6441.31400993534
1.404,0.9343543066740227,6446.647137749477
1.408,0.9017378271737119,6450.775775743354
1.412,0.8736117818658533,6447.520987939977
1.416,0.8520758287533655,6454.576358671831
1.42,0.8383173414613472,6438.911767217796
1.424,0.8323332438758575,6455.688113378396
1.428,0.8328347218430502,6449.043992949445
1.432,0.8374280250652371,6459.393294012489
1.436,0.8430549862407759,6459.45863885458
1.44,0.8466322463801098,6458.4201166395815
1.444,0.8458166003743309,6466.87340773155
1.448,0.8397327306920991,6462.446254451414
1.452,0.829357522245677,6460.179183358576
1.456,0.8172391208585629,6453.884849239882
1.46,0.8064585685517445,6473.892406670808
1.464,0.7991531327582486,6464.692383745041
1.468,0.7952931959540674,6479.496539137154
1.472,0.792447462876069,6474.352107708703
1.476,0.7868111394262619,6476.577837634771
1.48,0.7750206881998484,6474.0857771598485
1.484,0.755785850959532,6479.184418214796
1.488,0.7305024561491708,6473.975794681791
1.492,0.7026038658632453,6489.2703915104485
1.496,0.6760462532218595,6491.166178415786
1.5,0.653706999022957,6488.928742320217
1.504,0.6364640701519199,6488.097363806767
1.508,0.623318133531954,6492.010970591741
1.512,0.612344664593351,6493.00297759523
1.516,0.6018778185657272,6499.020278870806
1.52,0.5913469582531976,6495.735049962264
1.524,0.5815177912725219,6501.184928008617
1.528,0.5742325802768146,6499.3188271033205
1.532,0.571867851916436,6508.825537096775
1.536,0.5766551081027212,6487.991769959869
1.54,0.5899220017053111,6514.985704023868
1.544,0.6113488396776204,6509.486217424803
1.548,0.6384849921121482,6505.082540583408
1.552,0.6668615544712653,6504.589262549785
1.556,0.6908923790972215,6504.526085759611
1.56,0.7053969712334193,6507.869004583261
1.564,0.707220497978922,6508.522305079983
1.568,0.6962969587111603,6504.173084784988
1.572,0.6757053870791868,6515.470024458432
1.576,0.6507031940348628,6514.478253050578
1.58,0.6271324097324492,6517.704031102556
1.584,0.6097899470421476,6521.113391247412
1.588,0.6012896648080317,6508.920783114301
1.592,0.6016825048358654,6517.153353846983
1.596,0.6087970041577327,6516.814138466591
1.6,0.619079711003359,6520.309548899872
1.604,0.6286664625223722,6522.639836059906
1.608,0.6344166401839936,6527.411162621512
1.612,0.6346703851501461,6521.418337221359
1.616,0.6295570829726447,6525.361246174886
1.62,0.620775963347188,6537.105812563356
1.624,0.6108962263802259,6523.850897651494
1.628,0.6024037757573614,6531.611233111946
1.632,0.5968615777618763,6525.39605795352
1.636,0.5945025701225831,6528.157991356391
1.64,0.5943451205937837,6535.251195067276
1.644,0.5946898227390879,6535.182868332148
1.648,0.5937607001437052,6539.9105766717485
1.652,0.5902763068278669,6534.187175008322
1.656,0.5838050668742288,6540.006897957416
1.66,0.5748453109538507,6546.714847911138
1.664,0.5646555211338773,6538.558571668556
1.668,0.5549100486126293,6540.187732525657
1.672,0.5472682214682477,6537.247605799204
1.676,0.5429508220304291,6533.6796502170455
1.68,0.542416459872652,6540.32816277564
1.684,0.5452062700933931,6537.598029614754
1.688,0.5500020600774116,6545.355024549135
1.692,0.554928068185719,6544.506047038216
1.696,0.5580675599862048,6537.043960909027
1.7,0.5580468682337371,6540.596330418128
1.704,0.5544533328687459,6545.490074238349
1.708,0.5478941336719103,6545.171401393917
1.712,0.5396458997276595,6541.893894540487
1.716,0.5310036900826635,6538.284104201833
1.72,0.5225711160572817,6546.556048222338
1.724,0.5138116117372334,6546.101953633813
1.728,0.503123616022958,6554.605919399648
1.732,0.4884717026953249,6548.000693574297
1.736,0.4683299900614633,6543.895421489322
1.74,0.4425588812845532,6544.160259893704
1.744,0.4128677304695602,6556.035709685346
1.748,0.38263679997792044,6549.94856300788
1.752,0.3560855048939575,6553.485205250455
1.756,0.33706850545079436,6550.035535999937
1.76,0.3279789652490786,6550.724290784289
1.764,0.32916866479075224,6558.307199727095
1.768,0.33900371485547093,6550.715395949626
1.772,0.35436575007423154,6541.826861914441
1.776,0.37128297959836243,6550.952535999083
1.78,0.3855047217025564,6540.059447494135
1.784,0.39307544237358605,6548.065618625913
1.788,0.3910644799946263,6558.093587488634
1.792,0.37845103947704456,6558.2528868997415
1.796,0.3568775484826145,6552.12957687404
1.8,0.33079692725082266,6554.380511049386
1.804,0.306640053002137,6550.371167216905
1.808,0.29106399865303867,6556.120591097107
1.812,0.2888800312038124,6560.121040389327
1.816,0.3015051337589764,6559.3345921445525
1.82,0.32655355207525993,6555.1406598500735
1.824,0.35867562906033845,6552.207257564258
1.828,0.39126712626184074,6559.887981784766
1.832,0.41841497309513914,6553.28184131889
