时间(s),电压(V),幅值(高频80K)
0.0,-1.5570715810207352,5895.351226753543
0.004,-1.473914262742109,5891.939618783932
0.008,-1.4001068429979764,5899.123271832119
0.012,-1.342447259255695,5906.023294545568
0.016,-1.3040122162736383,5897.926581366515
0.02,-1.2838671254506038,5898.36095691885
0.024,-1.2777652922552019,5894.546120210378
0.028,-1.2795047544955107,5895.152702413232
0.032,-1.2825848962519046,5894.741031860124
0.036,-1.2817924547113875,5900.073179222791
0.04,-1.2743211130185197,5894.479602319428
0.044,-1.260123522156709,5896.590500668133
0.048,-1.2414660304764351,5895.100368880027
0.052,-1.2219609750282656,5899.265165046419
0.056,-1.2054736305077578,5903.983746665569
0.06,-1.1951959525561588,5900.755729436171
0.064,-1.1930224698953624,5899.679962127226
0.068,-1.199297949113808,5894.002161118583
0.072,-1.212961906088913,5897.927052352251
0.076,-1.2319850953749367,5894.147896790595
0.08,-1.2538527805838107,5896.712964306485
0.084,-1.2758683686993986,5894.367377928525
0.088,-1.295259077827928,5892.876838280531
0.092,-1.3093002886030742,5897.812313003037
0.096,-1.3157255587199348,5897.292126216865
0.1,-1.3134592495920026,5892.745525108068
0.104,-1.3033408953651622,5898.669681025936
0.108,-1.2883402110453346,5899.058819053211
0.112,-1.272980914291409,5896.26846477239
0.116,-1.262104167236024,5898.438475732046
0.12,-1.259388448914164,5907.1180581158205
0.124,-1.2661285279527728,5896.614401698304
0.128,-1.2807395602578187,5890.017561957719
0.132,-1.2992511291259026,5905.702606186411
0.136,-1.316639412612081,5899.657308845894
0.14,-1.3284268829664458,5899.116369787587
0.144,-1.3319087174247422,5896.140990012006
0.148,-1.3266995338795478,5898.370488151861
0.152,-1.31467799417929,5899.019784545091
0.156,-1.2994941081239535,5902.002256620859
0.16,-1.285671859559197,5894.794623371976
0.164,-1.2773371058201635,5898.270237987275
0.168,-1.276859312122741,5894.524165908694
0.172,-1.2839526755857007,5897.653522259886
0.176,-1.295699992769824,5907.722726897519
0.18,-1.3075237284890648,5891.691476701768
0.184,-1.314662094966179,5901.188506696234
0.188,-1.3135545675786535,5893.040622251551
0.192,-1.3027309754831697,5902.227772108492
0.196,-1.2830794254001718,5902.461805868161
0.2,-1.2575294821067973,5894.638769229165
0.204,-1.2302535469251856,5894.614181219418
0.208,-1.2055834709401698,5898.205225681382
0.212,-1.1869588268653568,5894.774201225225
0.216,-1.1762383730673451,5896.782599139907
0.22,-1.1735527707857396,5906.336553284429
0.224,-1.1776604037029197,5909.05893751942
0.228,-1.1866198072066414,5892.702169671695
0.232,-1.1985242147994954,5896.91208969017
0.236,-1.2120434626068888,5897.291241749181
0.24,-1.2266236434210773,5900.888526277306
0.244,-1.2423695253298883,5904.256803660676
0.248,-1.2597416827017198,5900.731504396465
0.252,-1.279184475440302,5898.828476283881
0.256,-1.3007568401363785,5909.210818857579
0.26,-1.3238510512283275,5901.865211259659
0.264,-1.3471256495554778,5906.146688744168
0.268,-1.3687540715613158,5906.044566798921
0.272,-1.3869381661077185,5899.50332818177
0.276,-1.4004328382570017,5901.364859164272
0.28,-1.408773821596081,5899.068506953825
0.284,-1.4120831545277674,5892.735934533936
0.288,-1.41060548911759,5903.166853634694
0.292,-1.4043073957368009,5900.426595632388
0.296,-1.3928522495665387,5896.576345947678
0.3,-1.3760437229589852,5897.157036723432
0.304,-1.3545170353633587,5899.501848428542
0.308,-1.3302520299073617,5902.52587362959
0.312,-1.3065493452807915,5900.045362032674
0.316,-1.287412078215159,5892.663419691329
0.32,-1.2765888046511424,5892.139444602064
0.324,-1.2766610598969743,5899.990209514271
0.328,-1.2884742778209144,5903.0696020577925
0.332,-1.3110099994840934,5897.998306713379
0.336,-1.3415935115732442,5903.020560562746
0.34,-1.376248412486115,5896.849949669306
0.344,-1.410112993858747,5897.806957645685
0.348,-1.4379975519623807,5905.830991197444
0.352,-1.4551620262315352,5898.179460174692
0.356,-1.4581969086165534,5901.933588854601
0.36,-1.4457174636500512,5897.060303763016
0.364,-1.418629487901656,5894.068779396614
0.368,-1.3799383258951,5895.796687254308
0.372,-1.3342342649455168,5897.6264886175495
0.376,-1.286991580008506,5897.213188970052
0.38,-1.2437701574830673,5906.358638927424
0.384,-1.2094212828041802,5898.729412335769
0.388,-1.1874336372998708,5899.656159498786
0.392,-1.179534875335382,5889.91278556601
0.396,-1.1855897137555358,5898.110421829818
0.4,-1.20374636100024,5901.794621207638
0.404,-1.230739840746473,5908.855476534664
0.408,-1.262315906345639,5901.10182290982
0.412,-1.2938242221648726,5899.758364276885
0.416,-1.3209928569580425,5898.609844762876
0.42,-1.3407241921869573,5890.996999844022
0.424,-1.3516269246559167,5892.474114104564
0.428,-1.3540759226423746,5896.035051466715
0.432,-1.3498159506545337,5901.221481601014
0.436,-1.3413182711018552,5898.308388643409
0.44,-1.3311524020292342,5898.607954657371
0.444,-1.3215609423273298,5902.826168745212
0.448,-1.3142904374677291,5906.14796276746
0.452,-1.3106072693426585,5897.2741869030415
0.456,-1.31136288224151,5909.879969543966
0.46,-1.3169782551361897,5899.178381596572
0.464,-1.327290785729104,5903.191847198375
0.468,-1.3413391604348506,5898.794175141483
0.472,-1.3572887321492013,5907.460457855223
0.476,-1.3726985307662594,5903.733205773376
0.48,-1.3851440618418471,5898.447946033159
0.484,-1.3929499711109234,5900.8519831228
0.488,-1.3956505721948629,5898.187367565789
0.492,-1.3938973046499146,5893.143676775872
0.496,-1.3888362521546862,5905.455189689533
0.5,-1.3813189696140142,5899.942310661294
0.504,-1.371443452310798,5902.688879610107
0.508,-1.358713701333303,5894.802392955128
0.512,-1.3427050960948836,5899.897713989002
0.516,-1.3238389876724137,5897.951059584436
0.52,-1.3038522808940491,5905.094811316227
0.524,-1.2857010727850158,5903.350220133529
0.528,-1.2728383499644773,5900.357884625917
0.532,-1.26803877422496,5902.724542971658
0.536,-1.2721944336419542,5904.492973003408
0.54,-1.2836404944516044,5899.269129057347
0.544,-1.2984221465548333,5901.610478970061
0.548,-1.3114938031022123,5898.8275412484645
0.552,-1.3183909115159602,5902.9867042508295
0.556,-1.316710546400202,5901.328893854549
0.56,-1.3068560077963138,5899.740431324148
0.5640000000000001,-1.2918155285785886,5893.035237909124
0.5680000000000001,-1.2760987262844872,5900.229063957338
0.5720000000000001,-1.264241940402421,5907.599942318181
0.5760000000000001,-1.2594220683782917,5903.724496168546
0.58,-1.2626384720899324,5904.464262868221
0.584,-1.2726908629164377,5900.927868409539
0.588,-1.2868947436330174,5900.845763322648
0.592,-1.3022038033815022,5894.064663990654
0.596,-1.316247705602784,5894.32756965024
0.6,-1.3278660956222441,5900.56259589395
0.604,-1.3370198152999788,5898.853430296588
0.608,-1.3442933598286506,5893.218037557958
0.612,-1.350349036186927,5893.492210277883
0.616,-1.355595614754583,5886.552295847507
0.62,-1.3601098605379778,5899.069555621606
0.624,-1.363673921817451,5903.608379805262
0.628,-1.3657781197272312,5904.063745833477
0.632,-1.3655700217233098,5899.753688504326
0.636,-1.3618712345924082,5891.126195434539
0.64,-1.3533908144743225,5910.138899120248
0.644,-1.339129961951227,5891.469308418359
0.648,-1.3188375420664042,5895.276118223389
0.652,-1.2933750516464382,5899.123295366264
0.656,-1.2649425797512701,5908.226193652672
0.66,-1.2371313945472955,5904.052278277383
0.664,-1.2146563059739899,5904.598156043602
0.668,-1.2025768231393126,5892.587180074459
0.672,-1.205019517344038,5895.622560917323
0.676,-1.2237478889823035,5901.902330763002
0.68,-1.2571163678322685,5900.300607863112
0.684,-1.299882706565313,5901.331635583105
0.6880000000000001,-1.344106261783805,5893.490953117544
0.6920000000000001,-1.380998504940551,5890.4269735158805
0.6960000000000001,-1.4031985950008001,5905.104974638825
0.7000000000000001,-1.4066994714928678,5901.8794266942
0.704,-1.391732586500195,5903.649710950775
0.708,-1.3623504801533457,5896.76542337366
0.712,-1.325013019392412,5902.371536432972
0.716,-1.2868502942465185,5898.317073243163
0.72,-1.2542369365527242,5891.282723094722
0.724,-1.2319667452934244,5898.895527446444
0.728,-1.222953673021977,5903.910965845072
0.732,-1.2282204161502133,5906.992238089631
0.736,-1.246981929166103,5906.585932537555
0.74,-1.2767754106054587,5904.9495163049405
0.744,-1.3137011225961739,5909.998171873859
0.748,-1.3528404672019976,5904.823267950432
0.752,-1.3888391478254292,5906.508659132994
0.756,-1.4165934588660218,5900.059737618487
0.76,-1.4319921957226072,5896.627335472818
0.764,-1.4326552251771802,5896.874093619591
0.768,-1.4185187330134053,5906.362232049877
0.772,-1.3920380006821593,5898.221113414846
0.776,-1.357826344269426,5896.727662915586
0.78,-1.3217237526793997,5895.013161254784
0.784,-1.2895025380184486,5891.994737106291
0.788,-1.2655765460679234,5892.985682611591
0.792,-1.2521146437851278,5895.256111148762
0.796,-1.2488371891479493,5899.562191939774
0.8,-1.2535336935568182,5901.333286698628
0.804,-1.2630705536132842,5901.133588545358
0.808,-1.2744622391838722,5896.8552276845285
0.812,-1.2855748579740054,5895.858457616529
0.8160000000000001,-1.2952713610718796,5904.735668421493
0.8200000000000001,-1.303137685856529,5891.848873723687
0.8240000000000001,-1.309100275081324,5903.250882848165
0.8280000000000001,-1.3131958557781376,5909.276706500902
0.8320000000000001,-1.3155814151650966,5889.343139622157
0.836,-1.3166586613070352,5907.895104972763
0.84,-1.3170541979251513,5895.433026901717
0.844,-1.3173042064013691,5908.444205592585
0.848,-1.3173957811265815,5899.365831545151
0.852,-1.3165151127019823,5894.851676276388
0.856,-1.3132370181318074,5897.768226834737
0.86,-1.3061088440943844,5905.436146079564
0.864,-1.2944069753760306,5893.8612452778425
0.868,-1.278810162286754,5905.862508037654
0.872,-1.2617043208715737,5887.223439084886
0.876,-1.2468305209486783,5904.156000901565
0.88,-1.2381995242493435,5896.078773296213
0.884,-1.2386249352417942,5899.8283111012015
0.888,-1.2485453494432168,5900.079129685517
0.892,-1.2657073248779744,5893.244353115272
0.896,-1.2858358087812576,5899.748064701032
0.9,-1.3039606627590252,5898.269280638056
0.904,-1.3158725792226005,5885.54690560828
0.908,-1.3192895255742605,5903.8734300712
0.912,-1.3145247455421738,5895.620037772041
0.916,-1.3045356053487895,5905.248486838636
0.92,-1.2942422593080487,5901.95848195974
0.924,-1.2891560487488234,5897.713395149891
0.928,-1.2936681008782602,5905.049824672752
0.932,-1.309567484869324,5904.142011232168
0.936,-1.3352872132013462,5896.1144825708425
0.94,-1.3660878581079874,5912.098209966564
0.944,-1.395097144654403,5901.623144218085
0.948,-1.4149511754057753,5897.232262697227
0.952,-1.419689697358636,5894.396072815967
0.956,-1.4064665754651295,5894.980914551186
0.96,-1.376582589984626,5898.611558994626
0.964,-1.3354564092661088,5905.910646810303
0.968,-1.291449721385183,5905.316893474021
0.972,-1.253823272475754,5896.679088135644
0.976,-1.2303864873086325,5893.771082868507
0.98,-1.2255449220648327,5901.749860750155
0.984,-1.2393605374320422,5897.101590487989
0.988,-1.2678807592997943,5897.64076449325
0.992,-1.3045322056208495,5899.553864406829
0.996,-1.3420685423016105,5902.474657621683
1.0,-1.3744745809289047,5898.813579434256
1.004,-1.3982713909727964,5899.39736127783
1.008,-1.412837478275423,5907.434870508868
1.012,-1.4197247138496387,5896.990195776455
1.016,-1.42139907435832,5900.783007658747
1.02,-1.420074373521914,5897.177993589109
1.024,-1.4171305455563095,5901.6360475385045
1.028,-1.4131571074871738,5908.415243030266
1.032,-1.4082980649170993,5908.995416156708
1.036,-1.402540665447739,5901.074750938316
1.04,-1.39581929777556,5894.87478874539
1.044,-1.388026420604451,5903.154538889862
1.048,-1.3790421621307922,5897.112705398932
1.052,-1.3687732541190365,5904.350231672213
1.056,-1.3571365323311033,5897.75290031561
1.06,-1.3440160587934682,5905.631093128573
1.064,-1.329321856265395,5887.961488314042
1.068,-1.3132215289734244,5898.827592660392
1.072,-1.296449234771652,5902.710402648262
1.076,-1.2804915713014018,5900.107807423476
1.08,-1.2674929301532885,5904.955308488671
1.084,-1.2598551423632882,5895.446180358068
1.088,-1.2596260154036876,5893.840320089521
1.092,-1.2678416983598684,5902.677253663819
1.096,-1.2840205859794709,5901.327996946247
1.1,-1.3059891502713878,5897.023007189687
1.104,-1.3301435729452111,5896.235951927459
1.108,-1.3521542772219899,5899.556840416809
1.112,-1.3680184550468042,5895.426105608571
1.116,-1.375213953527373,5911.217952981107
1.12,-1.373534788945089,5901.654833817045
1.124,-1.3651744181282544,5904.013318663552
1.128,-1.353905299984032,5900.787702414377
1.132,-1.3436495030417992,5902.819657493292
1.136,-1.3370442574615489,5898.912576726011
1.14,-1.3345919174781244,5905.043102904924
1.144,-1.3346772357281291,5899.693612725202
1.148,-1.3343276752028141,5893.0319886028665
1.152,-1.3303244373762513,5894.298600883593
1.156,-1.3202539064002305,5905.71513731257
1.16,-1.3032321201020043,5898.901599264531
1.164,-1.280190557507285,5906.455542732231
1.168,-1.2537163787222756,5894.175297998587
1.172,-1.2275189578870818,5902.312800779803
1.176,-1.2056696639940294,5909.026240124703
1.18,-1.191788448159858,5899.384223895258
1.184,-1.1883072122766867,5896.975370147678
1.188,-1.1959140717639785,5903.634453661374
1.192,-1.2133213072090165,5899.696470152706
1.196,-1.2374888129598471,5901.557106791028
1.2,-1.2642904451213732,5899.649221791019
1.204,-1.2894373021029915,5900.21854406852
1.208,-1.3093965765127014,5899.800547239212
1.212,-1.3220664808433442,5902.1976377148885
1.216,-1.3270526227380879,5899.065769645087
1.22,-1.3255304988512975,5901.0636670426975
1.224,-1.319813237245834,5902.0890370671605
1.228,-1.3127849542168826,5910.347973791856
1.232,-1.3073083790387081,5900.666127423516
1.236,-1.3056556010552696,5901.489288942807
1.24,-1.3089977475410244,5902.413183153466
1.244,-1.3170127903612805,5893.165156128459
1.248,-1.3277125743458267,5894.673309813351
1.252,-1.3376333235365923,5898.317171801651
1.256,-1.3425156826828712,5895.697294641913
1.26,-1.338441508573229,5901.726572048772
1.264,-1.323124424720805,5895.794382475948
1.268,-1.29686515846859,5902.174793562332
1.272,-1.2627732342928102,5906.425369022086
1.276,-1.2261745288518584,5897.261281067726
1.28,-1.1934270448655213,5902.306505261891
1.284,-1.1704988842882043,5907.178534974441
1.288,-1.1616561490193322,5897.114662073597
1.292,-1.1685553081919797,5906.412922092482
1.296,-1.1899669628458798,5899.252419396924
1.3,-1.222233799630598,5900.0846971735
1.304,-1.2603361199579204,5900.961571171601
1.308,-1.2991737766971174,5905.648087248324
1.312,-1.33456716117061,5893.83570374534
1.316,-1.3636516945782693,5897.011172827346
1.32,-1.3846960158120123,5901.788199940864
1.324,-1.396686743590181,5899.931925472627
1.328,-1.3990808536315027,5904.436735251278
1.332,-1.3918880560745144,5894.186839506754
1.336,-1.3759267422670594,5891.363925389657
1.34,-1.352976782780285,5903.980762266956
1.344,-1.3256664078882172,5898.660316497127
1.348,-1.2970943678117925,5889.32665756282
1.352,-1.2702724729036878,5901.386890135409
1.356,-1.247518271222097,5893.597405288992
1.36,-1.2299969528782824,5899.414399059992
1.364,-1.2176369290134714,5896.145865035815
1.368,-1.2095058946221395,5901.304104898062
1.372,-1.204467554072489,5899.437507275508
1.376,-1.2017512660392562,5906.205803984675
1.38,-1.2011364316619093,5896.744600183847
1.384,-1.20274173450002,5900.475905489744
1.388,-1.2066875163039668,5903.152421057004
1.392,-1.2129503220928648,5901.507260424325
1.396,-1.221516760998772,5903.432880433117
1.4,-1.2326432182253835,5906.068850848211
1.404,-1.2468972274927865,5891.027551818659
1.408,-1.2648053855204338,5903.224730473519
1.412,-1.2862176392382418,5903.192414286625
1.416,-1.309705808595963,5897.786407353356
1.42,-1.3323537315368748,5883.632613980619
1.424,-1.350167751632719,5904.748199422233
1.428,-1.35908088071357,5903.957297233619
1.432,-1.3562423826393981,5904.532879391488
1.436,-1.3411061337833234,5898.178358294023
1.44,-1.3158567181760679,5899.663675907371
1.444,-1.2849676928013027,5900.559856781872
1.448,-1.254063783516761,5897.538786171425
1.452,-1.2285303983755087,5901.908360940168
1.456,-1.212314824260466,5905.429014631367
1.46,-1.2071722267968636,5906.53581402409
1.464,-1.2124391739204938,5895.573269105326
1.468,-1.2253471290606601,5906.314046035192
1.472,-1.2418402581428907,5896.405079231885
1.476,-1.2577643977601949,5902.141892153864
1.48,-1.2701368726419082,5893.672704775559
1.484,-1.2780570120793173,5898.916344561348
1.488,-1.2828384211202892,5891.355973175399
1.492,-1.2872410135016095,5902.764896258751
1.496,-1.2941098554318564,5900.617641674317
1.5,-1.3049961001755799,5898.88498294682
1.504,-1.3192955116475202,5904.697640572202
1.508,-1.334201811764696,5907.618704310973
1.512,-1.3455045482411723,5903.232157193225
1.516,-1.3489985248801504,5899.872143604972
1.52,-1.3420195789148897,5896.667761120683
1.524,-1.3245218477413756,5892.159976670704
1.528,-1.2992953009203831,5909.075246537079
1.532,-1.271282147046257,5900.898861936585
1.536,-1.2462535612889272,5897.519831542735
1.54,-1.2292606301903277,5897.137043873214
1.544,-1.2233235541137475,5897.221603006781
1.548,-1.2287682345030069,5900.844571520858
1.552,-1.2433926103083746,5900.718582319523
1.556,-1.263301300782005,5899.882069707595
1.56,-1.2840035461560675,5904.546232420276
1.564,-1.3013880710805636,5891.110840885435
1.568,-1.3124005993254255,5897.650737420059
1.572,-1.3154536083408042,5899.093255174987
1.576,-1.3106612491048866,5896.508736098939
1.58,-1.2999138706605664,5896.508458952168
1.584,-1.2866771045560559,5892.826574142553
1.588,-1.2753704819412937,5897.089234400589
1.592,-1.2703505050656732,5899.474126711074
1.596,-1.2747901698234316,5892.226328252456
1.6,-1.2898682197029314,5899.00678992073
1.604,-1.314539861715054,5895.410466512736
1.608,-1.3458850810738932,5894.065525751547
1.612,-1.379824974377807,5908.522047093657
1.616,-1.4119270425915045,5899.838878140092
1.62,-1.438045272575459,5901.5476858424745
1.624,-1.4546620304371543,5897.184876729415
1.628,-1.4590046752814656,5899.971075630671
1.632,-1.4491497764777292,5893.8778325765925
1.636,-1.4242755258207946,5899.488940717099
1.64,-1.3850672567187037,5899.612143397945
1.644,-1.3341567314303642,5905.896416258167
1.648,-1.2763715185888465,5898.595926903676
1.652,-1.2184802986304135,5897.227275778511
1.656,-1.1681799215079258,5904.488722469844
1.66,-1.1323786767253032,5896.778401866397
1.664,-1.1152656942400436,5895.587664887239
1.668,-1.1169487176523993,5896.093592530482
1.672,-1.133361827510686,5903.83963738022
1.676,-1.1576595628198354,5897.746478817599
1.68,-1.1826446581936465,5900.518805559864
1.684,-1.2032873622555644,5896.222693862183
1.688,-1.2183713547827768,5903.941914850803
1.692,-1.2307495706559775,5898.413374281327
1.696,-1.2463048231570732,5898.825624674337
1.7,-1.2720894022492217,5901.80205150419
1.704,-1.3141115826733385,5904.867546839812
1.708,-1.375030382108056,5897.68935784236
1.712,-1.4518914570155068,5904.558801239707
1.716,-1.5341139331836189,5901.551378795702
1.72,-1.6022099630648658,5904.06722053195
1.724,-1.6280819890651572,5901.860774515311
1.728,-1.577909257937485,5884.266070738859
1.732,-1.4182010941699124,5906.281296367701
1.736,-1.1244227728749676,5888.727969689219
1.74,-0.690106202463689,5903.128846624758
1.744,-0.13330253280162915,5900.6212418087125
1.748,0.5027145406711986,5895.042433821916
1.752,1.1560773047348971,5899.341698459609
1.756,1.7591118282593605,5923.028854544974
1.76,2.253313498569996,5932.986322319607
1.764,2.601489230012392,5951.926248478751
1.768,2.7934932307076012,5964.532172032998
1.772,2.8447835008989664,5984.09015813118
1.776,2.789420928129507,6001.555393205142
1.78,2.6702894143262297,6016.857349890567
1.784,2.5293544192995387,6039.334804175959
1.788,2.4000889927481825,6059.151539705472
1.792,2.3031766747464966,6062.3742228155215
1.796,2.2456319824078395,6089.554003202734
1.8,2.222785173799347,6099.524643807448
1.804,2.2221758672990153,6110.967626785211
1.808,2.2282514188163223,6128.837138252197
1.812,2.2268262583932525,6150.942921764406
1.816,2.2084433107296495,6156.328982492507
1.82,2.170048197866736,6165.993467443156
