时间(s),电压(V),幅值(高频80K)
0.0,-1.1595789904380192,5901.160982562708
0.004,-1.2722140150223984,5906.25680912441
0.008,-1.3748228821043749,5900.485368528601
0.012,-1.4590193988914406,5905.467522363102
0.016,-1.5191812538764164,5888.746022762669
0.02,-1.553202752398495,5907.907407877229
0.024,-1.5625010375632562,5903.4661150841175
0.028,-1.5513257528502258,5908.289739050023
0.032,-1.5256977861118708,5900.02179935618
0.036,-1.4923097160925753,5900.456806484651
0.04,-1.4575330300167204,5900.341610122541
0.044,-1.4265527600652816,5894.868200722799
0.048,-1.4026924012153879,5898.058790731901
0.052,-1.3870949020532748,5900.035559167024
0.056,-1.3789198595729424,5906.362862079508
0.06,-1.3760454794854278,5901.935482848215
0.064,-1.3760567686604837,5892.388708566719
0.068,-1.3772052992650246,5900.576439667198
0.072,-1.3790273504968973,5895.731772296182
0.076,-1.382365618025122,5904.590671771532
0.08,-1.3887314975505098,5899.24640079329
0.084,-1.3992852217855865,5893.181517128026
0.088,-1.4139883953974808,5894.9481080572405
0.092,-1.4314429261780632,5905.48807711859
0.096,-1.4495309470078979,5900.157921247909
0.1,-1.4664399990085446,5889.745325306377
0.104,-1.4813835003765177,5905.653176126724
0.108,-1.4945685766203056,5902.596830595154
0.112,-1.5065463691507943,5897.916749425603
0.116,-1.5174976318413873,5903.5883322847385
0.12,-1.5269376463148845,5905.376175040033
0.124,-1.5339397464290438,5894.0004524252645
0.128,-1.5376625026386344,5904.198109029628
0.132,-1.5378906328991588,5896.983955011352
0.136,-1.5353730329324444,5904.01617752246
0.14,-1.5318402544844862,5903.742048517521
0.144,-1.5296718140996939,5906.68771863647
0.148,-1.53127952775018,5897.731346371227
0.152,-1.5383757076488476,5896.7285014905965
0.156,-1.5513544839102122,5897.381814494189
0.16,-1.568986013816348,5896.8675602032445
0.164,-1.5885203457730885,5902.216302856722
0.168,-1.6061795732505704,5902.721626090313
0.172,-1.6179278511768271,5902.137380439158
0.176,-1.6203450040781808,5896.844599760869
0.18,-1.611395372294366,5907.489753870738
0.184,-1.5909217584791362,5891.468216235566
0.188,-1.560806056628933,5899.943082054081
0.192,-1.524837311381952,5900.79500233971
0.196,-1.4883293808068903,5900.616457556379
0.2,-1.4574669763704713,5895.800299276819
0.204,-1.4383614573595855,5899.547618262125
0.208,-1.4359243115089402,5900.204471493416
0.212,-1.452802953484607,5896.1414845462095
0.216,-1.4886332976959846,5903.952380625046
0.22,-1.5397675690933934,5889.994669675496
0.224,-1.5995389075061675,5898.572210841613
0.228,-1.659062756774918,5899.655341681883
0.232,-1.7085357826202168,5897.679278773917
0.236,-1.7389435091361474,5908.059082241468
0.24,-1.7439610759372148,5906.744450451116
0.244,-1.7216347047853242,5896.159093675335
0.248,-1.675309768291275,5895.176878183088
0.252,-1.6133597194960703,5894.011660147559
0.256,-1.5475793291477848,5895.141085019353
0.26,-1.4905513927906422,5894.4478838459045
0.264,-1.4527119982729695,5903.5451740021645
0.268,-1.4400058731163858,5896.791133299222
0.272,-1.4528106554341822,5899.400763269892
0.276,-1.4863151275399509,5898.681106491844
0.28,-1.5320412860629695,5896.771673392468
0.284,-1.5799482546519552,5900.774576602766
0.288,-1.6205780874308733,5901.746815647269
0.292,-1.6468426414540749,5895.850120654507
0.296,-1.6551555996036578,5903.781723305068
0.3,-1.645700388243942,5893.950131931505
0.304,-1.6218068190897645,5899.874762801739
0.308,-1.5886804557249203,5898.337523560134
0.312,-1.551927331857361,5898.981033428311
0.316,-1.516322081707005,5897.224527342099
0.32,-1.485109995006705,5899.146759654419
0.324,-1.4599079135990753,5902.530157355775
0.328,-1.4410681425566159,5891.946709686576
0.332,-1.4282706894698007,5899.290064562655
0.336,-1.4211038763420787,5906.090784976059
0.34,-1.4194105659021787,5901.821052600726
0.344,-1.4232441509872955,5900.9993531661885
0.348,-1.432487299682665,5894.113690415974
0.352,-1.4464439416285486,5896.048681707466
0.356,-1.4637594421985214,5889.440313383945
0.36,-1.4827751424360396,5910.541641241322
0.364,-1.5021081714805478,5897.604084348352
0.368,-1.5211153851457755,5893.258014691887
0.372,-1.5399879705333683,5904.884812928239
0.376,-1.5594197155972598,5903.183970765908
0.38,-1.5799806833545984,5906.932501335453
0.384,-1.6014390383276191,5905.290685290726
0.388,-1.6222939024536962,5899.89014302302
0.392,-1.6397404246761278,5904.740529752172
0.396,-1.6502001328749794,5903.4551704427095
0.4,-1.6503803581600454,5901.567634707237
0.404,-1.6385621958336656,5895.796433676828
0.408,-1.6155845548355854,5893.892410153504
0.412,-1.5850105703109971,5899.611554962468
0.416,-1.552305161190946,5893.860008804297
0.42,-1.5233327584656646,5901.096720606109
0.424,-1.5028053672603876,5908.320087806238
0.428,-1.4932826896976144,5895.163999986151
0.432,-1.4949815522076564,5901.097654676451
0.436,-1.5062357753900086,5900.7868889877045
0.44,-1.5242442235750802,5896.104370565558
0.444,-1.5458234734927143,5903.039751173708
0.448,-1.568047326032034,5902.848039867147
0.452,-1.5887159434785845,5896.52119866684
0.456,-1.6065750424805243,5899.449242113039
0.46,-1.6212279815651867,5899.585433811255
0.464,-1.63279782282073,5893.379151394164
0.468,-1.6415309279001862,5898.283011653778
0.472,-1.6475620438118552,5898.213214921846
0.476,-1.6509201741129633,5905.854854169142
0.48,-1.6516407535805566,5904.242682058378
0.484,-1.6497564636414868,5899.468542568167
0.488,-1.6450741023538116,5890.971902022895
0.492,-1.6369059783204856,5900.406323255742
0.496,-1.6240617801961095,5899.988751294968
0.5,-1.6052603306229842,5905.339427959604
0.504,-1.5798107309297291,5895.039733204701
0.508,-1.5482213864005192,5899.680286189472
0.512,-1.5124515824167553,5904.125707260373
0.516,-1.4757080698275555,5893.858129302661
0.52,-1.4418581060328013,5903.903592995272
0.524,-1.4146410405619008,5894.237233470061
0.528,-1.396908522729472,5896.96241270028
0.532,-1.390074268171638,5897.111734358968
0.536,-1.3938243129481505,5903.189897144634
0.54,-1.4060572746927007,5898.484065245895
0.544,-1.42310044137555,5897.666230196212
0.548,-1.4403666622549178,5905.022184757451
0.552,-1.4535223678894666,5905.504606517839
0.556,-1.4598873935506285,5904.554109308628
0.56,-1.4594720895077269,5898.758909996685
0.5640000000000001,-1.455080529659451,5901.167303946093
0.5680000000000001,-1.4512885306127419,5899.662345441174
0.5720000000000001,-1.452617057319895,5904.258304632474
0.5760000000000001,-1.461609575221405,5904.457757030136
0.58,-1.4776139583219003,5900.166739107688
0.584,-1.4967979338118977,5899.757597993468
0.588,-1.5133854618026146,5894.035060253984
0.592,-1.5215824343314448,5897.987399166637
0.596,-1.5174687518055783,5896.240870519298
0.6,-1.5002862258076477,5905.499437786284
0.604,-1.4728043101854411,5903.677142394136
0.608,-1.4406625050942214,5898.542753393216
0.612,-1.4108547998861165,5905.19959398157
0.616,-1.3898436171969994,5897.100828160065
0.62,-1.381949904769292,5902.830630066019
0.624,-1.388498484015937,5909.189929702189
0.628,-1.4078338556962646,5902.810096052909
0.632,-1.4360221306453855,5895.1239295070445
0.636,-1.4679270464396572,5898.205565860397
0.64,-1.498337843867709,5903.043038537126
0.644,-1.5228922194754968,5896.414166175046
0.648,-1.538674932654937,5900.805503647592
0.652,-1.5445040568743584,5909.9981996667
0.656,-1.5409319769200795,5892.814333869755
0.66,-1.529929718002746,5899.177149466719
0.664,-1.5142595348265833,5902.566303204566
0.668,-1.496700132444988,5903.39193437647
0.672,-1.4793989427679655,5902.419003827168
0.676,-1.4635687625620861,5898.149414776166
0.68,-1.4495809150660064,5899.350596860529
0.684,-1.437327522919156,5901.163081296783
0.6880000000000001,-1.4266100384721052,5896.1368562491525
0.6920000000000001,-1.4173619475448336,5908.263008809505
0.6960000000000001,-1.4097161258753885,5903.612184671594
0.7000000000000001,-1.4040644225247512,5900.8570233089695
0.704,-1.401161086840446,5894.111976289189
0.708,-1.4021218274184655,5900.962358672945
0.712,-1.4081370629233538,5902.141133342939
0.716,-1.4199193498603797,5903.091350434126
0.72,-1.43714137975216,5894.941788426811
0.724,-1.4581831642552665,5899.979707801374
0.728,-1.4803646102504238,5899.539895613169
0.732,-1.5005860252726781,5892.99643362086
0.736,-1.51608758955632,5903.199420016838
0.74,-1.525028242095423,5899.64416051426
0.744,-1.5267630544859767,5906.488863794969
0.748,-1.5218689403712435,5892.226503406827
0.752,-1.5120095765500048,5908.836228135087
0.756,-1.4996891551440688,5906.902836489336
0.76,-1.487893647721498,5905.419794656156
0.764,-1.4796111136053591,5902.81023339552
0.768,-1.4772846233018522,5896.334225896859
0.772,-1.4823166314402705,5898.176333776345
0.776,-1.4947407790914646,5894.578144623983
0.78,-1.5131376798143485,5894.745653178877
0.784,-1.5348381211871607,5897.855726962221
0.788,-1.5564069765264006,5894.05294811214
0.792,-1.5743096224498818,5896.216451758776
0.796,-1.5855604580595208,5893.792584002954
0.8,-1.588131760132021,5901.061112638436
0.804,-1.5810414955409184,5898.816554910241
0.808,-1.5642709747769568,5903.45988794601
0.812,-1.538774526288375,5895.563083083389
0.8160000000000001,-1.5066920571923943,5897.698218496756
0.8200000000000001,-1.4715702859402338,5900.111425959284
0.8240000000000001,-1.438231538355009,5902.191343234783
0.8280000000000001,-1.4120775280639506,5904.78882747354
0.8320000000000001,-1.3979405440625197,5900.128659472752
0.836,-1.398831068527945,5896.858990185377
0.84,-1.4149875245129362,5896.657991704532
0.844,-1.443569361219309,5901.529890644721
0.848,-1.4791740284826966,5897.795203670436
0.852,-1.5150975488603813,5897.904058589747
0.856,-1.5449743362184645,5898.506954159506
0.86,-1.5642715140107288,5903.733942445555
0.864,-1.5711689484126568,5898.645231090096
0.868,-1.5665891832167602,5890.212249297426
0.872,-1.5534446269134137,5901.323683502013
0.876,-1.535448257957477,5898.903056658704
0.88,-1.515978292120414,5900.35427238681
0.884,-1.4973972773814646,5907.974711714782
0.888,-1.480955954839242,5905.335295700008
0.892,-1.4671541151809053,5900.185553730658
0.896,-1.456307999793732,5900.693281553668
0.9,-1.4490632836654582,5908.5836378196445
0.904,-1.4466437821325808,5889.0148683591615
0.908,-1.450731629998205,5899.990787378109
0.912,-1.4630158886320035,5899.722694709712
0.916,-1.4845644063412229,5903.66261981652
0.92,-1.5152252711712133,5895.198738202303
0.924,-1.5532527687293074,5901.186811852076
0.928,-1.5952900461435906,5890.977158388295
0.932,-1.6367331997232173,5896.976642287453
0.936,-1.6723885959740385,5898.136058435943
0.94,-1.6972799011159991,5899.349262724381
0.944,-1.7074730659548665,5902.463446181527
0.948,-1.7008096071953727,5897.452664059477
0.952,-1.6774465487221488,5898.744007376447
0.956,-1.6401240539880706,5907.539235527667
0.96,-1.5940890263684915,5893.3035614721975
0.964,-1.5465399148995387,5893.635144368686
0.968,-1.505428846425452,5903.627214516734
0.972,-1.4776624604739412,5892.569085334513
0.976,-1.4671690990493458,5901.108252697413
0.98,-1.4736266635893946,5904.868903844466
0.984,-1.492535414485616,5902.204190940058
0.988,-1.516758014131934,5896.969708502475
0.992,-1.5389630426056737,5895.8371641356125
0.996,-1.5539973199286485,5903.854896427489
1.0,-1.5602755868927785,5905.730082640308
1.004,-1.559735036163298,5903.839128933548
1.008,-1.5565108628128173,5918.400296547924
1.012,-1.5549805382445516,5901.055355072793
1.016,-1.557996735985371,5900.357150371217
1.02,-1.5659399835601564,5899.862853472132
1.024,-1.576834357430147,5905.935069656202
1.028,-1.5873838600265904,5900.475627674305
1.032,-1.5944784436651003,5910.913288502114
1.036,-1.5965304811199807,5895.803987304637
1.04,-1.5940640053524646,5910.710637456848
1.044,-1.5893523025128182,5899.920277454743
1.048,-1.5853828070428968,5897.725948911975
1.052,-1.584694471777877,5892.829113380028
1.056,-1.5885680404389098,5901.750262713723
1.06,-1.5968117344436252,5900.758394235214
1.064,-1.6081341734929997,5905.324468281226
1.068,-1.620855927057988,5906.023603607912
1.072,-1.6335307846900737,5892.688990514465
1.076,-1.6451008625379253,5899.592325072284
1.08,-1.6545648821834098,5915.418807468911
1.084,-1.6605401196489982,5897.2025722732415
1.088,-1.6611744656612035,5902.009763743211
1.092,-1.654559316692392,5898.368301562177
1.096,-1.639424248121281,5893.802936436974
1.1,-1.6157651656452958,5900.777819458837
1.104,-1.5851628405438507,5901.272169791695
1.108,-1.5507080840542564,5900.628755003259
1.112,-1.5165761026263864,5899.46753253628
1.116,-1.487389667597492,5895.52337226922
1.12,-1.4675406960105903,5904.221265520113
1.124,-1.4605644806260218,5896.859411652871
1.128,-1.4685377455076472,5898.915114232129
1.132,-1.491417176508847,5906.107797431248
1.136,-1.5263532303559493,5890.915480898401
1.14,-1.5673006071421167,5895.584219946747
1.144,-1.6054601756273263,5893.62998995738
1.148,-1.630907374520854,5895.670170394825
1.152,-1.6352154062496915,5893.228747750249
1.156,-1.6143679835051241,5894.558394689157
1.16,-1.5710701518504155,5910.143134396275
1.164,-1.5156559481883303,5901.145842665103
1.168,-1.4650203504380266,5903.334974522214
1.172,-1.4393586423259614,5895.060578414144
1.176,-1.4570150056448166,5900.267882421495
1.18,-1.5283691284511134,5891.084643175958
1.184,-1.6502151106344949,5899.663233243238
1.188,-1.802231587762397,5901.342352374893
1.192,-1.9468098151086386,5911.060265600957
1.196,-2.032881124025636,5896.075463968273
1.2,-2.0036828219695915,5898.417883247357
1.204,-1.807649493381424,5898.515052974173
1.208,-1.4107481196246872,5899.58936220721
1.212,-0.8076548846022399,5902.153674101325
1.216,-0.028503865925000774,5904.062626796646
1.22,0.8619488211401151,5911.082377156435
1.224,1.7743845777840768,5900.120583689267
1.228,2.612744747723108,5904.249509537403
1.232,3.294828484049072,5915.551827437026
1.236,3.76902271291359,5921.529229740704
1.24,4.022118575298945,5932.326358234174
1.244,4.0769497683121845,5935.487774118878
1.248,3.9821893418943195,5958.65117722258
1.252,3.798494998818643,5964.761452739071
1.256,3.58512353070471,5983.527425410323
1.26,3.3898147439883766,5986.923455865665
1.264,3.2431042748034913,5992.354196026042
1.268,3.1569717913654016,5995.584330068427
1.272,3.1270602662108242,6003.623298153272
1.276,3.1373947421165895,6012.492277989913
1.28,3.1663268502912048,6023.654792878264
1.284,3.192335402465776,6035.273053790132
1.288,3.198521117751818,6041.3944026101735
1.292,3.175178605526764,6050.788285612806
1.296,3.1204347986198826,6049.939180208551
1.3,3.0393157117570992,6057.972266093849
1.304,2.941709423312187,6062.591426106324
1.308,2.839692811389919,6078.139388827091
1.312,2.74471910096352,6077.963297276115
1.316,2.6652141626908787,6089.44636035597
1.32,2.605079817929018,6104.796001232479
1.324,2.5633666546007845,6103.156828543533
1.328,2.535040502934439,6098.490525557426
1.332,2.512514846984847,6118.5229019633625
1.336,2.487545212106648,6123.516671671388
1.34,2.4531085949506646,6124.845539690743
1.344,2.4049289516689503,6134.775142207418
1.348,2.3423463400057987,6137.473507555689
1.352,2.2683111118479915,6143.46388949466
1.356,2.1884814809935227,6150.0865849753645
1.36,2.109701109304626,6151.661929705261
1.364,2.0383656375188197,6167.853734323562
1.368,1.9791714693474127,6169.585676428041
1.372,1.9344987354889431,6174.683147844748
1.376,1.9043967434507976,6179.505196129927
1.38,1.8869620461185306,6181.160682575661
1.384,1.8788842731064328,6193.105284065373
1.388,1.8760491366148646,6182.397678966399
1.392,1.8741813450336546,6192.579139236401
1.396,1.8694770645117031,6194.484782908739
1.4,1.8591268474804488,6196.882564929086
1.404,1.8416858876291082,6209.240102012294
1.408,1.8172934381401729,6205.745790322894
1.412,1.7876479628046682,6217.368165174775
1.416,1.7555531246075418,6222.357985127957
1.42,1.7239863849942587,6223.639877041099
1.424,1.694967984040369,6223.257918159043
1.428,1.668745117856231,6227.469819809508
1.432,1.6437286798863493,6240.190242610657
1.436,1.6172514076129654,6234.120448426214
1.44,1.5867928135183653,6248.504293616621
1.444,1.5511048795473545,6248.109151160096
1.448,1.5107860491402405,6253.450608536684
1.452,1.4681744351851116,6252.311916257551
1.456,1.4267217601511408,6257.832051228116
1.46,1.3901096176248264,6270.106501425953
1.464,1.3613222870732478,6266.905735619118
1.468,1.3418407508411299,6277.98182529895
1.472,1.3311402007269906,6272.583125620128
1.476,1.326682699147146,6275.136611584817
1.48,1.3244797080550736,6275.679955652482
1.484,1.3200745039911048,6276.26896071859
1.488,1.3096291375300364,6276.028864312648
1.492,1.290800480312125,6289.957245586355
1.496,1.263197950521926,6293.02382098487
1.5,1.228356033870853,6293.705469912065
1.504,1.1893053712512778,6292.771518249561
1.508,1.149921269111434,6289.060154864044
1.512,1.1141960806208928,6293.186638505261
1.516,1.0854997908708923,6300.440759869233
1.52,1.065911837267829,6305.119522367169
1.524,1.0558031418091,6305.303382355017
1.528,1.0538370994199666,6307.983874505871
1.532,1.0573873088977035,6316.288563347986
1.536,1.0632053950522282,6308.463177447309
1.54,1.0681420595764712,6317.508227876937
1.544,1.0697543707005737,6328.255933676808
1.548,1.0666507028477386,6314.895493436793
1.552,1.0585043261961224,6321.4617965138605
1.556,1.0458222632092686,6326.415901090335
1.56,1.0296501409204712,6332.033311881223
1.564,1.0113594455436412,6330.127162859893
1.568,0.9925722132533742,6327.27454128798
1.572,0.9751676788042363,6343.219523973184
1.576,0.9611951473117392,6328.671607124215
1.58,0.9524884475273515,6334.320043276939
1.584,0.94994550741731,6341.348351648145
1.588,0.9527400833622671,6332.901766035794
1.592,0.9579486982943919,6343.792019447548
1.596,0.9609979902214517,6343.149847073047
1.6,0.9569540739827476,6349.157725406419
1.604,0.9421962927445836,6346.098283716356
1.608,0.9157404064083965,6336.674401891509
1.612,0.8795970525704166,6342.786419229732
1.616,0.8380214577256996,6348.218817045212
1.62,0.796040571024558,6353.403804047647
1.624,0.757913467144397,6351.33332341288
1.628,0.7260861480095592,6355.841044951692
1.632,0.7008913874105213,6353.849105402974
1.636,0.6809418158214786,6354.825721874878
1.64,0.6639919525541012,6361.118619674785
1.644,0.647982843209159,6361.133439859364
1.648,0.631957873297792,6363.433582077978
1.652,0.6165458318190855,6357.674001704351
1.656,0.6038216791528764,6359.991448114311
1.66,0.5965852519654787,6363.911278351201
1.664,0.5973076508086367,6375.133603924634
1.668,0.6070619939611513,6376.880144841901
1.672,0.6247297860300908,6373.030451625261
1.676,0.6467547750468595,6366.012033852745
1.68,0.6676453200684482,6370.304949209855
1.684,0.681193802407775,6369.815264110031
1.688,0.6820809096494778,6378.897748077879
1.692,0.6673860657133808,6370.568742548206
1.696,0.6375783118094995,6372.736034823771
1.7,0.5966837758702923,6372.867834916295
1.704,0.5514769323828828,6382.52291762093
1.708,0.509802983278238,6377.095615889773
1.712,0.47848333999816345,6371.903542149707
1.716,0.4614901650756721,6379.842656872713
1.72,0.4590150547947211,6390.901541990173
1.724,0.46770989210682984,6381.57622703225
1.728,0.4819392974629515,6380.755638415976
1.732,0.49556201776324127,6384.875769787633
1.736,0.50364172333392,6387.399009427247
1.74,0.5035746152507371,6393.523128518937
1.744,0.4953729450633927,6387.077901674845
1.748,0.48116420462186676,6390.879883777283
1.752,0.4642197158698014,6389.295459489559
1.756,0.4479182848637929,6382.904973613771
1.76,0.4349716953012087,6385.9174446745865
1.764,0.42706395006006087,6388.295850032253
1.768,0.4248983945839419,6389.973444858828
1.772,0.4285494426506417,6384.717408902014
1.776,0.4379209963634435,6396.081796759117
1.78,0.4530226640966328,6381.462215772188
1.784,0.47382656814539514,6392.179572192072
1.788,0.4997297421812034,6390.256354941151
1.792,0.5289514739716346,6387.86530501219
1.796,0.5582979712158993,6396.982524789418
1.8,0.5835516511765186,6399.987383171696
1.804,0.6004202346524559,6400.3013191868295
1.808,0.6057083930645369,6404.979541616935
1.812,0.5982606517193436,6387.738280469059
1.816,0.5792840111468485,6396.719640561292
1.82,0.5518862436746564,6401.730300867893
1.824,0.520000503748557,6403.6969119996975
1.828,0.4871524358167654,6401.729028846041
