时间(s),电压(V),幅值(高频80K)
0.0,-1.2333289377508652,5895.966704001854
0.004,-1.2087545699367686,5901.593507127103
0.008,-1.1875853164278438,5899.411913372423
0.012,-1.1723251512386432,5897.84984942229
0.016,-1.1642340963698339,5898.287780248046
0.02,-1.1632440582168555,5902.211447957423
0.024,-1.1682062316829926,5897.468222870618
0.028,-1.1773307107364752,5901.069376255517
0.032,-1.1886860885082364,5906.897242980096
0.036,-1.2006630628176689,5912.453770885754
0.04,-1.2122935993525614,5902.405691501246
0.044,-1.2233108832404946,5902.660413319351
0.048,-1.2339306925299436,5898.782034868133
0.052,-1.2444705138844765,5903.886030544777
0.056,-1.2549600331746125,5886.990195055684
0.06,-1.2648518815284038,5906.681526169878
0.064,-1.2729299715374685,5901.755065619423
0.068,-1.277520984325815,5886.71428500808
0.072,-1.277028584208171,5893.49895426374
0.076,-1.2706142483879779,5898.994322524653
0.08,-1.2586767600497426,5890.19874218373
0.084,-1.2428198386159186,5896.6571907454645
0.088,-1.2253045255916206,5904.664561659467
0.092,-1.2083335534789104,5901.474502004674
0.096,-1.1935651479746106,5894.406051505051
0.1,-1.181982685094955,5902.0534307821445
0.104,-1.1740054887998783,5899.738551471693
0.108,-1.1697381925083667,5904.432632879751
0.112,-1.169332987284573,5890.509553322906
0.116,-1.1733380536742184,5908.415925708672
0.12,-1.1827388540842656,5896.071864626872
0.124,-1.198473398156312,5899.9705161696265
0.128,-1.2205567861066218,5897.513720350979
0.132,-1.247280905521636,5899.118357582923
0.136,-1.2749846189184635,5892.677395197788
0.14,-1.2986165176277233,5893.965529752097
0.144,-1.31292715990682,5907.6094063226365
0.148,-1.3138524772613012,5898.2257164401535
0.152,-1.299617804216471,5901.891429791445
0.156,-1.2712641255519765,5904.372998454747
0.16,-1.2325160704993774,5902.452250308236
0.164,-1.1890671528904633,5902.739473856713
0.168,-1.1474711637708364,5892.79335399271
0.172,-1.1139201090493054,5900.340027431941
0.176,-1.0931742446083383,5900.721153588909
0.18,-1.087761662050212,5905.624529516711
0.184,-1.0974714000702706,5896.784942698127
0.188,-1.1192654911696645,5905.323945578424
0.192,-1.1478275622703875,5891.831161843399
0.196,-1.1767779027389182,5893.669146308427
0.2,-1.2002216670820538,5899.889795336315
0.204,-1.214106838019492,5908.107924118739
0.208,-1.216990608254864,5898.370900361013
0.212,-1.2100825055489137,5893.353972964094
0.216,-1.1966524360510464,5897.191751798616
0.22,-1.181005725830401,5894.966146308188
0.224,-1.1672756817925587,5903.843037880338
0.228,-1.1583278539143465,5903.001493591709
0.232,-1.155105656203125,5900.0223727804905
0.236,-1.1566564468877258,5898.638572032835
0.24,-1.1607992594907526,5903.239230049087
0.244,-1.1651052781718976,5903.202618315323
0.248,-1.1677868197632422,5906.77148701541
0.252,-1.1682280844293937,5895.179607703716
0.256,-1.1670722386554784,5893.713225849012
0.26,-1.1658959033098475,5892.879893434859
0.264,-1.1665651199435594,5905.09382520176
0.268,-1.1704358811704414,5902.362508608437
0.272,-1.1776534249121902,5888.163421063699
0.276,-1.186833152073253,5895.501992733505
0.28,-1.195288318448193,5903.094888909561
0.284,-1.1997716948597892,5894.086317211673
0.288,-1.1975445838278826,5896.733909031124
0.292,-1.1874768212887952,5906.823038411574
0.296,-1.1707732838374338,5898.8489718812
0.3,-1.1509278419951512,5896.963110558801
0.304,-1.1327928433601913,5889.282834534088
0.308,-1.1211214898234327,5902.021091514082
0.312,-1.1192166521983131,5901.549840605113
0.316,-1.1281821762681006,5908.2016072218685
0.32,-1.146895432741241,5887.679579827242
0.324,-1.1725089155902824,5902.532345708616
0.328,-1.2011845717713177,5904.006012561469
0.332,-1.2288220013145401,5900.5521126621215
0.336,-1.2516505662524318,5897.616821500957
0.34,-1.2666557711773652,5897.009994614639
0.344,-1.2718908684646562,5900.671426899801
0.348,-1.2667354070463435,5901.658018018218
0.352,-1.2520699189876472,5899.860868820621
0.356,-1.2302527968549908,5897.051768409217
0.36,-1.2048425604786428,5897.417682476923
0.364,-1.18013390870189,5908.357815737052
0.368,-1.1606034792121074,5902.729236548351
0.372,-1.1502818366115835,5895.470049447751
0.376,-1.152014119135675,5911.12703292422
0.38,-1.1666566125188167,5899.7009766734045
0.384,-1.1924649956769706,5908.470384976201
0.388,-1.225063812509667,5896.192980253087
0.392,-1.2582381202424229,5899.12025176196
0.396,-1.2854336572677496,5899.796361702159
0.4,-1.3015476340141194,5894.970392409288
0.404,-1.3044304007428191,5905.1631568533385
0.408,-1.2954950648906958,5899.164479361522
0.412,-1.2790762822657897,5897.9018741764885
0.416,-1.2607218440814416,5892.979083868718
0.42,-1.2451167775289473,5904.125338494905
0.424,-1.2344701144890262,5901.542638144091
0.428,-1.2279391670804634,5908.306203775274
0.432,-1.2222499276106327,5900.552258102221
0.436,-1.2132522317291379,5898.251958994022
0.44,-1.1978171422857258,5896.418836987146
0.444,-1.1753552294202188,5900.622761469831
0.448,-1.1483719427299506,5902.638418567322
0.452,-1.1218336331526186,5892.010568486404
0.456,-1.1015831169804595,5903.974790597633
0.46,-1.0924419650907595,5900.210435171039
0.464,-1.0967434268781215,5901.107643449209
0.468,-1.113770135990374,5892.312454939797
0.472,-1.1401184623087433,5899.101612006968
0.476,-1.170672236347693,5897.3705389215975
0.48,-1.1997809610092056,5899.496547165377
0.484,-1.222344729733288,5906.412631681365
0.488,-1.2346665801700338,5900.936253107666
0.492,-1.2350231332384511,5914.182919959368
0.496,-1.2239050494607147,5901.799830535912
0.5,-1.2038629265244516,5885.344376341543
0.504,-1.1789446509751607,5899.266675499602
0.508,-1.153833453945755,5903.518326453827
0.512,-1.1329130211241516,5903.768032840253
0.516,-1.1195096457674107,5896.984881486721
0.52,-1.1154681601155647,5901.367637297724
0.524,-1.1210658719703626,5906.703112141279
0.528,-1.1351685309155053,5899.343909058655
0.532,-1.155549190992221,5903.246610350507
0.536,-1.1793483798690727,5890.5412137169005
0.54,-1.2036256429498715,5906.4953490987855
0.544,-1.225855268522345,5898.493551540998
0.548,-1.244202025719462,5906.643642315044
0.552,-1.2575304796640359,5904.009011301932
0.556,-1.265231135266363,5901.329674300884
0.56,-1.266978029796877,5903.169667822851
0.5640000000000001,-1.2625068011144527,5899.724071277192
0.5680000000000001,-1.2515003549830301,5908.950849237202
0.5720000000000001,-1.2336755125086658,5898.09667869454
0.5760000000000001,-1.2091151090889418,5902.484814710321
0.58,-1.1787752890439331,5907.842230876576
0.584,-1.1449670452470304,5900.758360481075
0.588,-1.1115479233422954,5893.550041922647
0.592,-1.083632997492091,5903.315838119394
0.596,-1.0668085289069216,5900.095016475006
0.6,-1.0659837913588954,5894.780442417196
0.604,-1.0840941379205176,5900.836205710141
0.608,-1.120949668744533,5899.0981906902825
0.612,-1.1726422909418943,5898.97645681689
0.616,-1.2319165937695342,5895.694381285248
0.62,-1.2896075329925036,5886.590409193261
0.624,-1.3367800785921935,5902.166688580323
0.628,-1.3668943647774565,5892.727216082641
0.632,-1.3773084513816622,5895.094215459219
0.636,-1.36964222643133,5894.787534728135
0.64,-1.348885209971659,5902.585272637983
0.644,-1.3215921508568056,5904.912429506432
0.648,-1.293900361441243,5904.54171624301
0.652,-1.270147837475581,5902.699661885884
0.656,-1.252478698363666,5898.429987112024
0.66,-1.241259358495445,5897.7823064900895
0.664,-1.2358043519698474,5907.39440955094
0.668,-1.2349832124921274,5901.866457196473
0.672,-1.2375498356631816,5900.264333436772
0.676,-1.242227951517819,5902.310584083841
0.68,-1.2476391020409963,5904.663433225157
0.684,-1.2521751597513922,5900.937606306655
0.6880000000000001,-1.2539394860539192,5901.89297384995
0.6920000000000001,-1.250866294926758,5902.469637255827
0.6960000000000001,-1.241064047397957,5898.329958702384
0.7000000000000001,-1.223341616157656,5897.473377080204
0.704,-1.1977837036773735,5902.987985563756
0.708,-1.1661665277792665,5906.396708278277
0.712,-1.1319778358389003,5905.580079536375
0.716,-1.0998715523415723,5902.015725373613
0.72,-1.0745973909749928,5898.930363193492
0.724,-1.059750083653801,5905.027955880479
0.728,-1.0568658118909564,5899.401375316156
0.732,-1.0652594879189443,5901.4917739028815
0.736,-1.082611324459714,5898.372309827546
0.74,-1.1059501207780669,5893.127362873449
0.744,-1.1325605966093333,5892.685025678319
0.748,-1.160466105004045,5913.519892332678
0.752,-1.1883811204691994,5896.445913002145
0.756,-1.21528350799671,5902.5882415703545
0.76,-1.2399324697556289,5896.44406485638
0.764,-1.2606454771393256,5900.217805470977
0.768,-1.2754475660786564,5894.539687468575
0.772,-1.2824854902319756,5890.661471387
0.776,-1.280507167152003,5904.277727066554
0.78,-1.2692376530203835,5897.342847736581
0.784,-1.2495497380858531,5898.071476698498
0.788,-1.2233808187530055,5898.117534317597
0.792,-1.1934057263112818,5897.99880747515
0.796,-1.1625684392453475,5896.021432867379
0.8,-1.1336610779376806,5902.110009553185
0.804,-1.1091109670810735,5897.900354979066
0.808,-1.090973416741486,5896.336289406676
0.812,-1.080961207940135,5896.561449599803
0.8160000000000001,-1.0803319249504637,5892.16658448045
0.8200000000000001,-1.0896118518103193,5905.255812607043
0.8240000000000001,-1.108292040202944,5899.568303107591
0.8280000000000001,-1.1346418582292042,5898.456114172383
0.8320000000000001,-1.165709345514917,5910.295178678877
0.836,-1.1975406390731163,5900.4650885192095
0.84,-1.2256321244159554,5899.010283633283
0.844,-1.245578249506238,5892.435402121304
0.848,-1.2538456532838018,5901.024666680536
0.852,-1.2486042847882355,5900.49868519759
0.856,-1.2304899369706,5909.017587160789
0.86,-1.2030355835290178,5900.03626758912
0.864,-1.172420506702442,5902.944818379357
0.868,-1.1463099632939817,5896.046625491584
0.872,-1.1319185979066735,5893.802236532637
0.876,-1.1338498349676798,5895.2748220172125
0.88,-1.1524832359120796,5890.560711106193
0.884,-1.1835628611475957,5900.467178256903
0.888,-1.2192304649351544,5892.976248492381
0.892,-1.2502205265094168,5900.654365792969
0.896,-1.2685035434851548,5893.205819852923
0.9,-1.269504239782818,5897.706574827652
0.904,-1.2531957254953534,5898.931850991274
0.908,-1.2238052339723982,5903.740113979331
0.912,-1.1883785501993058,5894.286339050093
0.916,-1.1548143040123067,5899.658810549354
0.92,-1.130033256823513,5898.613100148413
0.924,-1.1187123442649576,5899.2786499102285
0.928,-1.122699164930352,5907.781684744673
0.932,-1.1410203867534756,5901.878854732314
0.936,-1.1703147644944247,5898.3878572690965
0.94,-1.2055028271774961,5899.265084612602
0.944,-1.240563978139631,5900.9656899395295
0.948,-1.2694140714280056,5886.730460402775
0.952,-1.2869322241171457,5906.259058938438
0.956,-1.2900599377493982,5907.152971209136
0.96,-1.2786708323667473,5900.090901682058
0.964,-1.2558125531073716,5892.676361122937
0.968,-1.2270800600751222,5903.552796846026
0.972,-1.1992052569460803,5897.006819548108
0.976,-1.1782698446731048,5905.898318649303
0.98,-1.1681305617152091,5900.286737115693
0.984,-1.169588998746504,5890.749993123978
0.988,-1.1805266683178335,5903.083728101168
0.992,-1.196831562573704,5902.047183577712
0.996,-1.213717877053176,5903.411476016376
1.0,-1.2270425224776331,5897.147538006249
1.004,-1.2342989327545602,5902.228652977643
1.008,-1.235048504267554,5894.928983104272
1.012,-1.2307136145326865,5903.731434382039
1.016,-1.2238984917104114,5904.334721763525
1.02,-1.2175560759699093,5894.081840197473
1.024,-1.2142653729890298,5892.6937397203
1.028,-1.215716909630085,5895.694957146136
1.032,-1.2224014983714449,5896.015955054993
1.036,-1.2335137882100842,5895.715278285295
1.04,-1.247123278555284,5900.669174364837
1.044,-1.2606408745281539,5897.556599196952
1.048,-1.271520242446915,5901.132717711046
1.052,-1.2780252422345608,5902.87743041105
1.056,-1.279807507694711,5908.758766827038
1.06,-1.2780256467684201,5904.346730679526
1.064,-1.27487044011331,5892.642404447113
1.068,-1.2726342698857898,5904.031526765844
1.072,-1.2727143908287522,5900.575331254395
1.076,-1.274973662161493,5903.593689910258
1.08,-1.2776958353772838,5902.900505534013
1.084,-1.2781269347760202,5900.193421448477
1.088,-1.2733991521877095,5909.68131828411
1.092,-1.261502257920355,5900.440385476416
1.096,-1.2419391931168346,5901.485822423824
1.1,-1.2158516637043888,5900.415083009169
1.104,-1.1856920864155105,5888.350226597186
1.108,-1.1547354204510092,5904.863798190966
1.112,-1.1266652122525878,5891.463797710795
1.116,-1.1052113674087058,5901.061472095335
1.12,-1.0936722124310416,5908.097264597746
1.124,-1.0942834545961038,5892.216156678699
1.128,-1.107626891380604,5884.203782786523
1.132,-1.1323382288773618,5907.7931168939385
1.136,-1.1652282769603437,5894.708651667011
1.14,-1.201735926407026,5898.336921865039
1.144,-1.236552965106988,5897.415545087762
1.148,-1.2643311855488413,5896.2931905603455
1.152,-1.280481397161059,5887.199325879043
1.156,-1.2820507097894887,5895.322664413144
1.16,-1.268508506268471,5900.044405564775
1.164,-1.2421316445934831,5900.7149806179
1.168,-1.2077034369684154,5902.655771407798
1.172,-1.171460514652607,5892.897659024625
1.176,-1.1395550542576458,5899.07646572904
1.18,-1.1165666617068244,5900.618470789456
1.184,-1.1045913452613325,5901.633473162429
1.188,-1.1031187123136743,5899.372007409304
1.192,-1.1095212457322134,5894.822704180385
1.196,-1.1198168387164915,5898.736090119627
1.2,-1.1294757407959202,5892.542145046209
1.204,-1.1342238238001427,5898.256866428685
1.208,-1.1308493967150002,5894.651145378205
1.212,-1.1179332800326296,5900.150671560148
1.216,-1.0963078294177975,5897.528493642574
1.22,-1.0690253074600753,5900.349428627587
1.224,-1.0407208982501153,5907.282229769391
1.228,-1.016463728487499,5906.599781519268
1.232,-1.0004186453248114,5907.000840231419
1.236,-0.994767804993338,5901.40614178519
1.24,-0.9992636587405218,5890.717118342775
1.244,-1.0115330331087067,5905.902653509771
1.248,-1.02798110597542,5901.016863405444
1.252,-1.0449758986471955,5899.25640720687
1.256,-1.0599337449950301,5893.480482036685
1.26,-1.0719624268265249,5892.480078343867
1.264,-1.0818733551744626,5897.298575076334
1.268,-1.0916103841453357,5902.223984817626
1.272,-1.1033346892698526,5899.043782347169
1.276,-1.1184636410559077,5906.176854215375
1.28,-1.1369311301352454,5900.251107053533
1.284,-1.1569009563325943,5899.18833948736
1.288,-1.1750955162812182,5901.666150061244
1.292,-1.187712509304466,5900.688643410995
1.296,-1.1916448712686618,5894.692578529174
1.3,-1.1855753564791371,5906.408814914333
1.304,-1.1705703146323727,5895.91532539109
1.308,-1.149968035427767,5905.527272843476
1.312,-1.1285698972513885,5904.534085759444
1.316,-1.1113798115978826,5898.450371561316
1.32,-1.102318477621033,5899.698066704454
1.324,-1.1033295398357832,5902.491858416693
1.328,-1.114085706627036,5903.8784326839
1.332,-1.1322463992590337,5902.06236310025
1.336,-1.1540698583478979,5908.332319429843
1.34,-1.1751899069305478,5907.275607727666
1.344,-1.191458417060702,5898.048485633875
1.348,-1.1997850240286194,5905.485812947984
1.352,-1.198826574916049,5904.004800058488
1.356,-1.1893251838751058,5890.330440543746
1.36,-1.1739821596371434,5906.649173233785
1.364,-1.1568991371936028,5902.553643259411
1.368,-1.1426865679010876,5895.388725864493
1.372,-1.1353698666576237,5904.120121061226
1.376,-1.137322826570413,5900.754461668742
1.38,-1.148581007359982,5902.951694090598
1.384,-1.16685404707653,5897.819843820237
1.388,-1.1882911111975398,5907.956529255956
1.392,-1.208709821357458,5896.453591341602
1.396,-1.2247997625412097,5899.128515452488
1.4,-1.2348565210279248,5903.671912253423
1.404,-1.2388398604446536,5893.270011461314
1.408,-1.237853001883299,5914.635057043183
1.412,-1.233371714268588,5894.543286677271
1.416,-1.2266156016292704,5905.910226915098
1.42,-1.2183300984238126,5903.997149751155
1.424,-1.2090015571434578,5898.504678441638
1.428,-1.1992879837688943,5901.469911125073
1.432,-1.1903487789163802,5908.002340902023
1.436,-1.1838530069372692,5913.703770583503
1.44,-1.1816586710616337,5898.498080159213
1.444,-1.1853292720205595,5899.539993497541
1.448,-1.1956867691299538,5901.440744709144
1.452,-1.2125070847251267,5892.221554022052
1.456,-1.2343419455267886,5894.719671944701
1.46,-1.2584214586895524,5899.700840165499
1.464,-1.280708553489054,5913.723793006632
1.468,-1.2963204567514333,5889.773168573211
1.472,-1.3004860562206482,5893.518146007402
1.476,-1.2898949529733712,5892.541268493219
1.48,-1.2639199049123515,5908.533698676354
1.484,-1.2251048185249367,5901.761638997796
1.488,-1.178649814510131,5894.293177250866
1.492,-1.1311465710433,5901.021831600248
1.496,-1.0891229285825559,5898.743764842544
1.5,-1.0578885880138533,5894.962078818677
1.504,-1.0408823845563262,5889.325983084009
1.508,-1.0394453421765537,5900.58623251027
1.512,-1.052845103275564,5900.252472839573
1.516,-1.0784608379024812,5898.811113249357
1.52,-1.112150752054638,5903.773415301497
1.524,-1.1488307357691647,5903.1583709671695
1.528,-1.1832171568590688,5902.293344582957
1.532,-1.2106127034023086,5895.599435965444
1.536,-1.2275706163751223,5896.3821889694045
1.54,-1.2322872194954781,5897.190655400079
1.544,-1.2246723797972991,5898.540531291413
1.548,-1.2061754295501357,5891.606401301211
1.552,-1.1794991201284875,5895.401883546268
1.556,-1.1482784808737332,5906.270430732161
1.56,-1.1166877103620603,5903.979435017644
1.564,-1.0888815615416814,5908.113179682303
1.568,-1.0682656309108458,5899.7016718706445
1.572,-1.0567754543828256,5903.912862229232
1.576,-1.0544696341122133,5895.724671108658
1.58,-1.0596684794827986,5893.0031411292
1.584,-1.0696040774189612,5896.057073497167
1.588,-1.0812871596288471,5896.464442074473
1.592,-1.092253740413476,5899.757766566114
1.596,-1.1010121970752729,5896.140909077868
1.6,-1.1071804405743688,5898.760937407681
1.604,-1.1113888609499913,5896.029010804515
1.608,-1.1150489832333643,5899.375328899391
1.612,-1.1200443629166459,5904.982259155113
1.616,-1.1283059217139733,5905.923686544928
1.62,-1.1412118231190047,5897.437691622504
1.624,-1.1588906264302679,5894.600643308758
1.628,-1.1797119413067585,5898.035910638249
1.632,-1.2003245599049834,5904.707069303902
1.636,-1.2164340409412666,5903.038268530513
1.64,-1.2241672082884487,5896.700884106434
1.644,-1.2215464646736198,5902.352251816251
1.648,-1.2094706931540693,5905.14076698217
1.652,-1.1917315239360025,5887.889075256939
1.656,-1.173942637697018,5905.064210578596
1.66,-1.1617201895236664,5895.877320462341
1.664,-1.1588265103936373,5899.901261080889
1.668,-1.1660338217369233,5894.82037577692
1.672,-1.1811123501259426,5898.1713691836
1.676,-1.1998215146317217,5893.896946063062
1.68,-1.2173942886983071,5895.167519269891
1.684,-1.2299161090342123,5898.345238846548
1.688,-1.2351934981125663,5905.850771219386
1.692,-1.233018217051748,5891.36585663283
1.696,-1.2249372527161562,5905.751282183183
1.7,-1.2136620021964892,5901.647788810674
1.704,-1.2022259265803592,5888.657562406653
1.708,-1.1930665485786827,5906.876227977205
1.712,-1.1873170069251955,5902.417454244892
1.716,-1.184569656250326,5898.671435919023
1.72,-1.1831489619087021,5898.263327302319
1.724,-1.1806754606024987,5906.3678530247
1.728,-1.1746606415806327,5907.05792454675
1.732,-1.163043626411638,5904.688148178514
1.736,-1.144710131741971,5899.166614826892
1.74,-1.119966795807326,5891.001239911262
1.744,-1.0908130050282514,5897.813818180377
1.748,-1.0608468878943678,5905.977939551857
1.752,-1.0347612340401158,5903.580267509921
1.756,-1.0175061646676085,5902.361433053272
1.76,-1.013260013783719,5898.745393210948
1.764,-1.024395964187201,5909.914636137114
1.768,-1.050682525103059,5905.755803830286
1.772,-1.0889700750768305,5909.12671275645
1.776,-1.1335610628630084,5896.886305821788
1.78,-1.1773399817473247,5903.41005122198
1.784,-1.2135413100685704,5905.037198407222
1.788,-1.2377700670106244,5909.320463183912
1.792,-1.2496621594342536,5895.638455352118
1.796,-1.2535212694351203,5896.449705650722
1.8,-1.257461399703497,5901.474081833047
1.804,-1.2709834765938142,5902.468578776622
1.808,-1.3013962120493794,5898.170210530489
1.812,-1.3498644986273902,5896.9223958617
1.816,-1.4080156767288319,5894.893527778537
