时间(s),电压(V),幅值(高频80K)
0.0,-1.1044196545607898,5899.7905641055
0.004,-1.1742900599024837,5895.5212586541
0.008,-1.2362278731554477,5912.685573425763
0.012,-1.2852105326264742,5904.92303071447
0.016,-1.32042757534674,5909.263396402676
0.02,-1.3450737985339296,5894.326863599863
0.024,-1.3645965662364554,5903.146609596036
0.028,-1.384154319981251,5897.735699359843
0.032,-1.406368160150267,5901.507884667148
0.036,-1.4302062911263866,5899.001724231851
0.04,-1.4512452203769504,5907.121087111329
0.044,-1.4630464764513544,5897.058781015988
0.048,-1.4591939002524243,5898.836661149738
0.052,-1.4355002843033324,5905.972247235423
0.056,-1.3918021688599538,5890.115143748707
0.06,-1.3327051273849486,5902.653855591854
0.064,-1.2668879604265313,5903.067856022458
0.068,-1.2051329030880118,5893.960847655835
0.072,-1.1577699815227258,5902.060550787939
0.076,-1.1323697890527857,5899.586099996992
0.08,-1.132280317132657,5896.033579977502
0.084,-1.1562305144335745,5897.948808519055
0.088,-1.1989390055684943,5895.529905907659
0.092,-1.252486710160994,5906.908110738823
0.096,-1.3080642832193394,5894.290815356834
0.1,-1.3576293584537342,5893.218137301512
0.104,-1.3951076473658803,5896.671950792344
0.108,-1.4170199731280808,5893.667809338528
0.112,-1.4226375343748916,5906.979224105121
0.116,-1.4138017275133854,5909.9556356597695
0.12,-1.3944277840928438,5903.477852425232
0.124,-1.3696519640770788,5896.964935543297
0.128,-1.344712029146395,5910.344704812874
0.132,-1.3238544897394011,5899.738595136877
0.136,-1.3096190253445639,5886.316010174921
0.14,-1.3026802631225114,5899.5923773068935
0.144,-1.30216461950415,5899.931104132721
0.148,-1.30621353497078,5896.301727697851
0.152,-1.3125876044316105,5894.56805071617
0.156,-1.3191614644535439,5894.334168864117
0.16,-1.324172336237086,5890.564067254206
0.164,-1.3261822319556928,5905.681079209606
0.168,-1.3239508871866545,5889.377731963443
0.172,-1.3165631312463713,5897.923685018131
0.176,-1.3039693846645974,5892.520810163139
0.18,-1.2876807742355776,5898.07362213921
0.184,-1.2710750100532984,5901.9488807007
0.188,-1.2588861366439148,5897.765642985828
0.192,-1.2559035503409184,5895.048881980037
0.196,-1.2653644820805585,5901.944997562944
0.2,-1.2877034446423221,5909.218830201369
0.204,-1.3201811513264543,5899.599920024065
0.208,-1.357571502169249,5895.916698172249
0.212,-1.393658952679938,5899.995300404608
0.216,-1.4229390005462839,5899.700294265344
0.22,-1.4418338317027586,5902.166832246646
0.224,-1.449030413282691,5894.7279223879
0.228,-1.4450381282049483,5888.610674627841
0.232,-1.431414636552104,5895.091616612558
0.236,-1.4101183363765326,5898.287282850633
0.24,-1.3831910394007054,5902.997327198171
0.244,-1.3527100553194558,5893.751432157781
0.248,-1.3208480615695672,5896.101843136405
0.252,-1.2899129267060454,5893.95495558112
0.256,-1.2623098811687654,5896.694502883592
0.26,-1.2404333422960772,5898.007693542489
0.264,-1.2265219872581885,5898.900815437106
0.268,-1.2224665164519413,5890.73381360449
0.272,-1.2295177096422614,5902.79596564253
0.276,-1.2479094161688857,5899.74005747592
0.28,-1.2765325138618464,5910.766585627833
0.284,-1.3128266272055336,5901.395035421672
0.288,-1.352977235267492,5906.539217228272
0.292,-1.3923952462695546,5901.428210457523
0.296,-1.4263588118170343,5898.638642794513
0.3,-1.4506439583424704,5902.786881030788
0.304,-1.462008544551087,5889.48881800239
0.308,-1.4585151548669464,5908.315569046976
0.312,-1.4397827530762797,5897.310301706993
0.316,-1.4072340952140308,5907.377737717997
0.32,-1.3642572271070563,5899.27913519509
0.324,-1.3160611246347784,5892.561189934173
0.328,-1.269034068386783,5907.738431717564
0.332,-1.2296358029859193,5907.023879786529
0.336,-1.2031248636554772,5896.477181922575
0.34,-1.192539418073127,5895.561817521938
0.344,-1.1982320848791137,5901.273066664669
0.348,-1.2180026506762063,5893.353318111647
0.352,-1.2476594826448089,5914.2330981369605
0.356,-1.2817926400263242,5893.656061453386
0.36,-1.3146301563884568,5912.1104513972
0.364,-1.3409415951525152,5901.703611626532
0.368,-1.3569478011744804,5900.83830286585
0.372,-1.3610892942169444,5908.997453526711
0.376,-1.3543804394268066,5888.57494182923
0.38,-1.3400708398013172,5910.810366982707
0.384,-1.3225607177231753,5897.153682807057
0.388,-1.3059163109984995,5906.4720701275655
0.392,-1.2926345291149621,5902.91946447824
0.396,-1.283225564469481,5898.498830485662
0.4,-1.2767214748654234,5911.226917553651
0.404,-1.2717201271508152,5896.738637424899
0.408,-1.267375430105582,5903.445373862747
0.412,-1.263882936784274,5906.146077340867
0.416,-1.2623127203337279,5900.004982129567
0.42,-1.263944822784244,5894.769754993699
0.424,-1.2694636555132492,5883.733746977215
0.428,-1.2784099924942627,5899.299224582522
0.432,-1.2891672872681468,5898.868172989553
0.436,-1.2995164293126629,5900.960950820991
0.44,-1.3075237860511408,5899.342111558251
0.444,-1.3123608309070103,5909.074631556245
0.448,-1.3146788424624163,5902.660899422057
0.452,-1.3163576948260258,5902.082539837227
0.456,-1.3197157085165196,5894.932297523895
0.46,-1.3265029907530252,5900.41060494579
0.464,-1.337100302095914,5901.338577002024
0.468,-1.3502515885484685,5895.839653779129
0.472,-1.3634382133251268,5902.125253667002
0.476,-1.3737734232546615,5894.19756324308
0.48,-1.3790994316389373,5898.180185758287
0.484,-1.3788477907684569,5894.007762706304
0.488,-1.3742895970287494,5900.526826251312
0.492,-1.3680803764358898,5895.112432022492
0.496,-1.3633188934723453,5906.27414268698
0.5,-1.3624998385771008,5904.700468057124
0.504,-1.366727228802047,5896.214331277405
0.508,-1.3754275106790341,5894.760980752022
0.512,-1.3865919903175616,5897.801836306593
0.516,-1.3973657242455884,5904.563530173833
0.52,-1.4047172000047834,5901.157305630907
0.524,-1.4060081730878093,5903.926059065474
0.528,-1.3994212715576966,5902.074539575262
0.532,-1.3842637827107998,5899.854295616078
0.536,-1.361142438475772,5902.698639885534
0.54,-1.3319838445672059,5905.259574481084
0.544,-1.2998990475304601,5896.785303811409
0.548,-1.2689028306666894,5904.013741863497
0.552,-1.2434613429709513,5894.986765982061
0.556,-1.2278173407430149,5890.2405457112645
0.56,-1.2251077258654524,5906.731160173255
0.5640000000000001,-1.2364387955362892,5897.921042342568
0.5680000000000001,-1.2602381307286907,5907.221023304773
0.5720000000000001,-1.2922427237804548,5897.863223645739
0.5760000000000001,-1.3263251785533676,5897.913851884759
0.58,-1.3560294953160128,5894.646366782994
0.584,-1.3763471395948703,5900.486739720314
0.588,-1.3851101499648517,5896.141110606868
0.592,-1.3834912738196798,5900.442397407022
0.596,-1.3754157978530006,5907.993417521975
0.6,-1.3660886702253827,5897.609683652454
0.604,-1.3601872927827687,5897.67422032427
0.608,-1.3603996780762977,5895.776709006442
0.612,-1.3668168517238486,5894.87375190681
0.616,-1.377308070634568,5892.536384405617
0.62,-1.388591386882374,5907.166076893823
0.624,-1.3974401193066,5902.544618209072
0.628,-1.401499294875603,5900.901196049975
0.632,-1.3995202768487254,5902.757595280909
0.636,-1.391208219410484,5895.706667369527
0.64,-1.3770380425271356,5902.459757994493
0.644,-1.358260428233854,5890.869620969387
0.648,-1.3370323390502412,5907.228738112544
0.652,-1.3163940639143081,5903.437922502629
0.656,-1.2998437630532782,5907.999220164835
0.66,-1.2905112017196303,5905.475204403981
0.664,-1.2902080756627083,5899.750668114888
0.668,-1.2987493383054727,5892.893638432034
0.672,-1.3138659011624647,5897.670937115995
0.676,-1.3318055896796572,5903.8580608377415
0.68,-1.3484070267351524,5904.270318507492
0.684,-1.3601889093767012,5895.376920688622
0.6880000000000001,-1.3650105078593344,5898.959473763358
0.6920000000000001,-1.3621291491389393,5906.062366251385
0.6960000000000001,-1.3518123785652238,5900.8885875223705
0.7000000000000001,-1.3348516856097215,5900.13401465657
0.704,-1.3122892365720455,5903.547559612201
0.708,-1.2854622396268882,5905.786289356149
0.712,-1.2562231775367334,5901.605736386712
0.716,-1.227050186786911,5900.049459528033
0.72,-1.2008145445793725,5908.533323541029
0.724,-1.1801965571770088,5902.731758789871
0.728,-1.1669803055251802,5900.6667086033685
0.732,-1.161554719140569,5896.684260517118
0.736,-1.162869928353959,5909.084940868066
0.74,-1.1688980714241726,5906.199242318623
0.744,-1.1774126049557474,5894.305545440668
0.748,-1.1867534249772287,5896.80319106296
0.752,-1.196273172248272,5897.166317072501
0.756,-1.206312745209297,5889.632887733305
0.76,-1.2177295761897553,5899.549626892429
0.764,-1.231174112974992,5901.291161658089
0.768,-1.246448139264895,5897.255142721463
0.772,-1.2622693200717545,5905.403623839054
0.776,-1.2765649046708403,5898.159551609979
0.78,-1.287155415142594,5906.598883538702
0.784,-1.292519079373978,5899.03661821238
0.788,-1.2922979058218291,5905.586726234212
0.792,-1.2873256736913956,5898.029781312875
0.796,-1.2792061489211528,5896.655447414206
0.8,-1.2697095768165498,5894.517478546796
0.804,-1.2603114417502965,5901.033757116481
0.808,-1.2520573467499914,5902.804374189239
0.812,-1.245743776724241,5903.60225876758
0.8160000000000001,-1.242256568573219,5894.1904928992935
0.8200000000000001,-1.2428254007642534,5891.073416162326
0.8240000000000001,-1.2489743046118482,5887.148813403152
0.8280000000000001,-1.26210839381368,5895.978628307116
0.8320000000000001,-1.282898543003865,5906.434103352357
0.836,-1.3107619514697628,5897.7155709315975
0.84,-1.3436940078489428,5897.859810637571
0.844,-1.3785144354318057,5907.325529413372
0.848,-1.4113880292239989,5895.407026084255
0.852,-1.4384084236709496,5900.494293441419
0.856,-1.4561128542781654,5902.196847227584
0.86,-1.461929655872235,5901.281909781494
0.864,-1.4546180587734734,5897.877761656254
0.868,-1.4346764727847814,5900.128010704561
0.872,-1.4045600642736564,5904.946109553759
0.876,-1.3685306327607223,5905.828299933465
0.88,-1.3320888484925781,5902.224174211588
0.884,-1.3010778919543748,5902.744479012333
0.888,-1.2806259491780498,5897.203071364377
0.892,-1.2741486801591457,5902.791677662207
0.896,-1.2826566648384445,5895.29602925307
0.9,-1.3045623483921653,5893.087171532861
0.904,-1.3360613702342223,5887.968358330955
0.908,-1.3719973128975416,5903.17992331704
0.912,-1.4069470796317107,5906.0275833801215
0.916,-1.436198173657648,5900.868943255499
0.92,-1.4564064614195995,5901.027348358182
0.924,-1.465924200976675,5899.8380954061095
0.928,-1.464890983343256,5896.86175469153
0.932,-1.4551262108167013,5900.57874268142
0.936,-1.4397567547772367,5893.346372482386
0.94,-1.422510956059156,5897.204226479624
0.944,-1.4067766467116705,5902.698064170834
0.948,-1.394740836118879,5905.719263569563
0.952,-1.386972170591818,5888.661928552092
0.956,-1.3825879603839961,5902.089582616413
0.96,-1.3798422365146712,5893.023333053159
0.964,-1.3768200075424568,5895.621019087739
0.968,-1.3719997486400743,5899.925987944512
0.972,-1.364632010693314,5899.975695582088
0.976,-1.354997187678771,5902.29696351298
0.98,-1.3445752129331614,5892.670850060498
0.984,-1.3360512683949037,5895.695329087736
0.988,-1.3330069644789542,5902.150108339045
0.992,-1.3391875932771118,5892.8927770726805
0.996,-1.3574121312319647,5900.355265991045
1.0,-1.3884293405264518,5895.379616130864
1.004,-1.4301698317431621,5898.457753985912
1.008,-1.4777673388904276,5905.477585653576
1.012,-1.524418413539201,5898.669733264181
1.016,-1.5627870630338958,5897.622096032836
1.02,-1.5864887349588792,5897.03915723943
1.024,-1.591306367211848,5892.382519089504
1.028,-1.5760112645189799,5901.099926509199
1.032,-1.5427229954169512,5900.190756270059
1.036,-1.4966623051492598,5893.963496765366
1.04,-1.44518664252096,5910.700960158933
1.044,-1.396258378434246,5896.83349392118
1.048,-1.3567767776475794,5899.353695278168
1.052,-1.3312669948458509,5897.778813756129
1.056,-1.321264799633977,5892.93487961862
1.06,-1.325501468038629,5907.217327389497
1.064,-1.340746763745209,5904.516353186332
1.068,-1.3629648534606438,5893.268199884375
1.072,-1.3883906119359934,5905.946357684446
1.076,-1.4142568533090147,5891.836656357263
1.08,-1.4390624560739491,5905.547976735711
1.084,-1.46236678281801,5904.126697707945
1.088,-1.4841622269582102,5904.449060883338
1.092,-1.5040020167868653,5901.566071525869
1.096,-1.5202507213267744,5901.886061757712
1.1,-1.529924508732313,5893.724573894164
1.104,-1.5293983449759008,5894.04201845885
1.108,-1.5158026630051902,5898.539722962959
1.112,-1.4885126038482965,5888.445133165259
1.116,-1.4500381935429714,5906.882946457115
1.12,-1.4058805850961311,5889.319310530843
1.124,-1.363353390063893,5903.76049971671
1.128,-1.3297800093731307,5903.551995161898
1.132,-1.3107043431142666,5896.315734723749
1.136,-1.308691685606624,5903.507956872615
1.14,-1.3229861425237175,5903.576516795423
1.144,-1.349924421029232,5905.179882863321
1.148,-1.3838096057100697,5903.855725123216
1.152,-1.4179944869570593,5900.701641376603
1.156,-1.446064047528493,5901.883006685511
1.16,-1.4630379784109218,5901.729930998659
1.164,-1.4664022097429523,5890.6328655864345
1.168,-1.4566727433551943,5894.456653012699
1.172,-1.4372512072505332,5895.8164267348775
1.176,-1.4135530941002283,5893.068114212127
1.18,-1.3916323981092529,5900.844811713327
1.184,-1.3766542181850419,5898.618654412002
1.188,-1.371582592155611,5899.435444666369
1.192,-1.3764258214347647,5906.125070791129
1.196,-1.3882930884560398,5903.171732260022
1.2,-1.402288862334975,5904.836057842169
1.204,-1.4129718326407699,5908.2122363976
1.208,-1.4159137689152033,5906.276213614059
1.212,-1.408893794881196,5906.110912019233
1.216,-1.392403170747777,5911.843156675673
1.22,-1.369348849912828,5905.562096975955
1.224,-1.3440961148964936,5901.2388054393
1.228,-1.321217870442012,5894.219242757195
1.232,-1.3043919426544857,5898.720498575151
1.236,-1.2957325807228206,5898.888521263785
1.24,-1.2955819731374567,5905.385904578977
1.244,-1.3026355804625465,5899.1331563122885
1.248,-1.3142873592738793,5898.1252717796815
1.252,-1.3271454695473006,5886.238300043041
1.256,-1.3376936350010518,5900.131086079306
1.26,-1.3430415819814254,5900.641753873949
1.264,-1.3416166523198005,5903.768557491288
1.268,-1.3335504273116925,5903.663222176717
1.272,-1.3205460803587732,5902.2183522950345
1.276,-1.305227495273082,5909.148926434634
1.28,-1.2902279670054733,5907.685842202239
1.284,-1.2773909731185136,5902.75696997134
1.288,-1.2673778212090272,5905.580307636925
1.292,-1.2597843160606714,5898.553679319582
1.296,-1.2536632818505964,5898.891677325646
1.3,-1.2481921386303811,5902.24927306528
1.304,-1.2431686887206825,5898.629807560336
1.308,-1.2391295640742477,5902.87768352767
1.312,-1.2371165322565914,5901.615610015343
1.316,-1.2382714163262594,5894.098401894373
1.32,-1.2434165923020009,5907.590600434287
1.324,-1.2527011320173536,5901.992500930448
1.328,-1.2653928579861435,5909.320330458306
1.332,-1.2799075520250742,5901.230964816059
1.336,-1.2940887488762742,5912.001845702536
1.34,-1.3056469805775663,5904.061913693702
1.344,-1.3126400339668887,5902.858347503447
1.348,-1.3138994027193043,5897.178842912339
1.352,-1.3093133558552372,5898.262372422191
1.356,-1.2998899383716938,5900.205914267225
1.36,-1.2875967767122836,5898.266786962473
1.364,-1.2750689904626658,5896.361684858069
1.368,-1.2652883047485317,5904.027236280237
1.372,-1.2612273079107077,5901.83386339546
1.376,-1.2653369549612399,5899.932250932377
1.38,-1.2788105809220554,5895.725135071868
1.384,-1.3008002357308428,5897.634862904394
1.388,-1.3279894367677232,5906.230368513887
1.392,-1.3549301845728636,5898.268606912994
1.396,-1.3752811130281672,5903.719414346601
1.4,-1.3836402093196847,5894.893625310544
1.404,-1.377283563557684,5896.252602226737
1.408,-1.3570789821910982,5902.332952142389
1.412,-1.3272086829719134,5897.93433995374
1.416,-1.2938644292914292,5907.425016672646
1.42,-1.2634637888755278,5895.42874497954
1.424,-1.2410500323811036,5901.266698705451
1.428,-1.229396726287624,5897.53851343185
1.432,-1.2290024718007075,5900.1863203214825
1.436,-1.238766572733122,5897.130715870442
1.44,-1.256892346325512,5897.509474247897
1.444,-1.2815892933828241,5893.140661227601
1.448,-1.3113483405356225,5893.590493892774
1.452,-1.34478731125422,5903.924440919146
1.456,-1.3802390828860498,5892.8418898121545
1.46,-1.4153535678647238,5898.866669220222
1.464,-1.4469564667851327,5909.351713582209
1.468,-1.471267689176767,5896.125740803074
1.472,-1.4844483117586313,5903.811336444738
1.476,-1.4834037520648122,5899.866637894636
1.48,-1.4667433444482267,5904.259399155529
1.484,-1.4356489521437599,5901.878832017531
1.488,-1.3942313851509744,5898.2964914202175
1.492,-1.3490384981808365,5902.015773939022
1.496,-1.3077676882615987,5905.822908630734
1.5,-1.2776058000379764,5892.715267836681
1.504,-1.2637039803391623,5895.719131594176
1.508,-1.268152210919432,5900.1472465087645
1.512,-1.289630249405947,5908.705134206192
1.516,-1.3237644059860223,5900.739389158961
1.52,-1.364097800918333,5901.939262386696
1.524,-1.4034443136332375,5898.3283570609865
1.528,-1.4352691821264347,5901.296365064134
1.532,-1.4547245923951992,5894.69316004666
1.536,-1.459116974381239,5904.510389965936
1.54,-1.4478364784471824,5895.729037542461
1.544,-1.4220390765547835,5902.999165065217
1.548,-1.3844947381943322,5911.693599562334
1.552,-1.3398477376271798,5893.244079467985
1.556,-1.295114941176043,5902.29321750123
1.56,-1.2598516812434655,5898.26560630174
1.564,-1.245311259791292,5905.950315782263
1.568,-1.2621968794596206,5894.451077653064
1.572,-1.3171690408446548,5902.592977554824
1.576,-1.4088841936892702,5903.411258636102
1.58,-1.5246936983712285,5905.071827198748
1.584,-1.6391230162908155,5897.730882184682
1.588,-1.7150477039985041,5903.227667605482
1.592,-1.7081893955030045,5895.091007499936
1.596,-1.5749917052663327,5901.977678659603
1.6,-1.2829177700032421,5904.29805484346
1.604,-0.8209273249003018,5899.134354306903
1.608,-0.20690148586201804,5901.642124501998
1.612,0.5112649885755108,5897.519864741749
1.616,1.2627875530876371,5893.554406171356
1.62,1.968361356243335,5908.287350876374
1.624,2.5575912450143488,5914.910066470015
1.628,2.983729945567619,5931.597040275514
1.632,3.231227123197911,5949.564449361326
1.636,3.3147336915506247,5957.421104532688
1.64,3.271253814728922,5973.520974701266
1.644,3.148831619524187,5981.625484993932
1.648,2.9953160044898763,5995.526557596609
1.652,2.849758977890938,6002.063425369229
1.656,2.7375606293672834,6021.14773569339
1.66,2.6692759406466893,6015.029473130015
1.664,2.6423339562918065,6038.417981410968
1.668,2.6446598870046865,6046.318992314386
1.672,2.6591753193390937,6058.815348985995
1.676,2.6683249637448094,6061.651994604213
1.68,2.658020661537573,6068.481888786871
1.684,2.6205307948452807,6081.783402567831
1.688,2.555871324179182,6079.971537644899
1.692,2.471373468448717,6100.888947089105
1.696,2.3794578763588445,6104.451304558523
1.7,2.29414066109535,6120.682631990734
1.704,2.227212666552799,6122.193223264173
1.708,2.1851869424647545,6134.777728397222
1.712,2.1678851861280406,6147.960413227381
1.716,2.1689657950626295,6148.510429715451
1.72,2.1780518025896054,6155.976439133795
1.724,2.1837051977810717,6164.139955963878
1.728,2.1763956388042818,6163.561238676619
1.732,2.1507225008914834,6172.08459154142
1.736,2.106389842860348,6177.978449739036
1.74,2.04778921488349,6182.80097856447
1.744,1.982458130305081,6192.980495472518
1.748,1.9189948342051237,6190.861149457827
1.752,1.8650659585277052,6210.95447541865
1.756,1.8259536676706523,6213.6592190942965
1.76,1.8038231189440688,6225.466131001709
1.764,1.797692110045437,6223.887451824367
1.768,1.8039685168768345,6236.825344803685
1.772,1.81735233310981,6236.519498899304
1.776,1.8318789792415497,6246.569581468335
1.78,1.841930929872343,6244.906729572698
1.784,1.8431346038575598,6251.739798300187
1.788,1.833090015233963,6256.738716217953
1.792,1.8117883543379185,6267.132341827964
1.796,1.7814657427541811,6270.533282170634
1.8,1.7457502694812543,6284.013193362724
1.804,1.7083370668916085,6285.407529861669
1.808,1.6717830230038622,6280.637275762991
1.812,1.6370011766864494,6286.841504258757
1.816,1.6036299643067358,6295.175708272314
1.82,1.5709531640672514,6297.137526105953
1.824,1.5387784430013856,6301.741395404854
