时间(s),电压(V),幅值(高频80K)
0.0,-1.9490850966005444,5903.310786820544
0.004,-1.8799533835636004,5904.852810719071
0.008,-1.8154833398633783,5903.7789642714215
0.012,-1.7593270615038439,5902.338571378591
0.016,-1.7130767478877238,5907.382809940937
0.02,-1.6764791008985578,5910.854697304458
0.024,-1.6482555745264404,5905.681760388569
0.028,-1.6270820257615954,5905.18714294161
0.032,-1.6123640808203985,5899.962822124381
0.036,-1.6045223535293252,5906.323239999563
0.04,-1.6046075498869976,5900.523533045421
0.044,-1.6133383115458764,5897.410238746263
0.048,-1.6300115818887475,5899.6862162645775
0.052,-1.6519154465487214,5895.27408626742
0.056,-1.6746788920059172,5904.013996217336
0.06,-1.6934785283364397,5902.854434391535
0.064,-1.7045352435424777,5900.549686359417
0.068,-1.7062216639880772,5904.31214629871
0.072,-1.6993736916569882,5901.986303270271
0.076,-1.6867905140145687,5890.160188111067
0.08,-1.6721937055492704,5899.307046755681
0.084,-1.6590531582144135,5901.7032421932345
0.088,-1.6496936310516588,5903.907397038257
0.092,-1.6449380152697932,5906.5052582311655
0.096,-1.6442428356437728,5899.637299553749
0.1,-1.6460478272115282,5899.801660678998
0.104,-1.6481247889905926,5899.166665175638
0.108,-1.6479865586059046,5900.107381657298
0.112,-1.6435205109988718,5905.539836758116
0.116,-1.6337446983440644,5898.791044850487
0.12,-1.619258752897524,5903.206590394358
0.124,-1.6020183803312247,5900.75309008893
0.128,-1.5845056789029133,5906.840204989983
0.132,-1.5687777167282124,5895.434439703302
0.136,-1.555896562456428,5902.0297968561545
0.14,-1.5459105784397198,5897.008019131064
0.144,-1.5381970109535688,5901.090668255188
0.148,-1.53187003476558,5908.330472409548
0.152,-1.5260972231844838,5896.838350833932
0.156,-1.520330900886824,5906.365115755481
0.16,-1.5144994580661828,5894.867811183291
0.164,-1.5091633143299434,5902.007215612103
0.168,-1.5056078674798499,5891.5705991224095
0.172,-1.5058100614374093,5896.025149620023
0.176,-1.5121626351572823,5899.240521980881
0.18,-1.5268613956207135,5900.17174500299
0.184,-1.551025398601667,5892.267608756905
0.188,-1.5838338313675846,5898.569196546487
0.192,-1.622062961941438,5901.472537008836
0.196,-1.6603155768241322,5904.590261590718
0.2,-1.6919985036670884,5903.913891440024
0.204,-1.710839310960688,5898.261587692986
0.208,-1.7125341196889878,5898.572575623922
0.212,-1.6960071701737187,5904.840304998909
0.216,-1.6637912299379776,5905.262545374237
0.22,-1.621312909539957,5887.661969488333
0.224,-1.575364462058792,5900.328533938303
0.228,-1.5324752013220957,5903.292050638628
0.232,-1.4978933409297701,5902.906121530492
0.236,-1.475389306106724,5902.582535411195
0.24,-1.4674834005561708,5894.088579902115
0.244,-1.4754935479684093,5893.350123019263
0.248,-1.4991206743289622,5898.592142602094
0.252,-1.5357883026920005,5891.847821439732
0.256,-1.5802305458551533,5894.302302423944
0.26,-1.6247963805525163,5889.783110466223
0.264,-1.660700062998916,5903.342724114668
0.268,-1.6800588782452743,5901.901497637831
0.272,-1.6781406771845706,5909.788330934968
0.276,-1.6550182814835392,5894.864520147674
0.28,-1.6159461377997124,5903.060225407661
0.284,-1.5702022530176336,5907.755794397287
0.288,-1.5286996641267212,5901.709739515001
0.292,-1.5011314483678384,5896.014576832151
0.296,-1.49357647149616,5903.06608021265
0.3,-1.5072879020547987,5911.699414374929
0.304,-1.5389002516490153,5898.416440295238
0.308,-1.5817641766415216,5897.33284622474
0.312,-1.6278177060899617,5904.681645060299
0.316,-1.6694160268363316,5899.900901655275
0.32,-1.7007473031537834,5896.572351419209
0.324,-1.7186821636202319,5903.845757319081
0.328,-1.7230381091498923,5898.242437170779
0.332,-1.716285111406219,5897.782909255811
0.336,-1.702735265248867,5895.776683140069
0.34,-1.687325693081987,5901.5068522811935
0.344,-1.6742565502979454,5907.817917752694
0.348,-1.6658983562150074,5900.959375388968
0.352,-1.6623654652727216,5905.404137733124
0.356,-1.6619063479511127,5900.441460656884
0.36,-1.6619203150872495,5898.289536173152
0.364,-1.660165846899766,5899.089796366316
0.368,-1.6556771314254235,5900.858778350246
0.372,-1.6490373139003938,5899.159437400968
0.376,-1.6419154021415796,5904.3382468177015
0.38,-1.6361067097434476,5903.185001076757
0.384,-1.6325909712440512,5893.993355373495
0.388,-1.6311244970669545,5897.45208660352
0.392,-1.6305587979403366,5899.062241769233
0.396,-1.629660101373392,5906.397155029969
0.4,-1.6279660065540742,5899.699524622927
0.404,-1.6262291384712542,5906.04720909658
0.408,-1.626195070681545,5894.939894680959
0.412,-1.6297669620280155,5894.475041266933
0.416,-1.637922662202904,5896.076608045723
0.42,-1.6499157198263108,5895.4644009580215
0.424,-1.6631954304176162,5895.87514517124
0.428,-1.6741629653858994,5904.432119934821
0.432,-1.679498939177344,5898.147926330521
0.436,-1.6775212439533407,5906.842147931511
0.44,-1.6689897117444494,5905.771007017487
0.444,-1.6570139172043856,5902.826657521401
0.448,-1.646130672589947,5904.919558291392
0.452,-1.6409384407446501,5898.910386482186
0.456,-1.644718540202379,5899.485699575454
0.46,-1.6583310301472343,5892.652664095312
0.464,-1.6795819253442423,5902.709455196599
0.468,-1.7032808538069968,5906.054429573079
0.472,-1.7221882449144599,5892.064125385976
0.476,-1.728835062864713,5898.072900298104
0.48,-1.7178207649865433,5898.604474603103
0.484,-1.6878648026667444,5897.525146236184
0.488,-1.6428247278878685,5889.884543324797
0.492,-1.591182755756032,5903.129985011189
0.496,-1.5440368052391167,5904.278355986798
0.5,-1.5121776759052834,5899.037981092104
0.504,-1.503165281997616,5898.683857652054
0.508,-1.519326663772665,5896.130912674128
0.512,-1.5573033210168337,5899.839809805807
0.516,-1.6092583012080393,5896.324961451604
0.52,-1.665258617992559,5899.203238603847
0.524,-1.7159202007352923,5895.304372753747
0.528,-1.7543907255901063,5892.1602250257565
0.532,-1.7771688683578153,5897.983651646626
0.536,-1.7838281669372957,5899.675568812569
0.54,-1.7760830982584421,5902.291275407158
0.544,-1.7566964226175117,5897.698613148166
0.548,-1.72860933846265,5902.340862062074
0.552,-1.6945081587759017,5898.869669947671
0.556,-1.6568464201661695,5895.985623496072
0.56,-1.6181522061154772,5900.782442621733
0.5640000000000001,-1.5813571102979427,5897.960957226565
0.5680000000000001,-1.549918243392765,5899.568094136852
0.5720000000000001,-1.5276027388581943,5896.468865107368
0.5760000000000001,-1.517908733558249,5898.327467863932
0.58,-1.5232076183002654,5900.195042769514
0.584,-1.5438096633683245,5891.568058199875
0.588,-1.5772609691788444,5896.029497432978
0.592,-1.6182417305390888,5903.694341785729
0.596,-1.6593636194270929,5900.142582769567
0.6,-1.6928536536768388,5897.51029245329
0.604,-1.7126506487475108,5890.681814872605
0.608,-1.7161553385384842,5890.441502582791
0.612,-1.7049955315449066,5899.6119245516975
0.616,-1.6845534590441713,5892.395284231999
0.62,-1.6623912617107666,5896.260577057392
0.624,-1.6460332483535365,5897.643314521303
0.628,-1.6408071761772978,5906.708520165488
0.632,-1.6484652967804043,5901.438871701943
0.636,-1.667008899320369,5901.437392287742
0.64,-1.6916625572211579,5898.400367404191
0.644,-1.7165115192205997,5903.545605976116
0.648,-1.7361260963628518,5891.737894622303
0.652,-1.7466655675851999,5900.6432432485
0.656,-1.7463429970497784,5896.208523335479
0.66,-1.7353983660551644,5886.172435300972
0.664,-1.7157225784916847,5897.238346217448
0.668,-1.690197542523561,5894.380919282111
0.672,-1.6618722349222557,5898.348365697105
0.676,-1.6332282187813671,5893.958053729288
0.68,-1.6058254199952475,5887.483079409943
0.684,-1.5804696970255356,5904.572850926214
0.6880000000000001,-1.5577564048464556,5910.318143996034
0.6920000000000001,-1.5386013100192804,5901.572500246448
0.6960000000000001,-1.524384274222403,5901.322557913388
0.7000000000000001,-1.51662127619763,5907.017551290622
0.704,-1.5164034446014145,5904.833578784911
0.708,-1.5239414905732571,5905.121296538129
0.712,-1.5384249484420534,5895.863363977158
0.716,-1.5582083323098725,5903.173980761602
0.72,-1.5811710402893493,5907.727084277295
0.724,-1.6050201573706677,5902.586838768562
0.728,-1.6273926860504593,5902.0636171127535
0.732,-1.645839625250181,5906.0008901159645
0.736,-1.6579416099449158,5901.235972569175
0.74,-1.6617311154122207,5894.627516221717
0.744,-1.6563247738309832,5897.747697967637
0.748,-1.6424517009803414,5905.66029023386
0.752,-1.62258931353848,5903.036616881854
0.756,-1.600606712444029,5894.914121257825
0.76,-1.5809754241586014,5899.921902211444
0.764,-1.5677189463147572,5905.001038193651
0.768,-1.5634068403364965,5905.681738547095
0.772,-1.5685670510642646,5890.747449515218
0.776,-1.581741532004372,5909.47822480023
0.78,-1.6001116666300903,5898.780925845119
0.784,-1.620419963099883,5894.346124635843
0.788,-1.6399171281435323,5905.386497593778
0.792,-1.657109989533833,5901.983986069347
0.796,-1.6720583927616501,5897.298455441736
0.8,-1.6860156019045835,5894.765011558359
0.804,-1.7004767957295606,5902.387808797539
0.808,-1.7160454082584584,5901.813021718389
0.812,-1.7316560397182237,5905.172780426723
0.8160000000000001,-1.7445068469763054,5899.592188483501
0.8200000000000001,-1.7507188592158152,5907.223590718032
0.8240000000000001,-1.746490593058903,5901.967013975764
0.8280000000000001,-1.729420156625021,5898.421471678007
0.8320000000000001,-1.6996085620358201,5888.793827806281
0.836,-1.6601197953989733,5900.327782833349
0.84,-1.616529054808819,5908.334784527368
0.844,-1.5756715110766168,5897.176303821922
0.848,-1.5440372943065277,5898.622480533827
0.852,-1.5263146779334944,5892.3261897573975
0.856,-1.5244364344843022,5901.927415020555
0.86,-1.537305181445747,5902.288503049906
0.864,-1.5612067725100833,5908.024594985643
0.868,-1.590756879845182,5907.516988796887
0.872,-1.6201006837938725,5895.345812729956
0.876,-1.6440492161209919,5900.785490002004
0.88,-1.6589121404670144,5897.8235541421545
0.884,-1.662941653586578,5898.214234404807
0.888,-1.6564441014060216,5891.550664752338
0.892,-1.6416633671911414,5902.8678817158725
0.896,-1.6224685506084624,5895.871785913431
0.9,-1.6037595696137377,5904.25669734111
0.904,-1.5905129173069434,5910.009640362702
0.908,-1.5866085658671412,5897.7251671563245
0.912,-1.5938254043868127,5892.380124111973
0.916,-1.6114072595662705,5896.102757653819
0.92,-1.636340907078906,5910.023479079592
0.924,-1.6641556652774643,5891.7736608558935
0.928,-1.6899113569914759,5896.574640447131
0.932,-1.7091566655003316,5907.369753683746
0.936,-1.7188098510285537,5894.407788651917
0.94,-1.7179025641212526,5892.549100917729
0.944,-1.7079613518763297,5905.992295304664
0.948,-1.692731765270035,5908.720478122962
0.952,-1.6771521345668883,5896.339266453153
0.956,-1.6658604726153219,5902.653644838991
0.96,-1.6617961889936925,5896.345453363803
0.964,-1.6654408169730264,5898.024735587278
0.968,-1.6749448567635854,5905.477567013739
0.972,-1.6870015203623816,5903.894462262749
0.976,-1.698067737192886,5904.928168475056
0.98,-1.7054813816147594,5890.432381505591
0.984,-1.7081354606461223,5902.159321531426
0.988,-1.7065711911051762,5907.457114202473
0.992,-1.7025497880335567,5900.544596750533
0.996,-1.6982815329728886,5905.528281752024
1.0,-1.695561382618131,5893.144176097499
1.004,-1.6951135571807745,5902.501408074888
1.008,-1.696375615565387,5900.987850824907
1.012,-1.6977066684712923,5904.133624418309
1.016,-1.6968124163800307,5900.608211385758
1.02,-1.6912798471161425,5908.32897273826
1.024,-1.6793540452323186,5906.594648058966
1.028,-1.6610896648860587,5894.963997347421
1.032,-1.6396726805909747,5904.576152974679
1.036,-1.6222950171672565,5906.839599379117
1.04,-1.61976992566884,5895.997938625189
1.044,-1.644259689723098,5900.903905329515
1.048,-1.7050701890576188,5892.215294049402
1.052,-1.803267370748365,5909.443949397015
1.056,-1.9265629913305473,5899.59739829134
1.06,-2.046266834870933,5897.323016391552
1.064,-2.1180333445081048,5895.747024222396
1.068,-2.0875540199804656,5897.71697268213
1.072,-1.9011482093965593,5901.202476918499
1.076,-1.5195080524962723,5905.94662866098
1.08,-0.9311752375246483,5899.160274443489
1.084,-0.16137715537509523,5897.313563528946
1.088,0.7277391946026002,5901.1608845018
1.092,1.6472631173496686,5882.759981247979
1.096,2.5001529755851397,5906.848885572576
1.1,3.2026994397635993,5912.780796247178
1.104,3.701712616531601,5925.606256298039
1.108,3.9822779313790395,5941.232537747416
1.112,4.064997156350651,5956.647951939556
1.116,3.9953740737679113,5969.212629166883
1.12,3.8298593178725784,5988.843059162907
1.124,3.6229089688028413,5993.367090048766
1.128,3.417925311142536,6004.721346911994
1.132,3.243039036463009,6018.841213463745
1.136,3.111122247428068,6034.129582970785
1.14,3.022591216908739,6047.5998168477245
1.144,2.9694668592876865,6065.281924386799
1.148,2.9395373386297226,6057.021748390116
1.152,2.9199571256860755,6080.681940598292
1.156,2.899971008603878,6082.907855793437
1.16,2.8726207052080164,6093.769621711662
1.164,2.835361911264041,6107.845660978777
1.168,2.7896020122050715,6119.928471600256
1.172,2.7393431271611846,6131.538956779375
1.176,2.689365024449022,6143.010959971362
1.18,2.6435438029980975,6153.679609812734
1.184,2.6037976729964707,6159.7419359849455
1.188,2.569830916170358,6164.264868363772
1.192,2.5395555490903483,6180.160196844887
1.196,2.509944626113144,6187.397215877141
1.2,2.4780523846301192,6190.292591286995
1.204,2.4419452723351487,6195.464879621661
1.208,2.4013125868620295,6217.894887255662
1.212,2.357592048796333,6224.67415372965
1.216,2.3135678444859806,6225.09372863739
1.22,2.272528288872164,6223.518058326255
1.224,2.237173498217735,6236.025077255629
1.228,2.2085801658129998,6246.1794460032925
1.232,2.185609362093059,6252.563560430246
1.236,2.165023337765102,6269.973811246961
1.24,2.1422742102335244,6276.964377949669
1.244,2.1126715479272895,6279.381691230942
1.248,2.0725697727734795,6289.072192674192
1.252,2.020291848488238,6301.285019873412
1.256,1.9566428772493183,6302.15190033867
1.26,1.8850042567270922,6310.7216374281
1.264,1.8110371809073034,6309.406228456329
1.268,1.7419307662260601,6312.42996873247
1.272,1.6850875413952846,6329.820065863895
1.276,1.6463650203692044,6332.939319574943
1.28,1.6283738361488327,6344.858613529487
1.284,1.6294878889120468,6346.027236878836
1.288,1.6439771905412197,6333.805161870701
1.292,1.6632407169076353,6346.839598103895
1.296,1.6777690860269268,6355.367187657589
1.3,1.6793072246019567,6354.34701500118
1.304,1.6627051751493935,6371.595298199919
1.308,1.6270670298306817,6376.105424015052
1.312,1.575934951632295,6384.914956241667
1.316,1.5163929284374373,6385.4406431775615
1.32,1.4572459960437505,6386.214583090453
1.324,1.4067793277143026,6387.521299284968
1.328,1.3707982644402117,6395.364908488567
1.332,1.3515290741797874,6395.325668862448
1.336,1.3475897886073942,6415.257409266361
1.34,1.3548430899934216,6407.158828731742
1.344,1.3677010632420021,6417.487539470634
1.348,1.3804100370342571,6409.966271239209
1.352,1.3879761690268364,6424.275246392759
1.356,1.3866579507885006,6427.362233145904
1.36,1.3742291187487368,6424.477302597993
1.364,1.3502894979733813,6431.524298069582
1.368,1.3166555436767815,6437.59761323837
1.372,1.2774823064718943,6447.58918470533
1.376,1.2386358510773559,6440.964609536492
1.38,1.2061568839939578,6445.779243712297
1.384,1.1842408630542651,6451.937897594684
1.388,1.1735761892861905,6459.802119942761
1.392,1.1708352730251492,6473.0985876217455
1.396,1.1696585332075045,6466.679309090414
1.4,1.1628613904779483,6462.884576726303
1.404,1.1450526672739922,6465.016345872
1.408,1.1145809380291436,6468.410115267148
1.412,1.0739277139179213,6482.901520271316
1.416,1.0283721444746263,6488.460105814401
1.42,0.9836381800994936,6484.196554370517
1.424,0.9437514609415388,6488.1313070476735
1.428,0.9101162958744718,6494.863815993311
1.432,0.8820193055293947,6494.872244962252
1.436,0.8579434527768589,6495.050374564033
1.44,0.8367838977757964,6507.215208734878
1.444,0.8183805435343084,6491.8635043184095
1.448,0.8033357116007673,6503.716837749564
1.452,0.7924517181249483,6504.899368274972
1.456,0.7861760430077419,6507.350713425206
1.46,0.7842886994726957,6510.402664199107
1.464,0.7858670652969653,6513.376849572341
1.468,0.7894201522616651,6512.532526208556
1.472,0.7930394683940482,6521.701226705864
1.476,0.7944940207490234,6517.4833850169125
1.48,0.7913634438002802,6510.7885051452895
1.484,0.7813918278050301,6520.454371162839
1.488,0.7631212767336965,6516.993986633665
1.492,0.7366268187719172,6520.417363586847
1.496,0.7040395024325344,6528.730183431573
1.5,0.669569463796295,6521.238184304882
1.504,0.6388516322620017,6539.349760967565
1.508,0.6176404423258526,6528.89008972245
1.512,0.6101847614928598,6528.262334898146
1.516,0.6178378716324063,6527.285612410111
1.52,0.6383986119101821,6544.870909909559
1.524,0.6664114388596863,6534.734844513153
1.528,0.6943992451412524,6535.976792357062
1.532,0.7147989179695138,6534.039837750799
1.536,0.7221059470573887,6550.1559411635
1.54,0.71450564275975,6547.0622699079
1.544,0.6943669098425637,6547.234470818698
1.548,0.6674421530315195,6553.29699117468
1.552,0.6411013950108858,6554.162217899375
1.556,0.622144699871223,6554.162946771402
1.56,0.6147760593023943,6547.477493864686
1.564,0.6193253318108906,6560.69300244329
1.568,0.6321662739764085,6561.118659263017
1.572,0.646892484326733,6555.311002194621
1.576,0.6563489833969142,6549.513954854332
1.58,0.6548490855329008,6565.149665315656
1.584,0.6399110389273271,6563.9805861108
1.588,0.6130198297018907,6567.493941039695
1.592,0.5791851621272773,6557.06664475061
1.596,0.5454171883831433,6550.495457415473
1.6,0.5185953991484669,6563.617915806832
1.604,0.5034272060109906,6573.223299954965
1.608,0.5011853462047678,6571.96242173157
1.612,0.5096358763157547,6574.14365947185
1.616,0.5240883500100744,6574.498228250484
1.62,0.5390378723669718,6559.951911711178
1.624,0.5496832608909608,6577.359708672934
1.628,0.5528205848043829,6562.769360559706
1.632,0.5470910569094909,6574.501531857019
1.636,0.5329257018652872,6583.979346550723
1.64,0.5124733841667899,6576.675511750795
1.644,0.48944833380875663,6576.345662382805
1.648,0.4686071672693291,6577.444298637985
1.652,0.45471327163713826,6578.799579985919
1.656,0.45123401113616474,6570.84205368612
1.66,0.45929634608105385,6575.908632324243
1.664,0.477345529946527,6577.826154281254
1.668,0.5015771211665664,6575.003128792825
1.672,0.5268783043957074,6577.305595995264
1.676,0.5479596740425635,6579.741054617132
1.68,0.5604735976520905,6580.383757010352
1.684,0.5619416123184564,6588.255791273435
1.688,0.5522292525317302,6592.546658687863
1.692,0.5333450135383621,6587.925141585287
1.696,0.5086054369426224,6590.466090790012
1.7,0.48150275514249347,6587.601458695313
1.704,0.45472120543798966,6586.697526219149
1.708,0.42965991519016405,6596.057213385726
1.712,0.4066000674230482,6592.792247386566
1.716,0.38535981666280467,6590.439760731288
1.72,0.36604043397025143,6602.034439156804
1.724,0.3494500552795203,6597.233363806133
1.728,0.33703657879051957,6596.948104131009
1.732,0.3304943889402281,6594.408655050094
1.736,0.3313539871946197,6602.337364554362
1.74,0.3407071865047083,6593.259869977265
1.744,0.3589804396913039,6595.251238232591
1.748,0.38564169734795434,6589.285253669916
1.752,0.4188968803705422,6598.91362997436
1.756,0.4555491168475116,6596.719142668533
1.76,0.49116554366607407,6597.684895316979
1.764,0.5206356862984863,6594.40236161844
1.768,0.539143762173339,6598.666694308695
1.772,0.5434118934490202,6601.34955639648
1.776,0.5328034137303268,6604.307589597176
1.78,0.5097315362081324,6594.768496817537
1.784,0.4790473817644507,6593.600275328097
1.788,0.446622977770547,6602.28163873306
1.792,0.4177959055528295,6599.029777168444
1.796,0.3963397795694629,6601.816917740322
1.8,0.38419467133219026,6597.894554996146
1.804,0.3816868214914435,6601.926240694445
1.808,0.38775907134520676,6591.270970017
1.812,0.3999443725282146,6613.286821639281
1.816,0.4142392411330124,6599.793751696641
1.82,0.42532087275971614,6598.322060114431
1.824,0.4274795784320397,6605.06794757967
1.828,0.41623052719320114,6611.514055569646
1.832,0.39006078183073223,6611.167046847115
