时间(s),电压(V),幅值(高频80K)
0.0,-1.2731313417713335,5891.669080847945
0.004,-1.290385016584242,5906.998145071411
0.008,-1.300268684985759,5899.224841650002
0.012,-1.2972728504933702,5903.797239091996
0.016,-1.2798816786801892,5907.45842295173
0.02,-1.2507768072691903,5896.20230119921
0.024,-1.2157446289553933,5902.706928945371
0.028,-1.1819005155165876,5906.885834327034
0.032,-1.1559316050881798,5895.616663345681
0.036,-1.1428220712264285,5905.546302765915
0.04,-1.1452023729918335,5898.753169875023
0.044,-1.1632560476212348,5896.525327036483
0.048,-1.1950432080608842,5892.810027563781
0.052,-1.2370593502777496,5895.242415326182
0.056,-1.2848120132905199,5904.849211938335
0.06,-1.3332607299458987,5892.4642930428745
0.064,-1.3771624360838408,5902.422123443135
0.068,-1.4115422733745149,5905.905585013607
0.072,-1.4324640554183887,5899.6368628586
0.076,-1.4379694794608893,5902.212339232
0.08,-1.4287185115392147,5901.512914725423
0.084,-1.4078573725112007,5901.460481351721
0.088,-1.3800836447370204,5896.632287671207
0.092,-1.3503947614865155,5906.824168095998
0.096,-1.323092440373791,5907.719769005709
0.1,-1.3012554643299072,5900.026599739094
0.104,-1.2865375781854969,5897.003929933488
0.108,-1.2791134216367137,5898.373062627875
0.112,-1.277767307440536,5904.1737755727145
0.116,-1.2802054803426555,5895.364905529023
0.12,-1.2835620127533234,5903.100612987701
0.124,-1.2849334997370092,5894.589339637432
0.128,-1.2818290677561173,5896.857828542161
0.132,-1.2725900521867044,5906.675939406663
0.136,-1.2568523035996015,5898.93507299208
0.14,-1.2359307110768134,5905.1950592630565
0.144,-1.212840881806724,5899.339702659184
0.148,-1.1917637496369715,5899.387516098586
0.152,-1.1770512229013679,5891.534496234168
0.156,-1.1721102098670013,5892.862903216776
0.16,-1.1785152482287236,5899.4812052250345
0.164,-1.1955476408305508,5912.164945949996
0.168,-1.2202093923993158,5898.141313213747
0.172,-1.2476871187810326,5903.87479321209
0.176,-1.2722025690079481,5898.439335545111
0.18,-1.288134069106743,5888.822986754024
0.184,-1.2912312661856704,5895.847662626051
0.188,-1.2797017164353897,5893.452975677189
0.192,-1.2549260781468852,5897.527934498918
0.196,-1.221546579188105,5895.582213190903
0.2,-1.1867115709134302,5892.967592134803
0.204,-1.1584512172633108,5889.039991980198
0.208,-1.1435300336497431,5908.473160145159
0.212,-1.1454757449004707,5901.224480404356
0.216,-1.1635212208115862,5897.195313657766
0.22,-1.1928346964163568,5906.232233988578
0.224,-1.2259117986896726,5904.200652141462
0.228,-1.2546765102408817,5903.729857891648
0.232,-1.272740135419789,5897.789775541198
0.236,-1.2772547572982886,5891.63752074257
0.24,-1.2698234857705664,5905.060940594105
0.244,-1.2561097578651785,5891.952192036519
0.248,-1.2441733054002588,5898.688908686257
0.252,-1.2419961725048083,5895.346998840896
0.256,-1.254943868378148,5897.829266880947
0.26,-1.2839529722188447,5896.858131516678
0.264,-1.3250454970432648,5894.094047709518
0.268,-1.3703512660238495,5893.902168344135
0.272,-1.4102688708008757,5898.427960747289
0.276,-1.43597199677829,5903.082211904184
0.28,-1.441451646328252,5909.712327769264
0.284,-1.4246663188682525,5904.573368003595
0.288,-1.3877881813201762,5905.115117844746
0.292,-1.3366810184429347,5890.275699273153
0.296,-1.279714401339608,5903.442446732274
0.3,-1.2260575912368228,5892.604771478274
0.304,-1.1837703865179652,5907.710268675009
0.308,-1.1581836759975783,5897.062670081295
0.312,-1.1510521015026083,5904.373613058089
0.316,-1.1606747497652397,5895.643175662486
0.32,-1.182758945722833,5901.926260425086
0.324,-1.211539541738536,5903.51551763181
0.328,-1.2407440413271218,5890.697461614601
0.332,-1.2643269509373403,5897.039998320652
0.336,-1.2771841906468742,5895.89731748591
0.34,-1.276030790924558,5890.759398899588
0.344,-1.2603155420909073,5901.47170553246
0.348,-1.2327586653373568,5890.322370421915
0.352,-1.1990960010061704,5895.283670554143
0.356,-1.1669022262184439,5902.082962873314
0.36,-1.1437508210475278,5898.20824144282
0.364,-1.1352517000051952,5899.169285837011
0.368,-1.1435980950591103,5896.887186668324
0.372,-1.1671120359422702,5902.935975848249
0.376,-1.2009048782915,5898.470951951143
0.38,-1.2383214394767572,5906.698867508769
0.384,-1.272581959774267,5901.620596884854
0.388,-1.2981182933317439,5906.220853962062
0.392,-1.3113965636400968,5891.771554579947
0.396,-1.3112677240356152,5897.677186380636
0.4,-1.2989520592290924,5900.920068432744
0.404,-1.277723851094377,5906.419421302837
0.408,-1.2523387190203512,5898.781196205084
0.412,-1.2282368916272894,5898.673675069298
0.416,-1.210530599555247,5898.508875422037
0.42,-1.2028124112331033,5896.562770377981
0.424,-1.2059913912946083,5904.7429602752345
0.428,-1.217608283999439,5901.890346337218
0.432,-1.2321454055306922,5894.734556129718
0.436,-1.242516880388416,5902.131792453431
0.44,-1.2423295971083657,5898.469325433132
0.444,-1.2280627356641813,5903.047618054905
0.448,-1.2003177172772277,5897.663412494234
0.452,-1.1636913838486647,5902.998127598376
0.456,-1.1253774527118188,5907.676407560551
0.46,-1.0930544071475508,5900.23207446039
0.464,-1.0728130259132853,5900.216996396349
0.468,-1.06777672153666,5900.876568693878
0.472,-1.0777336885309337,5895.781391551733
0.476,-1.0996896928650113,5902.709798754929
0.48,-1.1289895411210014,5897.8939915477085
0.484,-1.1606477395026362,5897.0158491074135
0.488,-1.1906171113636124,5902.923963199323
0.492,-1.2167024685493673,5895.042588442724
0.496,-1.2387685036156428,5898.692158957513
0.5,-1.2580601675172192,5900.679282185212
0.504,-1.2758863441121042,5896.173297870877
0.508,-1.2923155179029318,5904.242829104548
0.512,-1.3055929835025688,5892.323929803784
0.516,-1.312664860525819,5900.178880919474
0.52,-1.310636562524055,5896.920796115364
0.524,-1.2984545780988779,5896.981074729441
0.528,-1.2778939275920556,5898.987929241294
0.532,-1.2532532483119763,5889.578802523649
0.536,-1.2298514147309005,5893.049032148006
0.54,-1.212054977711767,5895.049021317983
0.544,-1.201774521972263,5901.630920360641
0.548,-1.1980836371772317,5901.174210846988
0.552,-1.1980482914140302,5899.956731228765
0.556,-1.198305068134736,5895.528076391753
0.56,-1.196627416456889,5901.942095882659
0.5640000000000001,-1.192785008615134,5897.319542656027
0.5680000000000001,-1.1883899444299049,5901.667215353713
0.5720000000000001,-1.1859307938482921,5894.940373304948
0.5760000000000001,-1.1875572036460516,5901.923885110059
0.58,-1.194219539535051,5899.502970015772
0.584,-1.205494094041597,5907.256322441694
0.588,-1.2200077489374996,5899.500052799478
0.592,-1.2360749933948958,5897.312342702946
0.596,-1.2521602087027326,5898.216442356436
0.6,-1.2670207603143533,5896.158999580503
0.604,-1.2796238043866541,5895.966601367327
0.608,-1.289004912163228,5896.557484567024
0.612,-1.2941996692702613,5906.109637143746
0.616,-1.2943260816657978,5898.772789018578
0.62,-1.2888424417076185,5902.128182021381
0.624,-1.2779250105259936,5913.547537718125
0.628,-1.26280417636311,5902.609429023702
0.632,-1.2458372174613481,5895.102118477723
0.636,-1.2301733948553566,5899.045334828606
0.64,-1.219075565500216,5901.023375883664
0.644,-1.2151540854601746,5890.956392721532
0.648,-1.2197877195784042,5905.636262876068
0.652,-1.2328649807647007,5904.325390479996
0.656,-1.2528481587140305,5900.332531608903
0.66,-1.2771359668714137,5907.602068966737
0.664,-1.302669975841608,5891.4604940726695
0.668,-1.3265965319169906,5894.4671667398
0.672,-1.3466920191510654,5900.531433304116
0.676,-1.3613814027924342,5902.78803970598
0.68,-1.36947711094776,5893.237989900735
0.684,-1.369965558970378,5888.663022392519
0.6880000000000001,-1.3621012645241457,5901.017530374349
0.6920000000000001,-1.3458137036745812,5895.023682927485
0.6960000000000001,-1.3221742780969084,5904.225918826684
0.7000000000000001,-1.293577783973839,5902.711651405042
0.704,-1.263458209104249,5901.0429958965615
0.708,-1.23566323489185,5899.940010254491
0.712,-1.2137785142377553,5893.703185864902
0.716,-1.2006100287013322,5901.470908305635
0.72,-1.1978519882389487,5891.563809672124
0.724,-1.205878866599323,5906.774494882504
0.728,-1.2236554025506703,5889.837464512156
0.732,-1.2488447794451207,5910.057931082728
0.736,-1.2781524194532985,5902.579845789763
0.74,-1.3077897278831778,5898.188247896914
0.744,-1.3338843594142265,5902.091523612212
0.748,-1.3528019988317266,5898.4084353162325
0.752,-1.3615207713248196,5899.317524954034
0.756,-1.358185549066217,5900.721225401354
0.76,-1.3427329608305285,5900.722905252572
0.764,-1.3172440719064447,5905.692360172588
0.768,-1.2857132984953341,5897.005648704311
0.772,-1.253228001957635,5907.634059605337
0.776,-1.2248892622627094,5893.354497409825
0.78,-1.2049250606112516,5894.61445555185
0.784,-1.1962777734871106,5904.578697562157
0.788,-1.2006057857128272,5895.261559836127
0.792,-1.2183687579237301,5891.930305594843
0.796,-1.2486845578568893,5901.436210959296
0.8,-1.288957592337343,5895.1868654436585
0.804,-1.3346224785760488,5899.702138722117
0.808,-1.3794118822846002,5890.688304666758
0.812,-1.4162982849464574,5901.4471263754895
0.8160000000000001,-1.438913394407111,5906.406409311679
0.8200000000000001,-1.4430333467910679,5893.430663832796
0.8240000000000001,-1.4276718974517353,5902.696224936973
0.8280000000000001,-1.3954297431700675,5900.667482752206
0.8320000000000001,-1.351998643860087,5905.17100451469
0.836,-1.3050172047758835,5898.131267665897
0.84,-1.2626365084291247,5899.443181570267
0.844,-1.232107246043758,5897.849505182595
0.848,-1.2185899553481134,5896.076512151841
0.852,-1.2243709484498095,5896.825427705896
0.856,-1.24867254430673,5906.789863538284
0.86,-1.288098020530068,5901.983859306301
0.864,-1.3374681122122216,5897.39629698935
0.868,-1.3906600025351026,5898.524676684658
0.872,-1.4412397402760493,5896.653739244352
0.876,-1.4829940805820312,5895.413080106189
0.88,-1.5105597643389805,5890.035667720024
0.884,-1.5201513300093565,5899.737037253095
0.888,-1.5101729440677776,5895.719832265555
0.892,-1.4814810065468529,5901.216866796039
0.896,-1.437206558168367,5900.604353524262
0.9,-1.382227664228473,5901.014662230016
0.904,-1.3224976860539002,5898.056150674289
0.908,-1.264396209734039,5906.231543245351
0.912,-1.2141146684612465,5893.362532305415
0.916,-1.1769977062808645,5900.126757671087
0.92,-1.1568228559501086,5902.023656923974
0.924,-1.155121415130438,5897.950682127179
0.928,-1.1707215186699966,5892.680865172475
0.932,-1.1997141811621357,5895.609137302095
0.936,-1.2359880456065673,5899.546535210698
0.94,-1.2723250761793419,5900.592518550397
0.944,-1.3018601499218783,5893.863762835888
0.948,-1.3195918638173996,5902.403106662265
0.952,-1.3235990117995213,5890.361046254829
0.956,-1.3156011394752183,5903.582326669925
0.96,-1.3005421759902673,5894.034524533874
0.964,-1.2851205430750665,5897.401923232329
0.968,-1.275647061838191,5897.814362435077
0.972,-1.2760125111823113,5904.347637889945
0.976,-1.2865524729140827,5895.623425422568
0.98,-1.304160067062436,5902.878314003015
0.984,-1.32342624906219,5907.43040105968
0.988,-1.3382491325561738,5900.654662036849
0.992,-1.3433652548531239,5897.746426677843
0.996,-1.3354730010693663,5899.00342429049
1.0,-1.313845890987701,5898.83342429551
1.004,-1.2804734994372662,5901.433016750712
1.008,-1.2398032932145922,5906.844364399815
1.012,-1.198120566067403,5893.559204626359
1.016,-1.1625865293069166,5898.697432667162
1.02,-1.140017019094133,5893.974595807154
1.024,-1.135574887816065,5908.296947341369
1.028,-1.1516022691358967,5896.5522048767
1.032,-1.186846163749323,5904.983623054956
1.036,-1.236336316623453,5899.3629785906405
1.04,-1.2920831172390226,5888.165590491572
1.044,-1.3445338158835867,5903.03788161268
1.048,-1.38447476963417,5901.812833384975
1.052,-1.4049508649011093,5902.315292601234
1.056,-1.4027791355322505,5896.457217535425
1.06,-1.3792734667672053,5901.4832726249215
1.064,-1.3399221764849185,5889.968839879957
1.068,-1.2930563637526988,5903.509544894523
1.072,-1.2479017873268805,5894.04351053959
1.076,-1.212600461760345,5898.100127898064
1.08,-1.1927404119755651,5904.77965168045
1.084,-1.1907129254711235,5897.342307595409
1.088,-1.2059050141147913,5902.336017924171
1.092,-1.2354196777416153,5900.067566104513
1.096,-1.274867779396561,5900.549560010886
1.1,-1.3189230815635142,5899.250125068336
1.104,-1.361667531863809,5904.573839879653
1.108,-1.3969941159927213,5895.323706677847
1.112,-1.4192980565488338,5901.755373921649
1.116,-1.424438269409346,5906.689564031156
1.12,-1.4107046452567251,5903.557655624161
1.124,-1.3794419295527698,5903.994627744607
1.128,-1.3350460358912362,5911.010121040033
1.132,-1.2841915975591447,5890.575522839733
1.136,-1.2343708373121602,5897.940202505963
1.14,-1.1921197030836894,5901.370056572996
1.144,-1.1615590111299965,5896.695985441826
1.148,-1.1438762844687398,5904.039191706575
1.152,-1.1379630642905105,5902.632280765302
1.156,-1.1417595831309675,5897.060335669618
1.16,-1.1534450437809658,5888.571510683685
1.164,-1.1718185912575712,5898.894379752678
1.168,-1.1958558789076044,5902.027359389911
1.172,-1.2239698847705027,5901.289312656838
1.176,-1.2536096878844263,5898.664670276359
1.18,-1.2815450255859513,5904.947596425294
1.184,-1.304752977334514,5898.535800441579
1.188,-1.3214544199018035,5901.042191741686
1.192,-1.3316895242973863,5894.569930763812
1.196,-1.3370075919165854,5897.555858833152
1.2,-1.3393623830193282,5905.33440880922
1.204,-1.3398399155424665,5904.504109726318
1.208,-1.3380011974654855,5896.186726745477
1.212,-1.332278487989609,5894.7500185436165
1.216,-1.3212423314943444,5897.361369004974
1.22,-1.3050154791541007,5905.499490041972
1.224,-1.2859752495172554,5889.557151148064
1.228,-1.2682727192804815,5901.77289981929
1.232,-1.2563574210515516,5905.940282223396
1.236,-1.2532111835551454,5903.719984067239
1.24,-1.2591221450151018,5891.637663965827
1.244,-1.2715531644331974,5894.293839857642
1.248,-1.2861144639256017,5893.986964956695
1.252,-1.2981429341154094,5900.70483823129
1.256,-1.304201624236149,5887.381229514114
1.26,-1.3029415799371602,5899.895272324727
1.264,-1.2950625082791987,5892.681765465891
1.268,-1.2824975919269024,5900.284892971338
1.272,-1.2673340585328368,5899.708106175214
1.276,-1.2511161479277115,5899.926345950836
1.28,-1.234875025475187,5896.980926416758
1.284,-1.2196602959023295,5894.503242394035
1.288,-1.2069734094420321,5903.991879940934
1.292,-1.1986499936272048,5901.938348349339
1.296,-1.1962486165952047,5901.0913291460265
1.3,-1.200394340338085,5903.669428436457
1.304,-1.2104863453160102,5903.656049446667
1.308,-1.2248491636826353,5906.758120011827
1.312,-1.2411429140780899,5892.362640169821
1.316,-1.2568172295477527,5895.00411765428
1.32,-1.269494906158311,5893.260490460288
1.324,-1.2772619324289405,5895.803769662897
1.328,-1.2788788102430817,5907.237751705677
1.332,-1.273927422448225,5899.962471507464
1.336,-1.262891946003217,5911.834627724862
1.34,-1.2471562377721757,5888.415465273826
1.344,-1.2288631228874114,5893.012729673731
1.348,-1.2105327745577337,5892.244074644513
1.352,-1.1943885711141062,5902.637536127749
1.356,-1.1815646425327266,5902.770188108346
1.36,-1.1716229299981684,5897.671279086923
1.364,-1.1628111147026456,5900.489807691423
1.368,-1.1531371185231474,5899.41285810836
1.372,-1.1418281086870428,5895.754932943202
1.376,-1.1304295711797596,5892.918048836235
1.38,-1.122884660660957,5895.568028157598
1.384,-1.1243784049371084,5915.525931335545
1.388,-1.1393257448908096,5900.804174277882
1.392,-1.1693190022313371,5898.76061236606
1.396,-1.2118992820768464,5896.522305497149
1.4,-1.260710554111173,5910.530803553838
1.404,-1.3071126570994527,5897.654581915538
1.408,-1.3427858468055847,5898.62298533826
1.412,-1.3623975467536822,5889.201484558908
1.416,-1.3652870395945587,5899.268085285621
1.42,-1.3555087033010815,5907.927124665149
1.424,-1.3402798783135819,5897.143995128231
1.428,-1.3275197309986988,5901.784627779622
1.432,-1.3234159290254301,5891.082799757331
1.436,-1.3307514319933478,5899.873794034965
1.44,-1.3483090390441017,5894.505780760709
1.444,-1.3713649110459583,5895.923358250522
1.448,-1.3931365894522012,5898.038807603347
1.452,-1.406874307173508,5891.913555061799
1.456,-1.4079997990085855,5901.629953905131
1.46,-1.3955210783148542,5897.696030659264
1.464,-1.372150858519845,5894.030476073525
1.468,-1.3431119952156683,5907.446173684696
1.472,-1.3142063909639254,5903.953167902049
1.476,-1.2899988243885379,5895.283868681526
1.48,-1.2727851767771223,5894.451060958199
1.484,-1.2625302300536665,5910.886216572537
1.488,-1.2574957406453244,5897.3325670480135
1.492,-1.255094395687663,5905.147949546045
1.496,-1.2526377406017555,5897.105569723418
1.5,-1.2479071942398774,5902.751098627961
1.504,-1.239613505129831,5901.109139314701
1.508,-1.2277418337782955,5901.915942055622
1.512,-1.2136553744157992,5897.907494203062
1.516,-1.1998265190894617,5901.996083221239
1.52,-1.1891962574691435,5907.761087322051
1.524,-1.184314192010088,5896.103135005468
1.528,-1.186494873259802,5892.146610002432
1.532,-1.1952454167082314,5897.145544803837
1.536,-1.208191125901276,5900.275020854394
1.54,-1.2216095267249611,5891.410659467452
1.544,-1.231452453305798,5898.681282909015
1.548,-1.2344967132630464,5896.183797138134
1.552,-1.2291999828529911,5895.380872041272
1.556,-1.2160063204972846,5902.060188788709
1.56,-1.1971099264471106,5892.803582623735
1.564,-1.1758693969680754,5902.8367685906405
1.568,-1.156091452164904,5906.401599819712
1.572,-1.1413249339860516,5896.826476559711
1.576,-1.1342466791848131,5895.447671958405
1.58,-1.1362396354064201,5904.267512378373
1.584,-1.1472762165031736,5898.3926468891605
1.588,-1.1661407066773453,5903.376805064918
1.592,-1.1908995452477573,5906.112520846076
1.596,-1.2194305296916184,5901.510552490531
1.6,-1.2497704593294288,5893.196500333038
1.604,-1.2800971024639194,5896.098015718538
1.608,-1.3083955904514204,5906.030552075255
1.612,-1.3321470585329165,5896.162496159236
1.616,-1.3484377610618428,5896.079787543461
1.62,-1.35461987011048,5905.659786597055
1.624,-1.3492895229558866,5905.591521319631
1.628,-1.3331625440387886,5903.254921195283
1.632,-1.3094662365851344,5900.700961514238
1.636,-1.2836163444490554,5900.393790425555
1.64,-1.2621531971368738,5900.415452964198
1.644,-1.251154658127329,5907.421395723943
1.648,-1.2545610643052758,5904.066869996246
1.652,-1.2729387072169935,5898.947279490015
1.656,-1.3030998084034582,5905.236881267352
1.66,-1.3387162353198923,5897.684184005893
1.664,-1.3717779433067832,5908.098263086504
1.668,-1.3946069190236987,5905.845426499198
1.672,-1.402082058997715,5903.8705055632045
1.676,-1.3935950741811278,5902.829606619974
1.68,-1.3740736855606597,5903.072790599916
1.684,-1.3534214089932677,5901.757745950676
1.688,-1.3440802182642002,5893.08705031914
1.692,-1.3569951629372072,5894.537049788018
1.696,-1.396815086269577,5902.244210059239
1.7,-1.4575443212656818,5897.278488653898
1.704,-1.5199729150480545,5896.003881741436
1.708,-1.5520200288959936,5898.605188179197
1.712,-1.5126850338358322,5904.456178273622
1.716,-1.3596576303766281,5896.160431538569
1.72,-1.0596936392607041,5887.367050806895
1.724,-0.5995738399600109,5895.005126680126
1.728,0.005753851942474719,5902.557896917742
1.732,0.7114799013267743,5906.951582314387
1.736,1.449749788938507,5883.949635152508
1.74,2.1438386558001032,5898.270924809231
1.744,2.7252038488966748,5927.624688543216
1.748,3.147630830810894,5940.052577136302
1.752,3.394297632113245,5950.469178515049
1.756,3.4768427496053977,5970.3166371614325
1.76,3.4283163658150935,5992.133349286875
1.764,3.293112905259875,6004.437933943481
1.768,3.116845065125255,6024.876731960436
1.772,2.9383014757887516,6035.787567388174
1.776,2.784598878398497,6055.255430092447
1.78,2.66967075815349,6079.632750047634
1.784,2.595548291740469,6096.147024453908
1.788,2.555527743878483,6102.958828276527
1.792,2.5381409180924948,6121.216236334316
1.796,2.53082934564217,6138.684242972432
1.8,2.5225370299667684,6154.978687413765
1.804,2.5050744898562,6165.968927336678
1.808,2.47367841341811,6181.414834936666
1.812,2.4272829057001286,6191.753947598302
1.816,2.3686502530440903,6205.863597317033
1.82,2.304086418664409,6227.557858328124
