时间(s),电压(V),幅值(高频80K)
0.0,-1.4718033703951077,5890.261310513041
0.004,-1.4766414117576045,5902.585515337981
0.008,-1.4808660203657118,5896.017791803683
0.012,-1.4838544155221336,5901.625543021495
0.016,-1.485278356486735,5903.046608579838
0.02,-1.4852078553011465,5902.068466075933
0.024,-1.4841087209435753,5906.986654748083
0.028,-1.4827378053178075,5901.9296946139775
0.032,-1.4820184623787944,5900.1164290608585
0.036,-1.4829369159667563,5899.213140248143
0.04,-1.4864078640451421,5900.586866085065
0.044,-1.493053196341765,5896.0662176044325
0.048,-1.5029254134266794,5908.1238753279285
0.052,-1.51528306187292,5902.070298888889
0.056,-1.528523647006867,5911.243062261215
0.06,-1.5403114176950319,5889.222229083311
0.064,-1.5478615262648052,5900.540279022102
0.068,-1.5483287306622864,5892.9452184139045
0.072,-1.5392994795251755,5896.869619650324
0.076,-1.5193957678303514,5888.605017173606
0.08,-1.4888900660124436,5904.377907543376
0.084,-1.4501000012221297,5895.618259270143
0.088,-1.4073440078150188,5904.457586238731
0.092,-1.366398614475857,5900.723322983236
0.096,-1.3335604841437718,5898.713274343024
0.1,-1.3145028898622038,5906.484665637024
0.104,-1.3131733040931564,5897.441555410187
0.108,-1.3310290480603952,5896.55050452625
0.112,-1.3668583030212027,5905.318715097385
0.116,-1.4172059026408015,5901.396310888252
0.12,-1.4771448919131247,5898.131748439336
0.124,-1.5410545513134681,5898.738589115329
0.128,-1.6032320280004357,5904.683734901701
0.132,-1.6583670403503128,5905.038991737607
0.136,-1.7019695836917024,5901.198485512739
0.14,-1.73077460660495,5899.117424689816
0.144,-1.7430642290860545,5894.902036343528
0.148,-1.738837811084673,5904.066299776739
0.152,-1.71981310819096,5903.543269985776
0.156,-1.689257602934364,5895.011721412397
0.16,-1.6516057411359275,5890.846758044576
0.164,-1.6118320130490662,5894.672920560067
0.168,-1.5746819558848186,5892.774222195421
0.172,-1.5439791522264965,5903.791600038824
0.176,-1.5221828220333395,5900.4013668237685
0.18,-1.5102457240099099,5893.468240408451
0.184,-1.507771908424606,5903.747689282478
0.188,-1.5134586825254719,5903.63524429496
0.192,-1.525698573651587,5900.539434084829
0.196,-1.5430697054025908,5901.187358445
0.2,-1.5644427497407485,5897.5100407338
0.204,-1.5886520235059058,5887.866461129814
0.208,-1.613987352228396,5906.4693177943045
0.212,-1.6379180210798687,5904.2541614897655
0.216,-1.6572983356502058,5905.63758208875
0.22,-1.668948068390947,5903.921325044133
0.224,-1.6702861724981648,5891.944112798479
0.228,-1.6598045798572283,5905.188364245508
0.232,-1.6374184614806142,5896.882697687997
0.236,-1.604790085823302,5901.338927606858
0.24,-1.5655043755469482,5897.873466650594
0.244,-1.524769166431854,5900.459792668628
0.248,-1.4884765038729202,5900.256207131632
0.252,-1.4619120491891553,5889.12930742439
0.256,-1.4486610964327744,5895.792008279369
0.26,-1.4500793941405319,5894.868304777499
0.264,-1.4653358112095733,5893.597250750394
0.268,-1.4918327162691767,5905.223760039891
0.272,-1.5258001502205858,5891.53464582131
0.276,-1.5629094012802311,5897.656012015526
0.28,-1.5988067724390418,5901.661288717047
0.284,-1.6295410023883738,5897.692890856596
0.288,-1.6519143675261254,5895.95764035332
0.292,-1.6637609351915792,5906.240316470876
0.296,-1.66408081503758,5902.649412818331
0.3,-1.6529778670274153,5895.94722370085
0.304,-1.6314845546110976,5898.464620195186
0.308,-1.6014303271865589,5897.856796627142
0.312,-1.5653901806784378,5901.62362322305
0.316,-1.5265775934359553,5890.524962238426
0.32,-1.4885480234822364,5905.2040743951375
0.324,-1.454756809239612,5897.014647211113
0.328,-1.4281527556232505,5902.125407782606
0.332,-1.4109463175275616,5902.522202174787
0.336,-1.404546284151498,5899.546720026675
0.34,-1.4095424388112878,5888.791298560693
0.344,-1.4255829054885403,5894.017579575014
0.348,-1.451100946246319,5902.778941869664
0.352,-1.483082912061416,5900.016904422451
0.356,-1.5172421097978948,5901.231923300884
0.36,-1.5488112117163473,5907.635220714101
0.364,-1.5737197061915749,5901.454885482036
0.368,-1.5895929011626875,5906.036834320302
0.372,-1.5961384926813404,5901.869774901884
0.376,-1.5949034119174064,5898.133867761325
0.38,-1.5886455048011527,5890.69253934753
0.384,-1.5805501415593042,5892.627662474925
0.388,-1.5734544348921036,5908.277023568191
0.392,-1.569250260887614,5898.651586388323
0.396,-1.5686260779517323,5905.573674882648
0.4,-1.571194638894724,5899.4737610406055
0.404,-1.5758945810967724,5906.235566771053
0.408,-1.581445227520864,5892.799211649799
0.412,-1.586641220697055,5909.429084039586
0.416,-1.5904202840811363,5897.307186234748
0.42,-1.5918397706516427,5899.873239107023
0.424,-1.5901727318877064,5904.322212387925
0.428,-1.5851875679002996,5905.116921523416
0.432,-1.5774296039764393,5900.541990944339
0.436,-1.5682143701779705,5904.627858680658
0.44,-1.5592064662510028,5896.327243770504
0.444,-1.551777509464315,5904.577372456369
0.448,-1.5465203965036207,5902.952550150008
0.452,-1.543180235203606,5902.762021642237
0.456,-1.540975001803595,5908.914328945899
0.46,-1.5390671072552033,5897.318798712524
0.464,-1.5369217113552696,5901.6056039389405
0.468,-1.5343980592776776,5892.352976024225
0.472,-1.5315741670704448,5910.458164869742
0.476,-1.5284408439629602,5898.138694946847
0.48,-1.5246783581261227,5894.693774616435
0.484,-1.5197115396332899,5894.087133003095
0.488,-1.5131019417013472,5904.537925531448
0.492,-1.5051100683850918,5896.161496142348
0.496,-1.4970739114956213,5906.746782568706
0.5,-1.4912624139823076,5899.286744330937
0.504,-1.4901201720659452,5900.163130833584
0.508,-1.4951899542742275,5906.074949820658
0.512,-1.5062522527321258,5896.964472631077
0.516,-1.5211784481799864,5904.817173574636
0.52,-1.5366528826241137,5897.711712788979
0.524,-1.549457611698923,5898.659520166265
0.528,-1.5576987322589646,5907.299319989596
0.532,-1.5613937578015782,5904.211809248144
0.536,-1.5622118413040555,5899.779397110088
0.54,-1.5625965790337402,5898.32885312284
0.544,-1.5647410147600933,5901.673128265449
0.548,-1.5698575841049338,5899.377081983534
0.552,-1.5779747199644558,5901.028466703477
0.556,-1.58822466729718,5898.0067843586985
0.56,-1.5993777438596488,5895.925985655977
0.5640000000000001,-1.6103027906046625,5904.411991793255
0.5680000000000001,-1.6201285311019156,5891.657860929318
0.5720000000000001,-1.62811280143359,5897.344847659802
0.5760000000000001,-1.6334554452258407,5902.082874333135
0.58,-1.6353358398188673,5899.397098499731
0.584,-1.6332629375413226,5900.720485838112
0.588,-1.6275503920710699,5904.255138585972
0.592,-1.6196079103822836,5914.780691579244
0.596,-1.6118573156279143,5903.3194619111855
0.6,-1.6073024311326172,5891.530441103521
0.604,-1.6089161627897535,5898.6553913507205
0.608,-1.618995716628278,5902.721693113047
0.612,-1.6385550009218284,5902.114877414529
0.616,-1.666791306295179,5892.355175812994
0.62,-1.7007471904440825,5898.693031738065
0.624,-1.7354072462578425,5902.342477096331
0.628,-1.7644271488779335,5897.066934933078
0.632,-1.7814122637752643,5900.558911020265
0.636,-1.7813449691934664,5893.4866454207
0.64,-1.76169186422916,5905.161072667902
0.644,-1.7229430143731808,5898.112192362767
0.648,-1.6685872679637408,5898.172710159709
0.652,-1.6045944123772835,5901.111590165975
0.656,-1.5384467048591484,5905.118248451555
0.66,-1.4778412532986551,5902.612306701523
0.664,-1.4293607725650228,5894.697377653813
0.668,-1.3974944132349179,5896.497797640669
0.672,-1.3842674772784698,5895.939174962949
0.676,-1.3894609227797625,5898.805845646732
0.68,-1.4111242643630686,5897.053851402335
0.684,-1.4459940873009982,5902.3917800491145
0.6880000000000001,-1.4896266141735628,5908.739518355215
0.6920000000000001,-1.536413718679942,5887.26538544927
0.6960000000000001,-1.5798668280473585,5902.856284743892
0.7000000000000001,-1.6134202898521566,5902.035017726819
0.704,-1.6316585265749703,5897.789276897351
0.708,-1.6315995991775807,5895.985481588476
0.712,-1.6135901557234968,5910.143469269469
0.716,-1.581428817379391,5902.36852352564
0.72,-1.5415218140819564,5887.714728009952
0.724,-1.5012183006798328,5895.436363869623
0.728,-1.4668746599527458,5903.807295044116
0.732,-1.4423953142011368,5909.095358879874
0.736,-1.428797982438612,5892.713656696369
0.74,-1.4248527668117874,5899.916568237825
0.744,-1.4283528541543231,5904.678778642606
0.748,-1.437341541102682,5900.870387867576
0.752,-1.450725899249487,5904.553641266652
0.756,-1.4680772107541085,5902.121573684687
0.76,-1.4888584449907956,5894.886093290838
0.764,-1.511611975097221,5900.316020920078
0.768,-1.533650109181192,5894.548334238518
0.772,-1.551497933892455,5909.474547583969
0.776,-1.5618902431405473,5894.527483499954
0.78,-1.5628192135538927,5899.661668625311
0.784,-1.5541728754195523,5898.990703887085
0.788,-1.5378010547978918,5900.530570630142
0.792,-1.5171277447884484,5896.29561706785
0.796,-1.496529247390732,5896.292346512093
0.8,-1.4806363334756798,5896.606271478479
0.804,-1.4736168068586137,5897.574079301983
0.808,-1.4784599561755523,5885.14213154137
0.812,-1.4963300364035015,5897.649387779564
0.8160000000000001,-1.5261165716895182,5900.577895113824
0.8200000000000001,-1.564336995642996,5898.7699227148205
0.8240000000000001,-1.6055251446395997,5903.241872490801
0.8280000000000001,-1.6431395724719782,5903.764843914706
0.8320000000000001,-1.6708573484094127,5906.395891274735
0.836,-1.683953324808712,5901.329052213129
0.84,-1.6803723078882602,5898.086122663197
0.844,-1.661134724068941,5897.148097802137
0.848,-1.629914680020449,5900.107338818527
0.852,-1.5919500899034962,5893.401140056749
0.856,-1.5527209249377578,5899.30184154422
0.86,-1.516882555669926,5898.417213552631
0.864,-1.4877441724759035,5900.3365047519455
0.868,-1.467289967958207,5905.178690659839
0.872,-1.456518445667831,5898.526034663852
0.876,-1.455784187432212,5891.793064649191
0.88,-1.4648737045362255,5906.535727702129
0.884,-1.4827502197154439,5894.888145387433
0.888,-1.5072028067306382,5903.657124304049
0.892,-1.5348087814721398,5890.652357922739
0.896,-1.5614575859944042,5899.560191701765
0.9,-1.5832875415524932,5908.703061471003
0.904,-1.5975989948934237,5911.265576184973
0.908,-1.603348616687164,5902.085435992923
0.912,-1.6010905034885219,5896.9207171297685
0.916,-1.5924636311169014,5893.06497116494
0.92,-1.5794340943384086,5892.866231557666
0.924,-1.5635399388011848,5899.9892756048885
0.928,-1.5453858799927742,5888.838804655321
0.932,-1.524563902586074,5903.745873677037
0.936,-1.5000378306325803,5891.462099400917
0.94,-1.4708782024354758,5893.474161752093
0.944,-1.4371093102253187,5892.861525093756
0.948,-1.4003557915128428,5896.816653829861
0.952,-1.3639923184948464,5896.760802857101
0.956,-1.3326427290781937,5902.215932413335
0.96,-1.3111053067448264,5896.230705949799
0.964,-1.3029966395414012,5896.607175741248
0.968,-1.3095321714704071,5894.761320546521
0.972,-1.328869407024727,5896.398964611698
0.976,-1.3563104942796609,5893.581853488518
0.98,-1.3854030257878502,5904.047455956594
0.984,-1.409665017061004,5897.534528046608
0.988,-1.4244029052831966,5905.9407786601805
0.992,-1.4279974755185725,5904.380362906543
0.996,-1.422187211750821,5906.162088651491
1.0,-1.411271675373068,5901.679460838359
1.004,-1.400602663841699,5899.583183962769
1.008,-1.3949679265732868,5895.10088884664
1.012,-1.3974042956365222,5899.013210804991
1.016,-1.4087192568809859,5900.393401533958
1.02,-1.4276944905361828,5903.627417971279
1.024,-1.4516889604463519,5896.739218927114
1.028,-1.4772898865919784,5900.885725602768
1.032,-1.5008424677048002,5905.508706058572
1.036,-1.5189256155922572,5903.317133922189
1.04,-1.5288699259668344,5897.918493533455
1.044,-1.5292565339191777,5898.42638060425
1.048,-1.5202243066643957,5900.308111559392
1.052,-1.503476528425004,5886.643172905065
1.056,-1.482029044872955,5901.8486438231785
1.06,-1.4598102222669955,5895.346115913504
1.064,-1.4411592450763078,5898.804142322231
1.068,-1.4301947567942264,5903.042305409781
1.072,-1.4300613992775757,5899.856621293815
1.076,-1.4421799843333942,5905.473982106563
1.08,-1.4657252942116779,5903.737363088687
1.084,-1.497573586990182,5907.479595307364
1.088,-1.5328627144485976,5901.761138104059
1.092,-1.5660717365897343,5908.402327738448
1.096,-1.592267150232896,5897.227109109294
1.1,-1.6080970022474763,5890.076312415775
1.104,-1.612291528596806,5895.927486311268
1.108,-1.605641793696904,5908.11560409204
1.112,-1.590512056958409,5898.182733375532
1.116,-1.5699879730057535,5892.519135555458
1.12,-1.5468998402402037,5896.735205260588
1.124,-1.5230934949499764,5910.552369690809
1.128,-1.499257796332901,5898.160882174033
1.132,-1.4753525345517353,5893.789104189123
1.136,-1.4513941815687899,5897.507183622465
1.14,-1.4281973730344026,5895.64424410726
1.144,-1.407694019462562,5894.583177320772
1.148,-1.392653969459334,5894.694388666674
1.152,-1.3858881559993923,5900.127491277191
1.156,-1.3891734326586693,5904.37392445323
1.16,-1.4022144056478938,5905.15896532012
1.164,-1.4220365979640863,5897.405817394877
1.168,-1.4431994693198906,5909.3725950806165
1.172,-1.4589873009727137,5900.632526563787
1.176,-1.4633584536575284,5896.377335180672
1.18,-1.4531321263641426,5900.305462438431
1.184,-1.42978272972218,5894.793444306798
1.188,-1.4002676231390478,5886.977412393324
1.192,-1.3764669557989688,5899.272597111396
1.196,-1.3730152167574987,5903.808948155074
1.2,-1.403585569491675,5897.587228725854
1.204,-1.4761341069423317,5897.397323947409
1.208,-1.588136270916824,5892.663320178252
1.212,-1.7231642567376804,5893.708102494583
1.216,-1.8500697281958944,5900.453301568263
1.22,-1.9256041583341665,5900.840712575757
1.224,-1.90066407860114,5892.175053807256
1.228,-1.729557741215474,5896.666615390853
1.232,-1.3807996796009285,5903.859134296884
1.236,-0.8470986750942833,5901.067608734425
1.24,-0.15167697964597357,5898.186497195681
1.244,0.6518186848286599,5904.001214364571
1.248,1.4873272625338023,5893.017572717632
1.252,2.271235853252719,5905.348075884893
1.256,2.929959984467825,5926.582928743725
1.26,3.414580300123233,5936.379064546907
1.264,3.708175713394825,5966.780950244371
1.268,3.8246739851053735,5977.154313730572
1.272,3.80101211292472,5988.124305318735
1.276,3.6859041041496527,6004.486477173939
1.28,3.528558894457579,6021.870421156027
1.284,3.369824695783259,6034.056457291293
1.288,3.2370119401245043,6045.981410694235
1.292,3.1425110079924514,6065.571337926466
1.296,3.0855603719107423,6089.490710642011
1.3,3.056163188885929,6096.979386083385
1.304,3.040016850436732,6103.434573215565
1.308,3.0232796183722077,6120.705530859986
1.312,2.9961129118189462,6138.815759903024
1.316,2.954319704074291,6148.404202006649
1.32,2.899005110663027,6158.075647293023
1.324,2.8347902144829003,6168.37060220424
1.328,2.767467047607923,6189.122108986223
1.332,2.7019795939411133,6192.236119873314
1.336,2.641297095135285,6204.386995312684
1.34,2.586269291772057,6217.3462705493685
1.344,2.5361554108691604,6228.867755023566
1.348,2.4893922641216584,6237.954528476978
1.352,2.4442980837964003,6256.373226429864
1.356,2.399604725429192,6256.228895961231
1.36,2.354794908377586,6274.022224809004
1.364,2.3101852137268812,6288.672105625395
1.368,2.266693479834621,6288.125318471964
1.372,2.225377455425989,6308.149799096932
1.376,2.187001938954579,6305.36414136285
1.38,2.1518502011140606,6318.393678129289
1.384,2.119756241287502,6336.78344294639
1.388,2.0901718215418885,6332.012627158217
1.392,2.062167507232142,6357.39551549445
1.396,2.034462917911385,6358.404883275641
1.4,2.005643185138039,6363.932666543013
1.404,1.9745784086178324,6376.707443672406
1.408,1.940859261212126,6382.1483881671165
1.412,1.9049841919803256,6389.620425689185
1.416,1.8681615551943338,6399.542593040655
1.42,1.8318085053461177,6400.716347134136
1.424,1.796955209066889,6412.558783371862
1.428,1.76377582417561,6419.174896080914
1.432,1.7314577506798372,6427.780028740437
1.436,1.698562735826135,6436.479703727333
1.44,1.6638261855821443,6435.911734377678
1.444,1.6270506967222729,6446.585856408316
1.448,1.5896095146057185,6448.620398444995
1.452,1.5542256888905455,6463.081187952628
1.456,1.5240482179965609,6465.69673232502
1.46,1.5014027872440716,6472.8988540474975
1.464,1.486766569353498,6478.21067317813
1.468,1.4784240387860794,6485.145446054341
1.472,1.4729641759188263,6490.179854883802
1.476,1.4664273117970843,6493.036808029636
1.48,1.4556532575863954,6491.589092954645
1.484,1.4393166362221064,6507.122135141326
1.488,1.4182663761350216,6511.887457017086
1.492,1.395056131761739,6517.120592091286
1.496,1.3728771302028508,6526.97792636884
1.5,1.3543513227399964,6524.685084589933
1.504,1.3406720631973852,6524.9581660124495
1.508,1.3313864443372199,6539.082780134567
1.512,1.3248280244758157,6543.633258055157
1.516,1.318960999692634,6544.412158347374
1.52,1.3122645236489747,6546.73353408241
1.524,1.3043082070078522,6549.588574507566
1.528,1.2958140472121613,6562.0833770831005
1.532,1.2881749271572516,6561.24633449782
1.536,1.2825692787910263,6570.004366342058
1.54,1.2789952863263698,6568.310607422581
1.544,1.2756712670671988,6574.387813513608
1.548,1.2691704971578017,6583.868352179754
1.552,1.2553736700704399,6577.016374078903
1.556,1.2309561968072285,6585.349179378872
1.56,1.194819007623224,6591.921353744949
1.564,1.1488023171006427,6600.833594539035
1.568,1.0973375087791881,6605.968616598766
1.572,1.0462391415051742,6600.650696976689
1.576,1.001206765368104,6609.080486818957
1.58,0.9665581156357848,6614.456768794833
1.584,0.9444197990110236,6615.21989503517
1.588,0.9343756634207008,6611.126952211303
1.592,0.9335434171830679,6616.241914773312
1.596,0.9371070524148424,6629.968503743723
1.6,0.9392969784279136,6626.752083619758
1.604,0.9346399190986626,6618.405041827679
1.608,0.9191613672884787,6634.819684981079
1.612,0.8912637150136485,6633.27658819853
1.616,0.8521396964592305,6642.367725917496
1.62,0.8056615849531494,6643.906799998543
1.624,0.7577230427434196,6641.453707868056
1.628,0.7150848418702144,6644.548864168957
1.632,0.6838983032087131,6645.134017225392
1.636,0.6682274950446395,6646.650287108357
1.64,0.6690063956544156,6646.265463485835
1.644,0.6838239662441817,6653.075481889351
1.648,0.7076524076465665,6656.215199366656
1.652,0.7342431974207705,6666.216096846196
1.656,0.7576641278682933,6662.449899969339
1.66,0.7734897203817729,6670.270105145743
1.664,0.7793975648482324,6668.919668004788
1.668,0.7751548236338099,6664.644385988653
1.672,0.7621091239474757,6672.130689395202
1.676,0.7423928513281083,6678.466738127669
1.68,0.7181475569409466,6676.654619379435
1.684,0.6910770761396422,6677.15214084857
1.688,0.6624633045970728,6681.627297764491
1.692,0.6335223724648135,6682.312217897211
1.696,0.605816529586078,6687.246558750989
1.7,0.5814501105467516,6692.792381286796
1.704,0.562923862528007,6685.309535542336
1.708,0.5526972015094721,6689.64199769489
1.712,0.5526301786601602,6686.960374054384
1.716,0.5635268544691935,6693.473643514003
1.72,0.5849589942939962,6706.739006846934
1.724,0.6153774652148776,6696.992595897984
1.728,0.6523131138210271,6705.220630682091
1.732,0.692449679717673,6693.471020449087
1.736,0.7315818820217456,6703.766517702363
1.74,0.7647357933090613,6700.870601799318
1.744,0.7867569651574572,6701.875932166435
1.748,0.7933925049415892,6708.2451111786095
1.752,0.7824946221093938,6713.894260288873
1.756,0.7547720535771592,6704.225364994501
1.76,0.7136930659631043,6708.106340963242
1.764,0.6645901777171723,6705.023357839202
1.768,0.6134253141260163,6714.215316628519
1.772,0.5657536682839823,6713.080262359657
1.776,0.5261344058049456,6711.755094941223
1.78,0.4978622051924332,6718.4277422635005
1.784,0.4827660996685309,6717.882032010077
1.788,0.4809725577539996,6727.511479903701
1.792,0.49073924351614356,6716.287621785906
1.796,0.5085561894515568,6719.490720511266
1.8,0.5296480883495122,6722.006442240292
1.804,0.5488415163458279,6721.566571562173
1.808,0.5615972864123131,6723.62474276287
1.812,0.5649663489502982,6728.592836660599
1.816,0.5582817304189712,6728.296679136304
1.82,0.543438756328343,6724.944784999363
1.824,0.5246354449560449,6736.037612505894
1.828,0.5075177842741102,6731.463060259363
