时间(s),电压(V),幅值(高频80K)
0.0,-1.317507597874328,5894.952390685224
0.004,-1.4153907930551026,5901.283749090478
0.008,-1.503026819187719,5894.473539534495
0.012,-1.57229962876956,5901.087512203548
0.016,-1.6190370070745537,5898.572297771183
0.02,-1.6436555819213916,5891.534839816916
0.024,-1.6505275607980303,5896.041160175392
0.028,-1.6462845095450223,5901.569991153997
0.032,-1.6377084767571182,5906.834432629237
0.036,-1.6299550328446437,5900.399883721781
0.04,-1.6256233709992258,5899.091438690679
0.044,-1.6248144267101887,5899.740893963673
0.048,-1.6259557299004253,5907.407430919591
0.052,-1.6269576739639766,5900.373649096739
0.056,-1.6262672291582458,5902.4122308779615
0.06,-1.6235233151912918,5899.67542263241
0.064,-1.6196830584513817,5902.61547621235
0.068,-1.616662039443526,5892.728278827297
0.072,-1.6166904949598673,5904.642159338712
0.076,-1.621625613489104,5906.0057072802965
0.08,-1.6323533776628125,5901.345897616458
0.084,-1.6483203972000335,5900.807364509335
0.088,-1.6672916095968702,5901.210569601114
0.092,-1.6855314242621022,5903.158363324037
0.096,-1.6985308201661262,5908.657268795005
0.1,-1.7021168505194275,5902.839442135953
0.104,-1.69353404361075,5899.953291330564
0.108,-1.6721306266157387,5892.249542418187
0.112,-1.6395528754994486,5896.665157581984
0.116,-1.5995549001046396,5899.456169354854
0.12,-1.5575148421649516,5900.200433349757
0.124,-1.5196423787973408,5905.101403968884
0.128,-1.4918616859589624,5900.653115002326
0.132,-1.4784927674307076,5890.425805891223
0.136,-1.481025830874588,5895.363303829741
0.14,-1.4973830729239812,5901.7611370335935
0.144,-1.5220425666598456,5902.085997555919
0.148,-1.5472184142771324,5901.039513322681
0.152,-1.564920500708869,5898.618507346399
0.156,-1.569271511198557,5904.844798758963
0.16,-1.5582248983353708,5888.621603005588
0.164,-1.5340227991557818,5900.618179113986
0.168,-1.5022737093033076,5897.794545984423
0.172,-1.4701027606557764,5897.028362923163
0.176,-1.4441315559445074,5903.0125379201645
0.18,-1.4289593549225212,5896.7802339991895
0.184,-1.4264619433310217,5904.64122235845
0.188,-1.4358619497051506,5892.855467517185
0.192,-1.4543343488010927,5899.745563347013
0.196,-1.4778856902262192,5902.111187996963
0.2,-1.5022940323287102,5904.9159237683525
0.204,-1.5239465753374328,5899.652951238552
0.208,-1.5404468406580467,5897.414441614421
0.212,-1.5509148052876096,5891.976377799453
0.216,-1.5559687372919617,5902.943168498816
0.22,-1.5574071638098108,5902.476850592245
0.224,-1.557625865822458,5893.483846267239
0.228,-1.5588831062072437,5900.859218786837
0.232,-1.5626301325711094,5905.9361534061945
0.236,-1.5691202008509437,5904.297166427129
0.24,-1.57736568836945,5907.657449968542
0.244,-1.5853685793116101,5901.952572852514
0.248,-1.590533705169455,5902.750726795172
0.252,-1.5902233021636742,5898.253357594943
0.256,-1.5823862846744743,5905.569164454629
0.26,-1.5661109818533223,5901.416688493926
0.264,-1.5419353878735242,5911.289394909924
0.268,-1.5118469071273168,5897.524027492952
0.272,-1.4790262207743199,5894.731866172059
0.276,-1.4474284495703649,5898.496880745491
0.28,-1.4212401285723588,5903.1627300716
0.284,-1.404213069834042,5909.0027866220125
0.288,-1.3989437929335125,5900.828757374079
0.292,-1.4062756814643131,5901.752412741363
0.296,-1.4250245774321424,5897.371527931655
0.3,-1.4521435659575959,5907.05453779705
0.304,-1.4833223534862987,5897.779259799663
0.308,-1.5139145854004883,5901.026177163784
0.312,-1.5399916622968781,5896.346624342058
0.316,-1.5592173495358894,5894.956282938044
0.32,-1.5711956548668424,5893.54831975415
0.324,-1.5771156290713324,5895.229735103907
0.328,-1.578903489547729,5906.743503036997
0.332,-1.5783938213384046,5895.145378875446
0.336,-1.5769530315219644,5892.536419569404
0.34,-1.5756255713297596,5899.570487483593
0.344,-1.575538461149547,5896.141031325963
0.348,-1.5781518937970862,5901.7433388184845
0.352,-1.5850168384248824,5894.824129596387
0.356,-1.5970017489664095,5898.032332304293
0.36,-1.613335548714976,5899.130661263604
0.364,-1.6310245899364633,5900.332203824859
0.368,-1.645113746990602,5903.648221165841
0.372,-1.6499310975770947,5907.853635874713
0.376,-1.6409989019554456,5903.197637796595
0.38,-1.616896206445856,5901.1698549170105
0.384,-1.580266210337986,5900.678860475246
0.388,-1.5374904007414767,5899.139235284006
0.392,-1.497130060563457,5897.581974491867
0.396,-1.46772536033541,5902.555860904114
0.4,-1.455706607560861,5900.338736597144
0.404,-1.4640025971659683,5893.940621558338
0.408,-1.491583436466836,5900.233139551969
0.412,-1.5338594117174065,5898.063179323417
0.416,-1.5837120775336466,5894.15163053318
0.42,-1.6329209122812678,5903.925031390263
0.424,-1.6737319090299807,5894.055558217331
0.428,-1.7002744865958792,5891.874360452635
0.432,-1.7095607980033845,5899.993286699382
0.436,-1.7018894146546533,5914.4572981776055
0.44,-1.6805659839223934,5897.597626845341
0.444,-1.6510018727641318,5903.558179244314
0.448,-1.6194635484059563,5904.854885023188
0.452,-1.5918430275891315,5900.334549598042
0.456,-1.5727030267795472,5888.884258735193
0.46,-1.5646647788795418,5894.938439290788
0.464,-1.5681220087849348,5897.095834014576
0.468,-1.5812816481164742,5896.396920313007
0.472,-1.6005508213197213,5899.77561381357
0.476,-1.621251671512467,5890.504703867455
0.48,-1.6385759530821937,5902.981051147569
0.484,-1.6486271474648124,5899.9645044564495
0.488,-1.6493267392059008,5901.631673950445
0.492,-1.640899927247279,5900.677445386058
0.496,-1.6257140745788954,5900.301302597089
0.5,-1.6074876542607641,5901.015039843049
0.504,-1.5901932055415298,5908.447899265228
0.508,-1.5771042283354566,5903.110016898142
0.512,-1.5702631994152099,5901.056171107192
0.516,-1.5703295322079067,5902.437819210057
0.52,-1.5765975846066873,5901.270235573292
0.524,-1.5870743704113213,5890.749353425187
0.528,-1.5987029800761012,5896.1163684652975
0.532,-1.6078761136622002,5904.504556777341
0.536,-1.6112481603360609,5895.349256399707
0.54,-1.6066463072924166,5895.10188155466
0.544,-1.5937587180354114,5898.518348039441
0.548,-1.5743258955697825,5903.197537480969
0.552,-1.5517591140075488,5894.508636970208
0.556,-1.5303292029841766,5904.499056267202
0.56,-1.5141559751802474,5898.751806244125
0.5640000000000001,-1.5061824366784178,5897.350791978926
0.5680000000000001,-1.507303364599726,5891.771582350853
0.5720000000000001,-1.5158982514544797,5900.716518699193
0.5760000000000001,-1.5280363506160495,5898.932461277515
0.58,-1.5384443034604118,5895.874566710815
0.584,-1.5420264834189665,5893.800249310933
0.588,-1.5354582997679578,5903.0681898181765
0.592,-1.5182534075953147,5892.499941344918
0.596,-1.4928390026555598,5907.747890204943
0.6,-1.4635794034923832,5888.180291814106
0.604,-1.435184497105567,5902.150690715433
0.608,-1.4112153293153529,5902.767101604274
0.612,-1.393277676164662,5898.2464499342805
0.616,-1.3810930088212012,5900.886305091009
0.62,-1.3732438313946755,5910.996216564689
0.624,-1.3682010151612942,5901.504404187682
0.628,-1.365237268547582,5896.468891044378
0.632,-1.364914980916514,5903.041663084946
0.636,-1.3689739495769415,5902.588026341548
0.64,-1.3796404197984296,5901.798758384694
0.644,-1.3985929476485717,5901.207207922732
0.648,-1.4259645151530398,5902.842625294962
0.652,-1.4597629196834805,5896.1048982855455
0.656,-1.4959478869372218,5906.222462737435
0.66,-1.5291794013930358,5898.279273203352
0.664,-1.5540451116346112,5893.703529625512
0.668,-1.5664444847812078,5895.522407679976
0.672,-1.564745556324722,5905.088145799325
0.676,-1.5503342254471382,5896.425143554857
0.68,-1.5273111323989337,5894.579585700444
0.684,-1.5013923411572372,5902.822854156791
0.6880000000000001,-1.4784108842992212,5901.124038733958
0.6920000000000001,-1.4629844503585303,5907.581306392559
0.6960000000000001,-1.4578065718777549,5900.464248394223
0.7000000000000001,-1.463692018083587,5898.002418416154
0.704,-1.48011758793295,5899.756610880322
0.708,-1.5057583550288804,5899.9310574597885
0.712,-1.5386026679508076,5898.480677439473
0.716,-1.5756187839868585,5889.386544633601
0.72,-1.6123790765740045,5903.04958294031
0.724,-1.643196189047591,5900.955712704769
0.728,-1.6620764354135986,5896.830916188553
0.732,-1.6643341222837642,5893.404254311268
0.736,-1.6483137967258379,5896.7597894418
0.74,-1.6165074412476026,5890.273660233068
0.744,-1.5754983258693447,5898.930148142244
0.748,-1.5345891102499738,5902.8855061309605
0.752,-1.5034983682278316,5905.491754421644
0.756,-1.4898630911072386,5908.353225292374
0.76,-1.4973082250831529,5899.29264244402
0.764,-1.5245943623926788,5913.115755692502
0.768,-1.5659983841732765,5895.820938525126
0.772,-1.6127645509250161,5895.320789984745
0.776,-1.6552471997116802,5903.093365198287
0.78,-1.6852286415701414,5898.151476517832
0.784,-1.6978179740462862,5896.5299242805895
0.788,-1.6924024934400612,5907.780645640362
0.792,-1.672414038861962,5903.077039271002
0.796,-1.644062799885783,5889.817275420979
0.8,-1.6144661560877327,5904.734380862211
0.804,-1.589731148440596,5900.598015502194
0.808,-1.5735807350610147,5898.13599672084
0.812,-1.5669305573545405,5895.03258958686
0.8160000000000001,-1.5683839801147528,5904.024037121639
0.8200000000000001,-1.5752183509234836,5888.841350833387
0.8240000000000001,-1.5843890174032518,5900.247129647636
0.8280000000000001,-1.5932870632248917,5893.108297678584
0.8320000000000001,-1.6001744562920222,5904.690723544781
0.836,-1.6043053744103601,5903.59178726413
0.84,-1.6057930135791958,5896.992885944317
0.844,-1.6053122049380542,5900.675357805705
0.848,-1.6037239838460438,5902.054771112271
0.852,-1.6016977181934609,5891.096467853272
0.856,-1.5994183317306356,5899.473756676214
0.86,-1.596482655772175,5894.747281473429
0.864,-1.5920618672833509,5894.734669128176
0.868,-1.5853033981412588,5900.183312061601
0.872,-1.5758065415591653,5895.703235551293
0.876,-1.5639371723792395,5903.929850054455
0.88,-1.5508076607129964,5906.879903473149
0.884,-1.5378976984682269,5900.709360445116
0.888,-1.5264634311095524,5892.479863615918
0.892,-1.51700950189528,5899.662080458548
0.896,-1.5090902756554196,5900.591782665307
0.9,-1.5015377159297765,5886.366875175132
0.904,-1.4930075518485895,5899.530710727688
0.908,-1.482627953066891,5898.167849432694
0.912,-1.4705260654053653,5896.737211390565
0.916,-1.4580465568363525,5897.457771428411
0.92,-1.4475627511143585,5898.762420481181
0.924,-1.4419008018306767,5906.941679550936
0.928,-1.4435051939581598,5899.800417364006
0.932,-1.4535744174920435,5903.332393006912
0.936,-1.4714867511261067,5901.507860030346
0.94,-1.494801065455851,5911.674631482989
0.944,-1.5198649338846308,5905.280934837388
0.948,-1.5427490981604024,5903.792125241618
0.952,-1.5601304353214782,5899.631968796833
0.956,-1.5698977740171667,5902.030391337007
0.96,-1.5714304374155579,5903.972215469945
0.964,-1.5655608884722063,5892.50633537282
0.968,-1.5542504256332177,5897.727351121677
0.972,-1.540059902558156,5906.353396927569
0.976,-1.525562612451595,5903.677430624174
0.98,-1.5128580426985796,5880.2132423504
0.984,-1.5032843730600707,5903.743444075414
0.988,-1.4973532778576404,5912.1060403521005
0.992,-1.4948897303613373,5903.894046005973
0.996,-1.4953144947151924,5901.796530466243
1.0,-1.497940258117775,5894.995876248912
1.004,-1.5021460032245169,5901.670407916678
1.008,-1.5073950347233225,5896.868776352292
1.012,-1.5131778483892209,5893.784688799906
1.016,-1.5189904388188131,5897.558812207544
1.02,-1.5244097359198485,5896.379019860431
1.024,-1.5292538651030978,5885.048699898113
1.028,-1.5337514156066265,5894.889972567459
1.032,-1.5386178811528914,5906.192711806467
1.036,-1.5449615575794535,5903.883054101874
1.04,-1.554006284322373,5897.516710673258
1.044,-1.5666919461231337,5900.16148411953
1.048,-1.5832576450801032,5895.876412176164
1.052,-1.6029322635409369,5912.017755766784
1.056,-1.623871461003765,5909.855640133291
1.06,-1.6434414472976493,5896.39875615424
1.064,-1.658810675566496,5908.015523110527
1.068,-1.6676551518415978,5898.147572323175
1.072,-1.668743190578631,5902.124273383153
1.076,-1.6622232859058363,5903.839616973833
1.08,-1.6494965724197743,5902.798534552263
1.084,-1.632654482090713,5897.144267809281
1.088,-1.6136880502747502,5905.352861409909
1.092,-1.5938830223793647,5905.675750826777
1.096,-1.5737258954056663,5911.110241393111
1.1,-1.5532624718443226,5906.836055573803
1.104,-1.5325432192252417,5899.495373151347
1.108,-1.5118595935261343,5903.514100244014
1.112,-1.491790592934153,5909.627669412675
1.116,-1.4732641841210454,5890.706896186301
1.12,-1.4577151422398937,5897.4589096006175
1.124,-1.4471622989323474,5900.109611054824
1.128,-1.4439320227405665,5889.676903153952
1.132,-1.4499428267621637,5896.034203892517
1.136,-1.4658018152194439,5896.665750847692
1.14,-1.49018693151118,5904.930704550881
1.144,-1.5199106656938515,5896.439333836293
1.148,-1.5507046201433055,5897.35801040169
1.152,-1.5783655163766452,5897.291054349431
1.156,-1.5997403743701357,5894.932427739199
1.16,-1.6132042381523637,5899.499258999612
1.164,-1.6186340957256256,5899.935288750511
1.168,-1.6171121618967734,5907.053418488292
1.172,-1.6105489498572523,5907.657035468425
1.176,-1.601250580134186,5896.271966047194
1.18,-1.5914304704686577,5892.630349033776
1.184,-1.5827984054272126,5903.546585665645
1.188,-1.5763924933036082,5889.947588754497
1.192,-1.572643919671583,5904.635695253436
1.196,-1.5715161631929515,5905.989231370393
1.2,-1.5726366511748031,5900.142485180651
1.204,-1.575492968287063,5899.678217128924
1.208,-1.5797504178031223,5899.466698342389
1.212,-1.585552727630948,5897.527376652231
1.216,-1.593503011165408,5906.700070198831
1.22,-1.6041058738212362,5895.959774808031
1.224,-1.6168136709183403,5901.751639298711
1.228,-1.629203964386594,5892.528820043546
1.232,-1.6368790007691627,5903.043408202925
1.236,-1.6343599920122789,5896.417825290901
1.24,-1.6167888173962617,5898.074866318741
1.244,-1.5819038067134978,5895.512031036403
1.248,-1.5316546497592374,5906.727715652211
1.252,-1.472949460729519,5904.421173130892
1.256,-1.4172265819329,5891.697236014443
1.26,-1.3786861278695033,5904.5523389298505
1.264,-1.3711770134600358,5893.39448475201
1.268,-1.4040582184411203,5906.883500855982
1.272,-1.477800698208457,5894.947181538603
1.276,-1.5804499003129258,5899.05570412438
1.28,-1.6861270634031398,5898.123526144525
1.284,-1.7564825469539904,5901.400644765519
1.288,-1.7455618564525857,5902.433050175238
1.292,-1.6079831946737353,5891.472543500417
1.296,-1.3095011889350618,5904.432491805955
1.3,-0.837841109364861,5890.300199773699
1.304,-0.2105371452957408,5901.904242142024
1.308,0.5237377905687158,5899.5185082138005
1.312,1.2924319931459278,5886.175448348668
1.316,2.013946466324139,5902.251453574996
1.32,2.615604703925977,5917.130961227264
1.324,3.0487792944378276,5925.018892056324
1.328,3.2966131913577086,5940.121733645093
1.332,3.373052108166942,5960.753470515386
1.336,3.31498751355152,5972.021364307371
1.34,3.1709517298281833,5970.749624037858
1.344,2.9898743459004002,6000.961001474155
1.348,2.8123864923751785,6007.962827740933
1.352,2.665779921586803,6020.263390617586
1.356,2.5626266249290315,6026.71115561691
1.36,2.5024576921144512,6047.590372418341
1.364,2.475609460242328,6050.946090588031
1.368,2.468150399931276,6056.6655617722845
1.372,2.4666966360788325,6076.896804872447
1.376,2.4620207089487884,6094.327115652557
1.38,2.450696032526641,6078.690424857635
1.384,2.4345479379330124,6099.206619151356
1.388,2.418311979202773,6114.910595792694
1.392,2.4064640452641495,6112.8966302213175
1.396,2.400444038797665,6126.034912370042
1.4,2.3973007481667374,6134.181643903996
1.404,2.3902266723029966,6149.28167278192
1.408,2.3707564288721996,6157.166830684468
1.412,2.3318018376743153,6161.584176911816
1.416,2.2704022847213605,6164.448293602811
1.42,2.1892093985643384,6189.387398425314
1.424,2.0962056256723436,6190.624841477355
1.428,2.002722450653244,6197.671533975928
1.432,1.9203193380981944,6205.007597406126
1.436,1.8574773932659832,6206.98856822355
1.44,1.817218661398804,6222.805605196676
1.444,1.7964726445396422,6231.060114969036
1.448,1.787326380738285,6230.158553884726
1.452,1.779600592749501,6237.38465491742
1.456,1.7638495008231003,6245.872981354703
1.46,1.733919408359705,6253.006740692554
1.464,1.6884468598262534,6263.987924736542
1.468,1.6310027599638968,6267.50549338686
1.472,1.5689530390426822,6274.188102350613
1.476,1.5114341339257524,6273.226510171863
1.48,1.4670103327630992,6295.22124271669
1.484,1.441557401382096,6288.928089763385
1.488,1.4368076678986024,6293.247444890503
1.492,1.449882358254846,6300.5002851963545
1.496,1.4739760718762935,6317.661437455674
1.5,1.500072524650794,6303.540296650241
1.504,1.5192273946150754,6309.02297676044
1.508,1.5247288907776502,6324.954375956585
1.512,1.5134772247430142,6322.5783187463885
1.516,1.486221854938507,6343.061515455914
1.52,1.4467223003576357,6339.214499629579
1.524,1.4002352469170227,6345.925320477795
1.528,1.3518622221530663,6353.056813863246
1.532,1.30527723194308,6354.349240095429
1.536,1.2622387073732153,6353.571388186658
1.54,1.223009272712017,6363.100167153665
1.544,1.1873919499033838,6364.098742604328
1.548,1.1557904660767524,6375.792858803123
1.552,1.1297277010532996,6375.131627241178
1.556,1.1115623597643491,6381.750414900144
1.56,1.1035404259145263,6389.186728381716
1.564,1.1066387503874058,6390.659054100901
1.568,1.1197536738871028,6385.98416581822
1.572,1.1395824377250803,6404.206268856416
1.576,1.161177247776701,6398.3514398446505
1.58,1.178896627896454,6405.317091029239
1.584,1.1874693867888158,6400.358357986437
1.588,1.1829870754140404,6412.117528964936
1.592,1.1636654632148935,6413.192093931806
1.596,1.1301986111947635,6418.839588106763
1.6,1.0856168823297556,6423.219666799912
1.604,1.0347233660988937,6430.907089833224
1.608,0.9832772309705877,6429.421331411042
1.612,0.9371032263687398,6429.736880598764
1.616,0.9012970396696924,6434.427962600382
1.62,0.8796492473936314,6426.19960900282
1.624,0.8743086354713405,6448.230852820459
1.628,0.885613222868294,6432.79825969066
1.632,0.911991631686213,6441.098903788527
1.636,0.9498883905501305,6435.895761356373
1.64,0.9937912322221948,6454.586776320328
1.644,1.0365731702733916,6459.1293770960565
1.648,1.070361193469554,6451.501076864852
1.652,1.0879305937760597,6460.401084308988
1.656,1.0843237714989264,6461.273473580239
1.66,1.0582035750380325,6460.685162784565
1.664,1.0124552601545378,6463.309163802199
1.668,0.9537310052742285,6464.473934919287
1.672,0.8909581212730205,6471.513654464761
1.676,0.83322309343249,6481.302293727187
1.68,0.7877170945839305,6483.782230520551
1.684,0.7584030515704953,6472.734622342321
1.688,0.7457190960001097,6475.706618288464
1.692,0.7471817990409367,6475.748898848686
1.696,0.7584932369746092,6482.959765769848
1.7,0.7747821311176348,6482.039527224119
1.704,0.7917405401728179,6491.0752550087145
1.708,0.8064672469875661,6491.90965071778
1.712,0.8178202486087807,6490.792801837316
1.716,0.8261463445936966,6492.182779403696
1.72,0.8324566706824901,6497.656450624546
1.724,0.8373903924146626,6487.776107664631
1.728,0.8404918621990792,6508.319475260631
1.732,0.8402435002326941,6509.004769865707
1.736,0.8349053755256849,6507.986718571076
1.74,0.8237032860353499,6512.450500748338
1.744,0.8076321115388428,6503.731329602555
1.748,0.7893362415600529,6501.13150970133
1.752,0.7720752715566915,6507.7983003988165
1.756,0.7583083637970789,6521.020376508564
1.76,0.7486171825755773,6514.76396544016
1.764,0.7414795668574222,6509.644742203209
1.768,0.7339887294961414,6519.906407854756
1.772,0.7232084186159867,6519.133521059383
1.776,0.7075877488074791,6522.128832278347
1.78,0.6878110217309512,6519.6437015979245
1.784,0.6666862794955701,6521.020406404188
1.788,0.6481143058153152,6520.091902902496
1.792,0.6356049913668701,6521.160160643283
1.796,0.6309886881903431,6525.97202881217
1.8,0.6338392602845064,6523.090553814651
1.804,0.6417866085841151,6526.005529976425
1.808,0.6515089587337338,6520.698310751783
1.812,0.6599215752518367,6523.907880165147
1.816,0.665049556223767,6531.131551497652
1.82,0.6662887811387923,6534.733576728654
1.824,0.6640729715919674,6533.558292421165
1.828,0.6592114057416065,6529.029454342961
