时间(s),电压(V),幅值(高频80K)
0.0,-1.465352915318135,5900.64378642765
0.004,-1.4311159312229822,5901.780484952952
0.008,-1.4036757593423244,5904.7699564560935
0.012,-1.387410207687687,5895.315831480221
0.016,-1.383403731792665,5893.748962668456
0.02,-1.3896343544581051,5892.694804089073
0.024,-1.4019332166853617,5901.338518009026
0.028,-1.4151650192030196,5892.914683722118
0.032,-1.42441738148257,5906.094298347138
0.036,-1.426146710293202,5899.746840349965
0.04,-1.4190409673696074,5902.537341766686
0.044,-1.4042344192706886,5890.472356110024
0.048,-1.3847595344767598,5900.008597247002
0.052,-1.3645114396532916,5906.772940079917
0.056,-1.34712919429678,5898.5571803827725
0.06,-1.3350716055305012,5902.1335564906
0.064,-1.3290742985344002,5902.88348246389
0.068,-1.328171363349468,5896.834837521678
0.072,-1.3303346771253863,5897.715119405709
0.076,-1.3334644580350763,5897.415323018035
0.08,-1.336210628534383,5900.657357016621
0.084,-1.3382157531509589,5892.451522378843
0.088,-1.3398095617764596,5890.579857003215
0.092,-1.3415392110228184,5892.962765358328
0.096,-1.3438660742094386,5898.609998820099
0.1,-1.347057829096622,5901.674344946635
0.104,-1.351134094415321,5901.535972374168
0.108,-1.3558069793286807,5895.146688919106
0.112,-1.3605162754142417,5900.152047308059
0.116,-1.3646866680272955,5902.138549959563
0.12,-1.3681745302838815,5902.966422020164
0.124,-1.3716374195447787,5915.754428723863
0.128,-1.3764712016974614,5903.699679249015
0.132,-1.3841642005921233,5903.640232956005
0.136,-1.3952989954146904,5906.14500447437
0.14,-1.4086996642772982,5890.580572969432
0.144,-1.4211939673294491,5905.099786416407
0.148,-1.4281885484418997,5889.386030936287
0.152,-1.4249217050320715,5901.846747451748
0.156,-1.4080058203320518,5909.560563606494
0.16,-1.3767465581311338,5904.516437091744
0.164,-1.3337624135686361,5905.8241628280975
0.168,-1.2846585153570673,5897.252625238821
0.172,-1.2368509219083585,5897.333732691453
0.176,-1.1979222410807235,5904.238147631256
0.18,-1.1739967637241553,5899.086493878766
0.184,-1.1685297458082664,5894.504460317695
0.188,-1.1816925018969333,5897.369797171134
0.192,-1.2103610847634434,5898.918274966509
0.196,-1.2486663143334753,5899.210335727762
0.2,-1.2890642031156643,5900.620950279388
0.204,-1.323828780059344,5904.917202960703
0.208,-1.3467284839580305,5893.53783259857
0.212,-1.3544736080014885,5900.573151547965
0.216,-1.3474270943312583,5900.819092248086
0.22,-1.329219335415073,5900.414126972846
0.224,-1.305365506728636,5909.807578521027
0.228,-1.2815036190182927,5898.111365676487
0.232,-1.262011087738433,5896.045602518821
0.236,-1.249380000653865,5904.180035571511
0.24,-1.2442356470247973,5896.5040648666045
0.244,-1.2457301070751443,5897.7454319427
0.248,-1.2521897417458545,5892.941558220505
0.252,-1.2619490025448001,5896.828538202867
0.256,-1.2741176134666161,5901.66982808753
0.26,-1.2888791159881898,5897.772472697106
0.264,-1.3070925666460709,5898.785600794347
0.268,-1.3293916939559904,5904.231452228576
0.272,-1.3553181578527604,5897.169222680614
0.276,-1.383038293691667,5894.844202160311
0.28,-1.4098631412600586,5903.033434564169
0.284,-1.433315296734324,5912.150998072955
0.288,-1.452158213951286,5898.8047808697465
0.292,-1.466825548431563,5898.570059955988
0.296,-1.4790217887456545,5910.421085267517
0.3,-1.4906929159155697,5905.862074945989
0.304,-1.5028682225897894,5896.773891826895
0.308,-1.5149467798379241,5903.356335391009
0.312,-1.524829627518372,5901.090696238299
0.316,-1.529884185937238,5901.941812137046
0.32,-1.5281978834182641,5905.349641463937
0.324,-1.5193297641349994,5898.201809363402
0.328,-1.5041327803311562,5890.49670872059
0.332,-1.4839445090810943,5897.052189970698
0.336,-1.4598919944240782,5909.935193321829
0.34,-1.4328830134028772,5900.8212173113625
0.344,-1.4042539762349806,5901.308357793329
0.348,-1.3764922337044647,5899.913910920855
0.352,-1.3533535765282454,5902.449774872752
0.356,-1.339078388823053,5897.548177620492
0.36,-1.3369366667649762,5899.409437880762
0.364,-1.3477015079087566,5891.507995647669
0.368,-1.3687823338395106,5896.189918328568
0.372,-1.3945738349713979,5897.626668626791
0.376,-1.4180367016924957,5907.838210065013
0.38,-1.432887879534134,5902.846272889495
0.384,-1.4355173243433947,5899.624208589413
0.388,-1.4259853389308967,5896.942115886671
0.392,-1.4078704365656183,5903.498181874206
0.396,-1.3870793375333728,5897.761403067546
0.4,-1.3700072422440122,5903.324914066398
0.404,-1.361641266967713,5897.380773080421
0.408,-1.3642170312560433,5898.396124988564
0.412,-1.3768242127157253,5894.744856000039
0.416,-1.3959967478201414,5908.17884681358
0.42,-1.416966513273446,5903.448148329849
0.424,-1.4350775382559764,5895.874212807196
0.428,-1.4469314777672342,5906.3587709536005
0.432,-1.4510446008386335,5897.643634487409
0.436,-1.447957295204801,5893.179085867135
0.44,-1.4398214203793043,5898.27674177101
0.444,-1.4295844806395783,5904.205250521792
0.448,-1.4200029569096022,5894.110613693966
0.452,-1.4127865084810016,5895.234369828458
0.456,-1.4081585735790783,5907.923523518263
0.46,-1.4049934444426408,5893.484979209637
0.464,-1.401457019068224,5894.132642207829
0.468,-1.3958322356911592,5896.938438017046
0.472,-1.3871190826151707,5902.609093667071
0.476,-1.3751631317630257,5897.856349771335
0.48,-1.360385517129129,5893.115089944184
0.484,-1.3434243029331083,5904.498276080441
0.488,-1.3249978071738668,5892.1977838092325
0.492,-1.3061002039872767,5900.32312272632
0.496,-1.2883837678894916,5902.432579231969
0.5,-1.2744102836457207,5903.986711612547
0.504,-1.267450106883048,5904.805389282018
0.508,-1.2706926420881806,5902.61416984406
0.512,-1.286042241252432,5897.929247618424
0.516,-1.3129500771295992,5897.420088407226
0.52,-1.3478181055744038,5903.682823790447
0.524,-1.3843562315271927,5902.567682320406
0.528,-1.4149347871576143,5905.17823105839
0.532,-1.4325892489596646,5893.876793803855
0.536,-1.433080208712463,5894.881338970443
0.54,-1.4163702769793227,5898.598158590917
0.544,-1.3870002644943662,5896.431519480353
0.548,-1.3531071080582318,5907.125904410436
0.552,-1.324250357883845,5900.15562857811
0.556,-1.3086847483883763,5897.5270397964805
0.56,-1.3109753268374449,5907.93028937585
0.5640000000000001,-1.3307425291454495,5896.893294180687
0.5680000000000001,-1.3629058694351324,5908.017603943528
0.5720000000000001,-1.3992486649241418,5900.064056528029
0.5760000000000001,-1.4306786716598443,5907.473003076326
0.58,-1.4494273866795138,5894.0218810034285
0.584,-1.4506655503771633,5896.014666790259
0.588,-1.4333870392486425,5900.279899867914
0.592,-1.4006143819505121,5895.121208057456
0.596,-1.358931884753979,5896.570769403063
0.6,-1.3172686843901948,5900.0878907187625
0.604,-1.2849818994745783,5909.730782339684
0.608,-1.2696444746081619,5908.795079604945
0.612,-1.2752449391723601,5911.969660650357
0.616,-1.3014411515331763,5903.432528093214
0.62,-1.3440667694169515,5901.829682037827
0.624,-1.3965600132572484,5894.357310943369
0.628,-1.4516724128566467,5904.118821970246
0.632,-1.5028531537277203,5902.565036850796
0.636,-1.5450207226810937,5901.801562780117
0.64,-1.5747882502448975,5902.739242325689
0.644,-1.5903807139217803,5905.891222354956
0.648,-1.59144637195956,5902.883370582181
0.652,-1.5788490789541465,5901.718676707349
0.656,-1.5544621425833491,5895.779854078834
0.66,-1.520999601997633,5907.005047759184
0.664,-1.4819327287930966,5900.088809850231
0.668,-1.4414501180514727,5900.663060450131
0.672,-1.4042569371518365,5906.315638216228
0.676,-1.3749476023443157,5897.373393407523
0.68,-1.356903223555123,5895.644401818113
0.684,-1.3510954659376797,5897.22975109607
0.6880000000000001,-1.3554628473252075,5892.340067686768
0.6920000000000001,-1.365361733365802,5891.9678157053695
0.6960000000000001,-1.3750735927463242,5902.205903356582
0.7000000000000001,-1.3798165978968635,5908.101448366684
0.704,-1.3774251801753152,5879.034811416007
0.708,-1.368929510898491,5906.275489629767
0.712,-1.3577179830145405,5898.088708828833
0.716,-1.3476805891953616,5904.592239966939
0.72,-1.3413093821379898,5896.73496553188
0.724,-1.3387098765039311,5898.457201764523
0.728,-1.3378344972069227,5895.679535850482
0.732,-1.3355362094755499,5907.921311725092
0.736,-1.3288122592428704,5911.622454801597
0.74,-1.3158483159395598,5895.143414360465
0.744,-1.2967483548961367,5906.496479568422
0.748,-1.273873312531331,5901.646193869728
0.752,-1.2516206829726957,5901.114529875967
0.756,-1.2355002191007003,5898.990838039608
0.76,-1.2306039153708597,5892.35244627817
0.764,-1.2399272732060684,5913.338192383609
0.768,-1.2632227987416333,5903.99283743049
0.772,-1.296927908609656,5897.597090143141
0.776,-1.335208875455521,5898.722681690744
0.78,-1.3715968412992139,5904.580417956602
0.784,-1.4004695867080552,5889.856207531369
0.788,-1.417920314008832,5902.718044576715
0.792,-1.4220765235884123,5903.278235173594
0.796,-1.413207592004064,5899.844002712527
0.8,-1.3937797962966447,5901.677566197564
0.804,-1.368253273094368,5894.731117889047
0.808,-1.3423196276214735,5899.749445793252
0.812,-1.3215876474688724,5896.421065831159
0.8160000000000001,-1.3101310877304786,5908.369539497322
0.8200000000000001,-1.3094351081038451,5894.9563453801065
0.8240000000000001,-1.3180531876362387,5897.529809047211
0.8280000000000001,-1.3319788924101752,5896.762511377498
0.8320000000000001,-1.3455997493772676,5911.444661284244
0.836,-1.3530926801986478,5895.322279756557
0.84,-1.3500413440248036,5893.857012301553
0.844,-1.334878881289835,5894.540924822359
0.848,-1.3096775434213876,5904.336158168918
0.852,-1.27996335455689,5900.829202887064
0.856,-1.2535443110957882,5905.472876141819
0.86,-1.238626815541664,5899.960978621605
0.864,-1.2416959877486047,5904.880769802835
0.868,-1.26576274058253,5896.197599755669
0.872,-1.3095446912115658,5889.968053192714
0.876,-1.3678273669849494,5898.740587552948
0.88,-1.4327679939222353,5899.417515179208
0.884,-1.495607189180438,5894.472251875398
0.888,-1.5483024369251819,5900.501874360423
0.892,-1.5847920529076116,5901.012849380686
0.896,-1.6017437554678067,5891.282384936582
0.9,-1.5987436274893683,5905.883616373351
0.904,-1.5779670772748706,5900.2995589672255
0.908,-1.5434457079917865,5896.618700402463
0.912,-1.5001299019610976,5901.233145253153
0.916,-1.4530017759700076,5897.801732924701
0.92,-1.4064220177554883,5902.748279730333
0.924,-1.3637422655529585,5898.071911674547
0.928,-1.3271369564991358,5890.868246661502
0.932,-1.2976335220633226,5905.563248203428
0.936,-1.2753348273204037,5908.457798576269
0.94,-1.259768657179255,5900.657948364345
0.944,-1.250204303825394,5901.271218671972
0.948,-1.2457424469401774,5898.338515331904
0.952,-1.2451219848793098,5901.965013196617
0.956,-1.2464599104060359,5900.0407279559295
0.96,-1.247291979010652,5891.994058997394
0.964,-1.2451144695045608,5902.282492902474
0.968,-1.2382646514916147,5906.636252549043
0.972,-1.2267117581714997,5900.150269455403
0.976,-1.2123114247093405,5898.491372578198
0.98,-1.198271941159406,5896.378518881124
0.984,-1.187922326685062,5903.549337343579
0.988,-1.1832626740260674,5894.048369195373
0.992,-1.1839965102177548,5900.021553112542
0.996,-1.1875811320450373,5899.133288299283
1.0,-1.1903631438784854,5909.686779997652
1.004,-1.189435714652907,5904.299548174635
1.008,-1.184675209255061,5906.533986557959
1.012,-1.1803546720264744,5902.575954284945
1.016,-1.1856097392895077,5895.321522956388
1.02,-1.2129977473562181,5904.481517370619
1.024,-1.2747926018595455,5902.517530077513
1.028,-1.3775493745917644,5899.682255630166
1.032,-1.5163901825788957,5897.2441948649885
1.036,-1.6708354785889115,5906.721853569943
1.04,-1.803732204491251,5902.440636804471
1.044,-1.8642448215476946,5902.875354716904
1.048,-1.7951963911452855,5896.044769542289
1.052,-1.5441783717492434,5902.4936762035895
1.056,-1.0766903015172278,5892.9728473011855
1.06,-0.3883174251019255,5902.68558868352
1.064,0.4878862087955408,5899.621006520211
1.068,1.4823951859507531,5904.47537060103
1.072,2.5002517387598804,5893.419987781007
1.076,3.440242600979494,5897.711117168959
1.08,4.216546947219514,5909.467760422065
1.084,4.775708467770266,5918.393829670211
1.088,5.10386956852328,5932.518047516846
1.092,5.223413117202566,5936.8920484808405
1.096,5.181832928996911,5957.969882151047
1.1,5.037317062540015,5973.5184117242015
1.104,4.8452962322804805,5964.776361410579
1.108,4.648866947856046,5980.073482459269
1.112,4.474316234911056,5985.1405386361175
1.116,4.331498614744138,6000.232028378754
1.12,4.217793953072071,6008.9033377413725
1.124,4.123825127594705,6019.6043939958345
1.128,4.039047221577846,6028.134520344327
1.132,3.955781156847774,6029.674241930874
1.136,3.8710838885601735,6035.0298408104745
1.14,3.786591375642839,6049.235416839097
1.144,3.706862403716641,6066.435192900508
1.148,3.63691456108703,6066.291837974998
1.152,3.579759320926471,6068.852965558394
1.156,3.5347436876465537,6082.560292660218
1.16,3.497261872457164,6074.784327137827
1.164,3.4599491395237845,6091.683236549565
1.168,3.414957965146332,6095.7924969861815
1.172,3.356513392941745,6109.060184414529
1.176,3.28282871841867,6110.12762463291
1.18,3.1967094456820035,6108.861133847245
1.184,3.104656079593802,6119.533168152168
1.188,3.0147865628253196,6138.266078850149
1.192,2.9342873740666575,6137.480087150365
1.196,2.8672671323912926,6142.960139051388
1.2,2.813767671407453,6144.553539280999
1.204,2.7702993710378605,6148.637549620079
1.208,2.731701929439913,6160.273377160333
1.212,2.69356521810821,6162.570331756831
1.216,2.6541297246045943,6169.088199674796
1.22,2.6147520532093327,6178.49345138301
1.224,2.578695044979523,6176.736481791675
1.228,2.5488741714875354,6183.220365641779
1.232,2.5257431971604043,6185.747004845011
1.236,2.506397524891151,6193.569910762371
1.24,2.4853305649999786,6196.992729907122
1.244,2.4565050520424334,6201.796327495665
1.248,2.4158368482634045,6206.232094535691
1.252,2.362993709292281,6212.648464669608
1.256,2.3016806499865234,6213.563423331941
1.26,2.2382816308568128,6220.590608576047
1.264,2.1795037694331088,6229.451914787234
1.268,2.1300529927978324,6229.847932967725
1.272,2.091212541741204,6237.910039192449
1.276,2.0607255339112247,6227.220613229624
1.28,2.033881927547604,6244.1222806080095
1.284,2.0053427704680313,6245.44071490094
1.288,1.9710610010516276,6241.159642177164
1.292,1.9296688973428506,6256.925735048331
1.296,1.8828776099650197,6243.935720205403
1.3,1.8347581889287632,6258.593980664082
1.304,1.7901653978767924,6255.957975436379
1.308,1.7528772155158354,6259.208974046655
1.312,1.7241296652445053,6268.281136938924
1.316,1.7020765746118456,6276.82646517447
1.32,1.6823334642467396,6269.933701417893
1.324,1.6593324446484077,6284.813419489945
1.328,1.6279500191144443,6287.823852505994
1.332,1.5849010234454117,6285.695950066533
1.336,1.5296214317627783,6287.315425892512
1.34,1.4645598627892635,6289.127915068258
1.344,1.3948502519255506,6285.2178450550255
1.348,1.3273456400466703,6295.967203979861
1.352,1.269102241671207,6295.695289409086
1.356,1.2256402911512847,6292.0759831229
1.36,1.1995345004566724,6305.719686705344
1.364,1.1898670883294047,6310.983547294082
1.368,1.1927195813996965,6312.351763681689
1.372,1.2024217905252437,6312.963745562585
1.376,1.2130510509995887,6320.1436635624
1.38,1.2197458612135665,6312.208394399006
1.384,1.2195818147375195,6320.859209045671
1.388,1.211895249419029,6322.795612710196
1.392,1.1980063956373808,6321.697142200591
1.396,1.1803703131061043,6324.065930510004
1.4,1.1613687868730922,6328.501981648593
1.404,1.1421856294791057,6325.1479365864725
1.408,1.1222549608973373,6331.876278650817
1.412,1.0995294566836655,6336.69507570817
1.416,1.0714386420212092,6336.621421881563
1.42,1.0361222773391427,6332.429033797315
1.424,0.9934289683959718,6343.894436200876
1.428,0.9452715431349591,6342.51423216647
1.432,0.8952152253874981,6338.908835500375
1.436,0.847529074169347,6347.389345113402
1.44,0.8061448699385172,6349.533565402973
1.444,0.7739383472008796,6337.102627047708
1.448,0.7525525647141736,6349.60008192947
1.452,0.7427248227666533,6345.836626977291
1.456,0.744826644708048,6351.1969165820665
1.46,0.7591972516756148,6352.970561771168
1.464,0.7859605315507848,6351.680822678132
1.468,0.8243216681179312,6357.658991741747
1.472,0.8716534574982954,6360.534575997233
1.476,0.9228437707256364,6369.487041592237
1.48,0.9703314275462542,6362.660133270587
1.484,1.0050242369984994,6363.611751231698
1.488,1.0179656478630703,6375.067350222657
1.492,1.0023564703290218,6372.863128828267
1.496,0.9554218021094217,6363.016584222618
1.5,0.8795796383592501,6365.109036324711
1.504,0.7824160288179133,6373.902913109208
1.508,0.6752366927910094,6376.191942349964
1.512,0.5704704916539414,6361.818638112984
1.516,0.47871867171819893,6373.638134429359
1.52,0.4064820290886986,6374.743737949016
1.524,0.355391485805339,6367.322771174421
1.528,0.3231541946569536,6378.513541435577
1.532,0.3056875863383747,6373.101983330662
1.536,0.29944015011975983,6375.599415752238
1.54,0.30291157953355,6383.423114560428
1.544,0.31681968477610095,6381.290197573136
1.548,0.3429679390926572,6381.631041731701
1.552,0.38236617800809597,6384.840572230368
1.556,0.43338839904691345,6381.768457007129
1.56,0.49073291378251005,6381.585995139768
1.564,0.5457419174516988,6379.675210482406
1.568,0.5882241821359938,6380.784650362254
1.572,0.6093287963177246,6382.09805735559
1.576,0.6044695430808764,6386.068136889713
1.58,0.5751370295392433,6383.817238755212
1.584,0.5288077424281717,6394.730026501036
1.588,0.4768986789276551,6394.948164651641
1.592,0.43148406419802554,6396.069614973368
1.596,0.40195630056247145,6398.264344829818
1.6,0.3927796729123156,6401.840049332777
1.604,0.4029874251780281,6391.481814843939
1.608,0.4273551880099021,6392.035363736485
1.612,0.45857070547994516,6405.240031248058
1.616,0.48947870864598936,6396.377259705367
1.62,0.5146651558608607,6392.149282755846
1.624,0.5310707047366234,6396.7233314391415
1.628,0.537765986713595,6390.645427855694
1.632,0.5353313385784402,6405.569794071054
1.636,0.5253223056227005,6397.822392191748
1.64,0.5100334342096268,6411.517114209702
1.644,0.49239469572256167,6405.980743767945
1.648,0.4756524577309461,6403.658647765209
1.652,0.4626701005947536,6395.681609628992
1.656,0.45509964407616543,6397.263717853172
1.66,0.4529324381132987,6405.437654943064
1.664,0.4547461981092996,6402.602119755797
1.668,0.45847591446915453,6401.384964907869
1.672,0.46219380687810285,6396.90439514032
1.676,0.46448878303016594,6405.857310401253
1.68,0.464446124315027,6395.836105191116
1.684,0.4615114068531786,6407.85418044141
1.688,0.4554456074662079,6408.499697902056
1.692,0.4463374087321081,6403.265271849245
1.696,0.43454901607880947,6408.502165437066
1.7,0.420583476051428,6408.368123584142
1.704,0.40498357010904285,6407.283261710612
1.708,0.38835570050610396,6411.165198036205
1.712,0.37148277376020483,6406.854581281988
1.716,0.35538343105882053,6403.738435124401
1.72,0.34121993144550883,6411.903125869423
1.724,0.3301216493182692,6405.778794237361
1.728,0.3230639030134388,6403.959807467925
1.732,0.3208134798181366,6412.105685694132
1.736,0.3237964472307315,6417.79759040925
1.74,0.33175911078943726,6416.33356133744
1.744,0.3432599926813955,6401.968097310757
1.748,0.3552422830355243,6418.875762529964
1.752,0.3630941973306995,6416.731750827008
1.756,0.3615229351707893,6405.058788813548
1.76,0.34613690038168304,6415.391608111944
1.764,0.31513079105499675,6409.392722871151
1.768,0.270340168470011,6415.141348147586
1.772,0.21722846606173943,6411.813458752336
1.776,0.16378658063667875,6412.633516802264
1.78,0.11866694612872782,6416.669038417657
1.784,0.08910656761101476,6414.259552698665
1.788,0.07923026417921007,6422.772724965434
1.792,0.08912685483064067,6419.231375729628
1.796,0.11482064764017408,6418.65527286792
1.8,0.1490865621797825,6420.602019725024
1.804,0.18294916943566547,6417.74833073218
1.808,0.2075855976382544,6420.028244024093
1.812,0.21627616334280306,6420.795784286183
1.816,0.20606819627272258,6430.057715439399
1.82,0.1788236563906029,6418.352906756537
1.824,0.14123820892829872,6424.672586769711
1.828,0.10346624809833299,6414.066237334184
