时间(s),电压(V),幅值(高频80K)
0.0,-1.3990829320306815,5899.8466523217
0.004,-1.3638648882335938,5896.534184773926
0.008,-1.3339758466567926,5907.3984952186365
0.012,-1.313722179171977,5889.943086239397
0.016,-1.3050537442447971,5899.6013292534935
0.02,-1.3077206611791266,5902.730218562678
0.024,-1.3199940581605945,5898.460142365507
0.028,-1.3393348064041812,5899.419226661392
0.032,-1.3627374619606252,5896.597850345278
0.036,-1.3868539005377056,5901.041406042123
0.04,-1.4080968884306955,5901.037100975542
0.044,-1.42282318812845,5894.095713058174
0.048,-1.427635392349485,5897.525055950953
0.052,-1.4198724439156514,5899.979123715591
0.056,-1.3983120846235966,5907.156643523529
0.06,-1.3638965583033136,5898.15992717618
0.064,-1.3201033811252236,5896.512040551981
0.068,-1.2726446212198088,5909.156622691322
0.072,-1.2284568772873208,5889.07431830749
0.076,-1.194217152504051,5905.805377961966
0.08,-1.174757271448525,5898.653061395875
0.084,-1.1717960223747947,5908.221286322006
0.088,-1.1834197680689384,5900.9674862895
0.092,-1.2046308898804992,5898.625851518438
0.096,-1.2289140116398387,5898.230375288163
0.1,-1.250251844845178,5890.021104627413
0.104,-1.2647485486946086,5906.078931996316
0.108,-1.271259474541368,5895.964344276061
0.112,-1.2709944353580953,5902.618302456743
0.116,-1.2665100513293532,5895.221455296083
0.12,-1.2605962747276944,5895.483461491686
0.124,-1.2554244720481555,5898.83422956719
0.128,-1.2521742626069734,5902.2762655568085
0.132,-1.2512014689858,5901.507764072413
0.136,-1.2525685102255864,5903.885126611019
0.14,-1.256535933049003,5899.106344845195
0.144,-1.2636433195188461,5901.313185481403
0.148,-1.2743292734110547,5900.1652620981695
0.152,-1.2883883703494456,5908.602308985856
0.156,-1.3046425874155856,5905.643351687864
0.16,-1.321006077415339,5901.543894377734
0.164,-1.3348810107696911,5892.135582395565
0.168,-1.343717984454886,5897.327665118311
0.172,-1.3455869124170745,5903.560840413444
0.176,-1.3396316193475881,5900.152997660873
0.18,-1.3262878465846961,5897.777298123991
0.184,-1.3071860572889753,5897.310579895464
0.188,-1.2847748243585122,5908.353395571758
0.192,-1.261809953081664,5909.325049994355
0.196,-1.2408700712765355,5896.885121326958
0.2,-1.22400770482835,5895.310941827062
0.204,-1.2125831373284286,5888.279599928246
0.208,-1.2072577354965368,5905.5985313773845
0.212,-1.2080641802999326,5893.555601811263
0.216,-1.2144849742597097,5896.673263140884
0.22,-1.2255480767133853,5886.452653095574
0.224,-1.239984847861471,5896.717937322784
0.228,-1.256435595817706,5900.798447861776
0.232,-1.2736133552480524,5900.220241712953
0.236,-1.2903563579158572,5903.020171316109
0.24,-1.3056154428019182,5901.439229308544
0.244,-1.3185226201826534,5901.6840643326
0.248,-1.328642002141087,5890.439227477503
0.252,-1.3363018306219396,5897.135727028486
0.256,-1.3427093617146777,5906.323773619289
0.26,-1.349570544537597,5902.802864576334
0.264,-1.358227870439049,5908.131139818661
0.268,-1.3687083232927155,5913.3148305460345
0.272,-1.3792402412849774,5899.895790872544
0.276,-1.3865957561973312,5898.223899737164
0.28,-1.3871826271672916,5899.225601462149
0.284,-1.3784385667222943,5894.37789387855
0.288,-1.3599555172825981,5894.997533388184
0.292,-1.3338798110147574,5896.183053182291
0.296,-1.3044174340506332,5902.54014162511
0.3,-1.2766246757286697,5895.728455070408
0.304,-1.2549467145314397,5897.941537355282
0.308,-1.2420408841352764,5908.037189451241
0.312,-1.2382563777181856,5894.37237820487
0.316,-1.2418480209526879,5889.934161543744
0.32,-1.2497340143249822,5903.534482853275
0.324,-1.258471716374471,5893.496495216975
0.328,-1.2651469718929786,5902.580670877261
0.332,-1.2679897706589134,5900.270337523131
0.336,-1.266636711827676,5901.81834004483
0.34,-1.2620086639687131,5889.451795418486
0.344,-1.255813288113143,5908.095611295103
0.348,-1.249801555170362,5902.4014363100805
0.352,-1.2450777630261196,5899.858519145669
0.356,-1.2418039098811207,5904.6876215286575
0.36,-1.2394225702362445,5900.845199644215
0.364,-1.237182612341305,5895.616873483971
0.368,-1.2345809338360494,5904.215783111325
0.372,-1.2314819528015652,5892.463474480851
0.376,-1.2280032963003649,5894.259917541781
0.38,-1.2244439715059814,5910.957709254888
0.384,-1.2214046213436485,5894.918620473064
0.388,-1.2199759178406318,5899.282414055498
0.392,-1.2217446799818914,5888.895634793968
0.396,-1.228461040890393,5898.983641271563
0.4,-1.241403738252651,5909.256637586335
0.404,-1.2606843697077519,5903.9464734873145
0.408,-1.2848604949243176,5897.134459928696
0.412,-1.3111329725444947,5899.04601930222
0.416,-1.3360705912402855,5901.511694894264
0.42,-1.3564885353746807,5899.230973689947
0.424,-1.370081838710112,5896.535880734694
0.428,-1.375666469826953,5914.813985514064
0.432,-1.3731421991035013,5899.648021270216
0.436,-1.363357142632037,5898.707626987659
0.44,-1.3479587813670828,5908.529051764419
0.444,-1.3292142147639558,5902.032834406345
0.448,-1.3097606026173376,5894.170032759006
0.452,-1.2922801244587827,5894.393436300399
0.456,-1.2791221856367594,5903.486174993512
0.46,-1.2719117268097897,5901.71268129755
0.464,-1.271219311872992,5897.108561536611
0.468,-1.2764177966052612,5903.333975418854
0.472,-1.2858414511278202,5900.603374980777
0.476,-1.2972417766274524,5906.328923513175
0.48,-1.3083612300933543,5913.474091516543
0.484,-1.3173805617622212,5899.962904997473
0.488,-1.323114345892459,5909.179280366963
0.492,-1.325010543362851,5902.733424374165
0.496,-1.3230772932228896,5912.937273314223
0.5,-1.3177919174232915,5888.491037371752
0.504,-1.3099617364672336,5904.851408911452
0.508,-1.300499679926757,5900.445612619637
0.512,-1.2901438100385854,5896.935725134305
0.516,-1.2792240057073887,5889.851205537822
0.52,-1.2676093296053095,5903.180550857907
0.524,-1.2549300636287481,5897.997346451788
0.528,-1.2410384571152466,5900.165304370727
0.532,-1.226490342845368,5907.740410081553
0.536,-1.2127410107728134,5901.148228559451
0.54,-1.201871608920326,5902.0246402843495
0.544,-1.1959290072648434,5892.979406090788
0.548,-1.1961847116873523,5895.206374496445
0.552,-1.202661761649463,5903.856697251967
0.556,-1.214128266353985,5898.3506617834455
0.56,-1.22850988479566,5896.125222468562
0.5640000000000001,-1.243486722803032,5900.055206173992
0.5680000000000001,-1.2570146375086675,5900.457947257872
0.5720000000000001,-1.2676241316249852,5895.850349550108
0.5760000000000001,-1.2744973139960094,5904.704155823019
0.58,-1.2774124188942972,5893.196414370498
0.584,-1.276652305644258,5902.715500729948
0.588,-1.2729246201947015,5894.489951642967
0.592,-1.2672779129577867,5900.914018261857
0.596,-1.2609627862439021,5900.613669039044
0.6,-1.2551951231250538,5904.823907457876
0.604,-1.25082039445479,5903.242710968467
0.608,-1.2479665975440166,5893.392972342355
0.612,-1.245888427626537,5903.376843829355
0.616,-1.2432173380197622,5896.344112167163
0.62,-1.238634328519913,5902.848953897799
0.624,-1.2316830741356384,5902.39164193162
0.628,-1.2232860038529971,5893.341702707357
0.632,-1.215637211584075,5905.178984704507
0.636,-1.211442398979272,5900.452327721247
0.64,-1.2127982143464475,5897.937902000693
0.644,-1.2201962345131154,5890.404276117107
0.648,-1.2320939985987478,5903.093724440373
0.652,-1.245256582072976,5905.759758750802
0.656,-1.2557938300108866,5894.058623751484
0.66,-1.2605916809876632,5902.377155881151
0.664,-1.258655463147302,5891.011112262161
0.668,-1.2517993664554856,5890.835552382644
0.672,-1.2442639665135045,5892.412979666176
0.676,-1.2412733902222737,5906.977937300257
0.68,-1.2470886745252958,5901.261974941107
0.684,-1.263441708753713,5908.167506595071
0.6880000000000001,-1.2890679318736722,5893.641332466586
0.6920000000000001,-1.3204368950189056,5902.40974824922
0.6960000000000001,-1.3531232257890653,5898.750731438753
0.7000000000000001,-1.3830365823909547,5902.4783783505245
0.704,-1.407032349781324,5900.753414400241
0.708,-1.4229297493537316,5895.019244295427
0.712,-1.4292896817668577,5899.919162753295
0.716,-1.4253108925021363,5898.664963572131
0.72,-1.4109868330004887,5897.901668870097
0.724,-1.3874251613675501,5911.314093889146
0.728,-1.3571147886505575,5899.258015520365
0.732,-1.3239270898012112,5903.445054967885
0.736,-1.2926922914028975,5901.002540275547
0.74,-1.268317340232273,5898.933164690867
0.744,-1.2546274749828341,5907.012330527027
0.748,-1.2533077454670731,5899.263680505973
0.752,-1.2633535649012655,5909.0647244491
0.756,-1.2812901209133236,5903.517882822867
0.76,-1.3021492263544021,5907.715321038697
0.764,-1.320881920777941,5899.567550206776
0.768,-1.3336770675872538,5899.467941711975
0.772,-1.338714526117576,5901.743208671704
0.776,-1.336198541224702,5899.815122989718
0.78,-1.3278388859884285,5903.831700550775
0.784,-1.3160592997848408,5899.724983270161
0.788,-1.3031863455661565,5898.682894930968
0.792,-1.2908525128159134,5892.3066657315485
0.796,-1.279800123984037,5897.531530279824
0.8,-1.2701167435924923,5897.53481401342
0.804,-1.2617257385356089,5905.416141158475
0.808,-1.2548324250216365,5900.670445526556
0.812,-1.2500757636292008,5905.2780156322615
0.8160000000000001,-1.2483310499003435,5901.66309563752
0.8200000000000001,-1.250311482929296,5907.014867882413
0.8240000000000001,-1.2561965300810567,5901.836032549072
0.8280000000000001,-1.2654660714521737,5903.902102413775
0.8320000000000001,-1.277007342269007,5903.693728738698
0.836,-1.289433562329949,5902.605178261016
0.84,-1.3014642919584518,5902.76418101721
0.844,-1.31223516423659,5906.315755093215
0.848,-1.321489260483768,5897.494666704891
0.852,-1.3296301121884635,5910.717081898024
0.856,-1.3375805675943067,5905.0318527589725
0.86,-1.3464100249661621,5906.215366238949
0.864,-1.3568076657352532,5901.566448789513
0.868,-1.3686141767820734,5898.166054219031
0.872,-1.3806750771058698,5904.307358218373
0.876,-1.3911604774869317,5904.99481897749
0.88,-1.398225957132191,5897.906647048372
0.884,-1.400653840613815,5901.409014322058
0.888,-1.3981174583557445,5894.28928533247
0.892,-1.3909670965072385,5906.065144602359
0.896,-1.3797670895564245,5899.275634918585
0.9,-1.3649845101464635,5895.900517443283
0.904,-1.3471078532198892,5902.130970431942
0.908,-1.3271274473934276,5896.092319775321
0.912,-1.306966192764886,5901.711308345717
0.916,-1.2893739510895104,5896.461484684474
0.92,-1.2771261694609186,5909.134060069185
0.924,-1.271907520837724,5904.567738025662
0.928,-1.273560390609665,5903.1190018199295
0.932,-1.2801534179390563,5901.443890595416
0.936,-1.2887819812050623,5907.145145053022
0.94,-1.296607059177296,5906.921077310846
0.944,-1.3016190532000664,5903.846154114948
0.948,-1.3028823115679247,5888.123878527706
0.952,-1.3003330791993724,5895.596429813503
0.956,-1.2943943436822218,5904.6068568246565
0.96,-1.2856872337667908,5907.901502438997
0.964,-1.2749903887536727,5889.570598515309
0.968,-1.2634069460905097,5896.695270178517
0.972,-1.252563425795684,5905.703661585942
0.976,-1.2446529903186603,5904.44098707025
0.98,-1.2421999806078523,5891.71417283444
0.984,-1.2475013088950353,5898.899209700483
0.988,-1.2618117645272302,5901.834504133029
0.992,-1.2845132963328179,5907.288734555841
0.996,-1.3126646733177165,5900.322465803779
1.0,-1.3412985372625261,5896.435103306566
1.004,-1.3645391771852737,5909.69527655923
1.008,-1.377217340287807,5900.037067415087
1.012,-1.3764176854391192,5902.091632321754
1.016,-1.3624027725209933,5900.141595556313
1.02,-1.338550923179746,5897.1297870826365
1.024,-1.3102775662198747,5896.117237746918
1.028,-1.283325648435513,5900.118095226518
1.032,-1.2621241394390676,5895.540984824239
1.036,-1.2488917473478882,5907.922726204974
1.04,-1.2437718476051107,5898.988853183947
1.044,-1.2457651266862566,5900.559411546025
1.048,-1.2538741769442028,5897.896633954082
1.052,-1.2678352339936017,5897.970584865028
1.056,-1.2880833448133862,5907.604106566481
1.06,-1.3150404047621718,5901.119341808746
1.064,-1.348170763132634,5896.537170690047
1.068,-1.3853081852406004,5904.39728859977
1.072,-1.4225509509350411,5896.70393758492
1.076,-1.4547520711512605,5894.295785099055
1.08,-1.476448896063697,5908.131116215067
1.084,-1.4829946936266607,5900.981010592676
1.088,-1.4716396360928987,5900.370732282991
1.092,-1.4423342233900465,5902.087842659904
1.096,-1.3980753543034046,5900.196371803817
1.1,-1.3446749561265412,5904.610363550483
1.104,-1.28990188928401,5908.370814814279
1.108,-1.242053029420598,5895.938256866344
1.112,-1.208200498863162,5896.203390050969
1.116,-1.1926052248119936,5895.45435916586
1.12,-1.1958777897713104,5894.907590915594
1.124,-1.21521387364706,5902.609395113769
1.128,-1.2455364318448217,5907.96069425048
1.132,-1.2810016179706067,5908.492678353116
1.136,-1.3163174772980502,5903.247540350843
1.14,-1.347577885203198,5896.388446083866
1.144,-1.372560674122203,5897.237464701605
1.148,-1.390558528558798,5906.679734143598
1.152,-1.4018680113662871,5898.254492908554
1.156,-1.4071322666976789,5903.426472147862
1.16,-1.4067947311205524,5901.325228536146
1.164,-1.4008943352437457,5907.71498794808
1.168,-1.3892858169950553,5890.938350859418
1.172,-1.3721594810823485,5901.34498691224
1.176,-1.3505723640734717,5904.193862038694
1.18,-1.326690333166061,5898.049184840496
1.184,-1.3035836937566647,5899.160191368389
1.188,-1.2846064238064367,5907.187301973277
1.192,-1.2725311994190287,5891.474140020943
1.196,-1.2687157507123044,5908.117319306473
1.2,-1.2726340091967563,5895.440297563272
1.204,-1.2820309883012193,5896.9333910819605
1.208,-1.2937024458648343,5902.976398338386
1.212,-1.3045706391570349,5900.439849823538
1.216,-1.312553212468532,5903.475169518791
1.22,-1.316852597077148,5904.149942379295
1.224,-1.3176508040847283,5906.673432098148
1.228,-1.3155320137331423,5897.2457056804815
1.232,-1.3110484117987897,5899.672737174843
1.236,-1.304645029395993,5899.591757741318
1.24,-1.2968396139165606,5904.116327450961
1.244,-1.2883888271204953,5899.241673396878
1.248,-1.2802751124146445,5901.9238120502505
1.252,-1.273548860700396,5894.687876482053
1.256,-1.2691339673403927,5905.699282070778
1.26,-1.267649297036059,5906.711654134698
1.264,-1.2692618352249756,5900.055786510619
1.268,-1.273614837607459,5912.5530819555415
1.272,-1.279891388626821,5897.017880299231
1.276,-1.2870391425251921,5906.416856529932
1.28,-1.294104413129591,5895.301623790638
1.284,-1.3005211648168136,5892.396389454964
1.288,-1.306157193291192,5900.597850557258
1.292,-1.3110485220652255,5899.671234877445
1.296,-1.3150011470993017,5902.409519013654
1.3,-1.31737235944453,5906.195165354862
1.304,-1.3172122854035349,5895.908823639581
1.308,-1.313674500690722,5898.241510433945
1.312,-1.3064504568264403,5896.182743005651
1.316,-1.2960449528836917,5900.845939627026
1.32,-1.2838411369120915,5910.408242419726
1.324,-1.2719418226266872,5897.375401015647
1.328,-1.2627588073157872,5898.053576034589
1.332,-1.2583745618187707,5888.0870247685125
1.336,-1.2598289336285031,5901.5370889836
1.34,-1.266610406785325,5889.811409466209
1.344,-1.2766600304798612,5893.454142950572
1.348,-1.2870250508037973,5911.788551514299
1.352,-1.294955359271543,5901.9148884502965
1.356,-1.2989501593637252,5895.37322043586
1.36,-1.2992645907803981,5896.580941642462
1.364,-1.297671211936369,5894.987621191506
1.368,-1.2966328445104502,5905.706031657164
1.372,-1.298275888685506,5901.27882344331
1.376,-1.303581421883824,5907.491403914003
1.38,-1.3120784913109336,5903.63732387406
1.384,-1.3221187547827002,5892.120022470945
1.388,-1.3316062366299386,5900.457678172114
1.392,-1.3388918168428368,5903.931751565399
1.396,-1.3434609435661433,5909.395012953356
1.4,-1.346100775151096,5898.222398659341
1.404,-1.3484472622542287,5903.896183666073
1.408,-1.352102799104118,5888.627039636596
1.412,-1.3577288560663272,5899.501770871465
1.416,-1.3645342936956737,5902.764011832335
1.42,-1.3703895566359232,5894.92350297632
1.424,-1.3725122082011265,5900.545087274948
1.428,-1.368448132133502,5902.693643524684
1.432,-1.3569946997225204,5900.47585925344
1.436,-1.3387532580075143,5895.736623724609
1.44,-1.3161191227761795,5899.542338268254
1.444,-1.2926993127458863,5894.745676279591
1.448,-1.27235176270756,5890.154992576617
1.452,-1.258182787945024,5900.605163820347
1.456,-1.2518387747585027,5908.359639575988
1.46,-1.2532826597302769,5894.655692772329
1.464,-1.2610511943628688,5897.9910585500575
1.468,-1.2728365680929492,5897.960556351737
1.472,-1.2861622524016765,5901.848343323681
1.476,-1.2989464130332897,5902.1391104064505
1.48,-1.3098478071773936,5906.4815434021975
1.484,-1.318388060598956,5906.004625757197
1.488,-1.324880858624279,5898.274451647554
1.492,-1.330191009440947,5907.810259170309
1.496,-1.3353448296115351,5902.857459352648
1.5,-1.341059607423439,5900.067972268958
1.504,-1.3473417056208599,5897.657435455589
1.508,-1.3533206771034456,5898.767030871881
1.512,-1.3573800305370627,5897.990092064244
1.516,-1.3575166337922802,5898.777891292646
1.52,-1.3518317024825022,5903.392409966664
1.524,-1.3390840607304813,5893.965502982583
1.528,-1.3192078459136816,5903.66748051888
1.532,-1.2936220484103136,5899.5968311681145
1.536,-1.2651580079737255,5900.00547517188
1.54,-1.2375589072973858,5896.910914108001
1.544,-1.2146837274062752,5899.413425275428
1.548,-1.1996673487992422,5906.26770593825
1.552,-1.1942970360565388,5907.062480822865
1.556,-1.1987689038968254,5896.131148159145
1.56,-1.211842073565231,5888.542849819112
1.564,-1.2312899768804313,5899.845318263404
1.568,-1.2544946360109648,5895.302314304789
1.572,-1.279030353661447,5906.405022071359
1.576,-1.303104788671968,5903.841026933632
1.58,-1.3257419131934418,5903.362008080699
1.584,-1.3466363211691936,5890.845994182935
1.588,-1.3657337985134508,5903.866684917068
1.592,-1.382744253494644,5895.925435766545
1.596,-1.3968385451981844,5891.941651333139
1.6,-1.4066842279726475,5904.173050141604
1.604,-1.4108226534994737,5899.869863802303
1.608,-1.408247616727916,5907.102406388054
1.612,-1.39891983992216,5899.133109455185
1.616,-1.3839072494534892,5902.4086959429815
1.62,-1.3649978995232899,5898.199856536932
1.624,-1.3439492493781422,5889.634315480803
1.628,-1.321772203787485,5898.777487789985
1.632,-1.2984383664100352,5899.7766402790985
1.636,-1.2732014537540592,5889.568006944504
1.64,-1.2454453344749163,5907.273240889823
1.644,-1.21569728722848,5891.184052807598
1.648,-1.1863204627930186,5906.477586942143
1.652,-1.161525010109257,5901.711031209558
1.656,-1.1466183334459081,5905.143387001397
1.66,-1.1466819904169436,5896.043810997982
1.664,-1.1650489387187022,5893.50957846888
1.668,-1.2020370328621621,5895.374111127032
1.672,-1.25431753592178,5898.948424510648
1.676,-1.3150908883940096,5906.248369470387
1.68,-1.3750551559845432,5889.935024432099
1.684,-1.4240445574017164,5896.926644247817
1.688,-1.4530814061463757,5902.164251783319
1.692,-1.4564046771019612,5905.472826722787
1.696,-1.4329897012897252,5898.364828823721
1.7,-1.3872433609129766,5910.531433346343
1.704,-1.3287649719209311,5908.173497562702
1.708,-1.2711323810390933,5906.603083419098
1.712,-1.229679786524172,5897.176450528651
1.716,-1.2183267816463466,5895.805068272663
1.72,-1.2457401285203105,5899.638624010305
1.724,-1.3114384979364295,5897.984334852553
1.728,-1.4028046668119174,5895.179459964728
1.732,-1.4941637120215268,5897.357782136143
1.736,-1.5489163747159345,5900.693365904881
1.74,-1.5251206778155608,5898.47174983883
1.744,-1.3840013914907812,5904.09620511252
1.748,-1.0998349174834585,5903.268590991775
1.752,-0.6687688131283588,5898.511665288005
1.756,-0.11373581868126283,5894.735984835739
1.76,0.5169192401722769,5897.338810879472
1.764,1.157902783225401,5885.439602735527
1.768,1.7407952619658114,5904.445605819503
1.772,2.2090656347825264,5914.262055038316
1.776,2.5293868684446412,5922.949022741927
1.78,2.696040250596337,5935.502533238912
1.784,2.7281355455597613,5946.027156419181
1.788,2.6617370791257327,5956.240127881875
1.792,2.5398806260450058,5962.922515944155
1.796,2.403172458692741,5976.784611328479
1.8,2.2828356920294914,5980.872203945761
1.804,2.197145217144471,5997.554991632282
1.808,2.151314519028119,5999.163342517716
1.812,2.140121425703485,6017.281644399886
1.816,2.1520292939911907,6029.085275441366
1.82,2.173456565521944,6029.161548139393
