时间(s),电压(V),幅值(高频80K)
0.0,-1.536181528629452,5901.499323020583
0.004,-1.4253387541484797,5904.7745884101005
0.008,-1.323282655610938,5902.254623246867
0.012,-1.2369939958590632,5895.500680820213
0.016,-1.1707626999675194,5906.009570317009
0.02,-1.12594570387436,5898.356067308651
0.024,-1.1013433589634474,5898.657566129035
0.028,-1.0938658447385372,5900.217628329864
0.032,-1.0992971059171335,5907.012135278466
0.036,-1.1130954355895384,5898.208512922649
0.04,-1.1311195868360364,5903.398678884347
0.044,-1.1500962088934799,5903.766853133401
0.048,-1.1677486331507951,5896.397688257594
0.052,-1.1827051270175708,5901.851314147957
0.056,-1.19436716070206,5901.359751045297
0.06,-1.2028023886958328,5905.200644540762
0.064,-1.208605278692183,5896.388196057079
0.068,-1.2126754588861475,5895.307872004828
0.072,-1.215941213070092,5891.042408003407
0.076,-1.219073386973072,5891.611781579402
0.08,-1.2222051042789386,5906.618244508634
0.084,-1.2247231813816368,5901.200925916397
0.088,-1.2253163836854426,5908.175410757319
0.092,-1.2224384098411911,5900.371022961263
0.096,-1.2150633891258684,5890.285235891453
0.1,-1.20332442388906,5899.603028411528
0.104,-1.1886659917327682,5897.1918867955765
0.108,-1.1734822644718734,5897.407327729423
0.112,-1.160493258031547,5896.069903290201
0.116,-1.1521077634219867,5897.335185990801
0.12,-1.1498870831985646,5901.980815351804
0.124,-1.1541826822592296,5902.390394029476
0.128,-1.1640588744648703,5900.555208633426
0.132,-1.1775701424206828,5893.262734330677
0.136,-1.192311140880465,5899.679767394527
0.14,-1.2060276270470112,5901.49801254864
0.144,-1.2170775891341956,5899.236893513723
0.148,-1.2246416957999797,5903.736680590645
0.152,-1.2287086657850808,5900.254442411718
0.156,-1.2299240415225994,5896.083011563864
0.16,-1.229368663694968,5897.238813252212
0.164,-1.2282938743052854,5900.546285721602
0.168,-1.227862296331705,5903.540132407725
0.172,-1.228977303472457,5905.135257110883
0.176,-1.2322205990933472,5894.350163214251
0.18,-1.2377969458323688,5892.545329304278
0.184,-1.2453852258346572,5897.687484284001
0.188,-1.2539572015843732,5890.552217960308
0.192,-1.261765100690827,5895.464437274454
0.196,-1.2666529247199705,5907.109106834916
0.2,-1.2666526701982097,5902.713690512261
0.204,-1.26063169189372,5893.006347439332
0.208,-1.2486923207572411,5904.107366849616
0.212,-1.232140642534345,5902.612198208195
0.216,-1.2130555415651925,5906.543075940109
0.22,-1.1936619934133907,5906.773484407738
0.224,-1.175781545371188,5896.775345457952
0.228,-1.1605952545211522,5898.418846649261
0.232,-1.148795628780496,5903.606772452497
0.236,-1.1409499624466541,5903.2084991934535
0.24,-1.1377104891842666,5902.905080935877
0.244,-1.1396066173036732,5900.916537955332
0.248,-1.1465302431160291,5900.821008288547
0.252,-1.1573330100584838,5902.041026071863
0.256,-1.1698833817378178,5904.527854529225
0.26,-1.1815812200560971,5903.0017789549
0.264,-1.1900545235453952,5899.497827614483
0.268,-1.1937459944956679,5900.687591038743
0.272,-1.1922273932933154,5899.304508856055
0.276,-1.1862077258110355,5895.409831687888
0.28,-1.177291954985109,5900.383689740151
0.284,-1.1675949585899839,5895.827390025928
0.288,-1.1592988240359554,5905.953984413081
0.292,-1.1542000988152552,5898.026699480337
0.296,-1.1533100557021103,5910.505507580957
0.3,-1.1566335526551796,5899.439227886272
0.304,-1.1632476300153756,5895.220409340405
0.308,-1.1716803962872608,5904.464977010741
0.312,-1.1804510035156663,5905.157004987626
0.316,-1.188588959083973,5895.772153694681
0.32,-1.1960000087610234,5901.628560904281
0.324,-1.203598980196052,5902.950974033011
0.328,-1.2131495820884806,5901.04472687294
0.332,-1.2267786063079085,5894.661895800362
0.336,-1.2462055184972605,5900.031951006389
0.34,-1.271833482690694,5894.200404053391
0.344,-1.3019616274325554,5906.224244616996
0.348,-1.332476372736631,5904.90681935272
0.352,-1.3573557485890302,5905.787172131824
0.356,-1.3700500273693346,5903.082025752689
0.36,-1.3653735498383106,5900.123401154245
0.364,-1.3412528254100966,5897.728611105232
0.368,-1.2997074469483028,5904.212226200906
0.372,-1.2467160092531868,5896.942938884321
0.376,-1.1909806617940524,5905.592083861654
0.38,-1.1419390417876036,5896.558522569415
0.384,-1.1075843086260864,5903.197673299988
0.388,-1.0926777568770358,5901.797709592223
0.392,-1.0978031761164393,5913.611231914437
0.396,-1.1195002396090348,5900.92773643687
0.4,-1.1514506930879196,5898.557224596651
0.404,-1.1863606520570922,5893.56377277047
0.408,-1.2178902417983215,5901.224807988707
0.412,-1.2419563925911756,5902.017990646329
0.416,-1.2570627132843346,5910.808688904693
0.42,-1.2637854449364694,5898.040798320525
0.424,-1.2638661641311764,5894.441343605925
0.428,-1.2593993604754097,5904.293117758118
0.432,-1.2524171423642632,5897.2793692959085
0.436,-1.2448808409820027,5905.083759327842
0.44,-1.2388177306475112,5901.794257851225
0.444,-1.2362645696930055,5908.670115622054
0.448,-1.2388914709903665,5896.822971234211
0.452,-1.2475050468007067,5905.003620337229
0.456,-1.2617668904877322,5899.8462608672735
0.46,-1.2803181004714272,5901.379607392179
0.464,-1.3012410617675658,5900.562745030282
0.468,-1.322621418280559,5896.148502956207
0.472,-1.3429612423028814,5905.904202801475
0.476,-1.3612820466447375,5894.701340095007
0.48,-1.3768890734104806,5896.951409034326
0.484,-1.3889293741354947,5898.738146080291
0.488,-1.3960096014533325,5891.442252647941
0.492,-1.396154354371568,5905.828516982569
0.496,-1.3872479762437393,5896.473852188954
0.5,-1.3678574198687592,5903.99725616972
0.504,-1.3380981232481812,5898.623339617834
0.508,-1.3001420450194874,5906.708667259293
0.512,-1.2581383689162526,5899.530608771365
0.516,-1.2175736016348186,5894.00381428863
0.52,-1.184241962971153,5906.493762227243
0.524,-1.163020611659406,5889.512670859975
0.528,-1.15669220789096,5889.2556439835125
0.532,-1.1651705360456865,5901.924441794461
0.536,-1.1854995692061308,5900.240906468212
0.54,-1.2127576944871183,5897.285231246728
0.544,-1.2415841320564118,5908.7779274894265
0.548,-1.2677180450525614,5896.545817384823
0.552,-1.2889363662445155,5895.52620754507
0.556,-1.3051071675757993,5895.990547454964
0.56,-1.3175134279640102,5897.636224268847
0.5640000000000001,-1.327871596970879,5900.0869231834085
0.5680000000000001,-1.3374649565830872,5900.936007234526
0.5720000000000001,-1.3466305761629103,5904.23628382198
0.5760000000000001,-1.3546539243524818,5902.025621597239
0.58,-1.36003059200975,5902.968877365243
0.584,-1.361007339601376,5899.345486491839
0.588,-1.3562468087622144,5901.888163875441
0.592,-1.3453982999368213,5886.151523477223
0.596,-1.3293697238177207,5894.5198337782485
0.6,-1.3101929259044802,5894.348006092991
0.604,-1.2905189526288863,5898.446544211889
0.608,-1.272924611492687,5890.873216566899
0.612,-1.2592849986889292,5894.859818358585
0.616,-1.2504087955425294,5900.14512875001
0.62,-1.2459974971992678,5902.877048277869
0.624,-1.2448985475295002,5895.498425201975
0.628,-1.2455832150405217,5895.842689472227
0.632,-1.2467123788668786,5896.823544307963
0.636,-1.2475888618504931,5908.5611161243005
0.64,-1.2483290208646722,5901.18417053247
0.644,-1.249696050350684,5896.064871403983
0.648,-1.2526445705494393,5894.211880430251
0.652,-1.2577166394891228,5895.929359872102
0.656,-1.264498761808507,5887.38964843369
0.66,-1.271367592591193,5896.009485758561
0.664,-1.2756967223990592,5899.378176966187
0.668,-1.2745459560167363,5900.858436230907
0.672,-1.2656383561204443,5903.671148979339
0.676,-1.248291440819229,5902.445319165012
0.68,-1.2240104611494376,5898.756476445676
0.684,-1.1965858276088568,5898.613256915138
0.6880000000000001,-1.1716298225837798,5894.350996881196
0.6920000000000001,-1.155553988655367,5900.049957948829
0.6960000000000001,-1.1541165552795314,5898.621955735728
0.7000000000000001,-1.1708512034663117,5898.482494613847
0.704,-1.2058227093173441,5898.167370478631
0.708,-1.2551522091845595,5910.542753455476
0.712,-1.3115756464434039,5903.62621306604
0.716,-1.3659666952515257,5900.596450244349
0.72,-1.4094025206396732,5905.936246109677
0.724,-1.4351719067827182,5900.88685347097
0.728,-1.4402012203784262,5890.2268227384175
0.732,-1.425586941899602,5897.324649616919
0.736,-1.3961268991457711,5904.3655648407685
0.74,-1.3589523464538127,5906.637590576893
0.744,-1.3216475613284326,5907.980414082911
0.748,-1.2904751847588207,5901.252737399357
0.752,-1.2692627417494162,5897.752894864408
0.756,-1.259139433432365,5897.583954563787
0.76,-1.2589389349706923,5902.997614051308
0.764,-1.2659562828495066,5888.410614105271
0.768,-1.276806005082733,5899.874203263064
0.772,-1.28819336054887,5901.4361596300605
0.776,-1.2974512980192803,5898.938388455927
0.78,-1.3027707200444534,5901.88597215572
0.784,-1.3031530961980453,5900.652664145375
0.788,-1.2982006037671807,5898.731122435058
0.792,-1.287902070595693,5896.813273319156
0.796,-1.2725452454641557,5894.754284878036
0.8,-1.252786842911818,5896.941809934476
0.804,-1.2297918173788491,5895.204332396794
0.808,-1.2052896119518546,5895.88109841883
0.812,-1.1814489230469638,5901.763094260995
0.8160000000000001,-1.160612397576666,5904.50500042247
0.8200000000000001,-1.1450176352269452,5900.126854118527
0.8240000000000001,-1.1365648451957073,5894.118988089911
0.8280000000000001,-1.1365680633749011,5900.740309601752
0.8320000000000001,-1.1454226531191696,5902.368745525974
0.836,-1.1622583990781072,5908.363582169861
0.84,-1.1847585360786672,5896.997451432004
0.844,-1.2092897099110278,5901.9646673822335
0.848,-1.2313766195808427,5894.215274027911
0.852,-1.2464693186895246,5900.410147934529
0.856,-1.2508714279472901,5895.482424581677
0.86,-1.2425988876937266,5896.778084070677
0.864,-1.221901427976272,5905.625580290704
0.868,-1.1912780758617323,5898.36137679495
0.872,-1.1550092255728694,5901.6755290387455
0.876,-1.1183914693996522,5901.936114939222
0.88,-1.0869093809791983,5898.077700135532
0.884,-1.0655137589421597,5891.331980193728
0.888,-1.058068977612728,5891.939817253098
0.892,-1.0669429420844312,5896.8647101306
0.896,-1.0926636134807688,5901.081934669225
0.9,-1.1335879980593702,5906.126351541011
0.904,-1.1856554956118006,5901.393361507527
0.908,-1.242462273043037,5897.772952316676
0.912,-1.2959355106367274,5897.305620129443
0.916,-1.3377058566212425,5902.861649319225
0.92,-1.3609351117634358,5900.225762657339
0.924,-1.3620397786233567,5894.287741742515
0.928,-1.341681142680024,5898.980619208983
0.932,-1.3046635683714,5908.03345159894
0.936,-1.2588139216643914,5896.50363246188
0.94,-1.2132117329397518,5892.536566372012
0.944,-1.1762257293797413,5900.579153448676
0.948,-1.1538092315000996,5896.592183766101
0.952,-1.1484443924632406,5901.584457223314
0.956,-1.1589463454259397,5900.774185978364
0.96,-1.1811077053620407,5898.265565705844
0.964,-1.2089870069987552,5905.793697559556
0.968,-1.236494711443299,5902.435498096417
0.972,-1.2587966950536082,5893.902489642882
0.976,-1.2730841600169465,5902.49078462664
0.98,-1.2785442202873456,5900.249505001974
0.984,-1.2757571326605557,5899.0977627789
0.988,-1.265979861407837,5909.177769812687
0.992,-1.2507113895782,5893.692579337152
0.996,-1.2316629807296777,5898.238862582644
1.0,-1.2109863574280408,5899.129241739012
1.004,-1.1914704299120773,5894.442074139275
1.008,-1.1764132660013016,5895.985050934934
1.012,-1.1690211925409155,5897.651918082608
1.016,-1.1714665407304565,5900.105187168871
1.02,-1.1839914240268676,5897.489279489418
1.024,-1.2044817506462164,5892.59643368305
1.028,-1.228750261894754,5901.993056824346
1.032,-1.2515128950045944,5899.358690723209
1.036,-1.267809789910543,5899.4979907138695
1.04,-1.2744340940416659,5898.718835173316
1.044,-1.2708784904229329,5897.540695281741
1.048,-1.2594650092205506,5899.136760029474
1.052,-1.2445981926187744,5903.75431212927
1.056,-1.2313498946585804,5900.620867705551
1.06,-1.223829872888566,5902.311582278924
1.064,-1.2239524227969045,5905.472907762935
1.068,-1.2310847764216144,5902.773936967073
1.072,-1.2426444801409435,5899.812325414868
1.076,-1.2552901409941029,5897.937727268981
1.08,-1.266176313239028,5904.198269502712
1.084,-1.273815245376569,5905.7060508312425
1.088,-1.278305263492051,5903.154506794794
1.092,-1.2809616907105368,5894.993942707606
1.096,-1.2836041403486511,5910.431895475642
1.1,-1.287819766048629,5901.511774912641
1.104,-1.294451521733326,5903.951254736428
1.108,-1.3034219909755633,5897.400443451729
1.112,-1.3138504578043155,5890.5313779791895
1.116,-1.3243230884185229,5893.261654299293
1.12,-1.3331884323259044,5901.553096385194
1.124,-1.3388237777408651,5896.441291780435
1.128,-1.3398608846900646,5897.820167055691
1.132,-1.335366056704923,5905.587641889223
1.136,-1.3249789923712838,5908.487242228424
1.14,-1.3090151453070245,5901.554398851023
1.144,-1.2885038234757793,5896.093766451018
1.148,-1.265114809226062,5904.930048886059
1.152,-1.2409724039564989,5901.941148105375
1.156,-1.2184130747177366,5897.180931579243
1.16,-1.1997209094531234,5906.233077150955
1.164,-1.1868149331365418,5898.692845885172
1.168,-1.18088868083634,5900.911957920694
1.172,-1.1821059011167698,5909.593780239354
1.176,-1.189487543923545,5902.072575233001
1.18,-1.2010389224209659,5895.507125034202
1.184,-1.2140757958388981,5909.965277975399
1.188,-1.2256700514153718,5895.364277946133
1.192,-1.2331117731700851,5898.0544380936735
1.196,-1.2342991240086385,5902.861208216605
1.2,-1.2280532761569112,5901.102011050463
1.204,-1.2144178436527129,5892.638046031915
1.208,-1.1949316500216667,5890.182634754006
1.212,-1.1727090072785313,5908.5099789752285
1.216,-1.1520924838590654,5898.358361007376
1.22,-1.1377814097827146,5899.711566244289
1.224,-1.1336262126549421,5907.84794139855
1.228,-1.1415053577491538,5900.164108091651
1.232,-1.1607183693218261,5887.966864191673
1.236,-1.1881553692082611,5897.107181728027
1.24,-1.2192118512978676,5898.110503656631
1.244,-1.2490854476074384,5895.734472934292
1.248,-1.2739029823414816,5898.13159857291
1.252,-1.2912690257281858,5904.603551243902
1.256,-1.300224953360771,5910.065110267793
1.26,-1.300921017516246,5903.3733497508965
1.264,-1.2942909095988115,5895.290689104212
1.268,-1.2817956807713369,5898.330603652662
1.272,-1.265158376931813,5897.558755997707
1.276,-1.2460532730928264,5899.071139493636
1.28,-1.2258408326584491,5890.842317585532
1.284,-1.2055043103205525,5900.723810781122
1.288,-1.1858534587709881,5901.4210310055305
1.292,-1.1678573398689456,5898.894060725322
1.296,-1.1528470164944145,5897.389705646264
1.3,-1.142420244990919,5903.754820605052
1.304,-1.1380782801605311,5894.555608642273
1.308,-1.1407527323126008,5896.099565279868
1.312,-1.1503938257488397,5897.319777112229
1.316,-1.165752118754674,5905.041840441902
1.32,-1.1844494613168368,5896.073949623376
1.324,-1.2033914719120071,5902.344532928866
1.328,-1.2194730340601214,5892.727017876286
1.332,-1.230378510726341,5902.039925838053
1.336,-1.235179207276735,5894.424903789813
1.34,-1.2344766821693847,5892.355277714556
1.344,-1.2300217388850345,5897.586921442878
1.348,-1.2239498530481308,5901.812660003792
1.352,-1.2179123771301266,5907.965578126259
1.356,-1.2124182655042928,5900.021452643019
1.36,-1.2066405668194564,5893.947735432654
1.364,-1.1988015551823645,5894.927231033154
1.368,-1.1870644514251034,5899.827025719173
1.372,-1.1706518810957898,5898.247694036025
1.376,-1.150725117435644,5911.191194125245
1.38,-1.1305451203830992,5899.106387708767
1.384,-1.114727217865323,5898.772346223692
1.388,-1.10786180621237,5908.457720402819
1.392,-1.1130784563257983,5894.324551696465
1.396,-1.1310929599154962,5899.455136922657
1.4,-1.1599871588341124,5893.715592778373
1.404,-1.1956576818753688,5897.538641800176
1.408,-1.232702677012664,5898.205715881382
1.412,-1.2655078682657495,5900.009717100536
1.416,-1.289331063296468,5904.144267482154
1.42,-1.3011830325149256,5897.294964498993
1.424,-1.3003098048521247,5904.896976668122
1.428,-1.2881725057311,5901.041478025894
1.432,-1.2679668390841936,5905.064769434326
1.436,-1.2438361887764977,5900.098936388674
1.44,-1.2199710037925693,5892.918874383367
1.444,-1.1997790268427408,5899.57952146968
1.448,-1.1852975398132946,5896.181057026445
1.452,-1.1770049117068917,5898.795859917077
1.456,-1.1741195326089726,5901.918009300658
1.46,-1.1752935075576763,5898.843017941104
1.464,-1.1793766934416223,5910.035660527015
1.468,-1.1858328044960138,5902.417099080634
1.472,-1.1945762321220812,5913.220228800854
1.476,-1.205382212401855,5908.848098094417
1.48,-1.2173295492674812,5896.888919508971
1.484,-1.2287293369228074,5906.379197112871
1.488,-1.2376678664822383,5901.4841152294175
1.492,-1.2428597542721882,5896.580214653698
1.496,-1.2442649487086397,5895.84887391954
1.5,-1.2430664196550214,5890.052563170661
1.504,-1.2410438029696966,5896.4996601436005
1.508,-1.2397599809556108,5898.649233127935
1.512,-1.2400163385603291,5898.497796766788
1.516,-1.2417710923534542,5898.813504624658
1.52,-1.244406738235142,5903.729063740136
1.524,-1.2470829190115924,5894.895023601202
1.528,-1.2489733889178358,5898.859914868935
1.532,-1.2493621420912453,5903.459639538037
1.536,-1.247692284958684,5900.840380581753
1.54,-1.2436412091929134,5895.420416620842
1.544,-1.2372161269217608,5895.512759098921
1.548,-1.2288389135315538,5899.548724295753
1.552,-1.2194240415941728,5903.636130183228
1.556,-1.2104587278527643,5902.607624922424
1.56,-1.2040280575427558,5906.523396742337
1.564,-1.2026681125028962,5899.566058954159
1.568,-1.2089640128393269,5901.3380841191565
1.572,-1.2249165217564728,5906.946011341859
1.576,-1.2512072983650335,5894.183482226846
1.58,-1.286565272680036,5896.473591397169
1.584,-1.3274632393671268,5904.170373361173
1.588,-1.3683347455110937,5900.964955791266
1.592,-1.4023928631903093,5892.077939538064
1.596,-1.4229730914876457,5893.626364955987
1.6,-1.4251443157465,5894.356290141858
1.604,-1.4071830843842696,5910.699887164944
1.608,-1.3714431926357147,5899.052217656759
1.612,-1.3242350567120056,5896.829107898756
1.616,-1.2745968120532807,5896.812852456531
1.62,-1.2322218520150936,5891.006806143801
1.624,-1.2051208181614008,5896.569332768936
1.628,-1.1976837092342707,5891.347277110519
1.632,-1.209653394199829,5895.024250336644
1.636,-1.2362255347398785,5893.321574849208
1.64,-1.2691960359810337,5897.671284869904
1.644,-1.2988815144561279,5893.447405434501
1.648,-1.3164127954643963,5905.290816000283
1.652,-1.3158837025423211,5890.672735181217
1.656,-1.2958006906924697,5907.607462731347
1.66,-1.2594698970069096,5893.235065072403
1.664,-1.2143497561774177,5899.996346905329
1.668,-1.170730510615476,5900.301519898892
1.672,-1.1401203475524062,5896.351363017021
1.676,-1.1334435717977949,5901.690412231301
1.68,-1.1588993445130702,5900.832447456816
1.684,-1.2193752699526463,5900.816643715074
1.688,-1.3096476017989707,5896.904706163693
1.692,-1.4140098965388601,5893.64509351623
1.696,-1.5052568367490688,5905.660490145245
1.7,-1.5460021687998207,5901.256340108674
1.704,-1.493070919696777,5896.003095296729
1.708,-1.3051210649398834,5902.752777087252
1.712,-0.9526597623287951,5906.0538048330045
1.716,-0.42831497691059567,5903.776923418537
1.72,0.24592770069830555,5895.344794061337
1.724,1.0180065934028208,5894.4687495817625
1.728,1.813573607964512,5898.844024551479
1.732,2.551124273750932,5913.666756992097
1.736,3.15986850852707,5919.608663301829
1.74,3.5942671148544427,5917.441408051098
1.744,3.8407507858587895,5943.405142847608
1.748,3.9156226719227036,5951.585370537565
1.752,3.856344392159811,5969.096779986032
1.756,3.7099895099703533,5982.011163275273
1.76,3.5225137479607502,5993.362460788542
1.764,3.3312272230402726,6001.750366525937
1.768,3.1612740230350678,6002.833671240814
1.772,3.0256597010214077,6016.193594470312
1.776,2.927632191382383,6028.779358637764
1.78,2.86398300613876,6020.453391699266
1.784,2.8280497303111134,6053.173255331714
1.788,2.811760297302244,6047.468585300729
1.792,2.8067116399041137,6067.692010112324
1.796,2.804743976180593,6082.188970129913
1.8,2.798563036859819,6073.351608226274
1.804,2.7826320231590294,6087.236836268965
1.808,2.7540521241061398,6089.984597334356
1.812,2.712914727728919,6099.315639158541
1.816,2.6618303624884403,6111.154824626718
