时间(s),电压(V),幅值(高频80K)
0.0,-1.2649181597710824,5897.53166741332
0.004,-1.2851448180426188,5894.159309082418
0.008,-1.3036023675808563,5893.647188371673
0.012,-1.3183497276743616,5899.556631427511
0.016,-1.3279440117225088,5903.26286174039
0.02,-1.3316031759956233,5896.452253014591
0.024,-1.3291466178870712,5896.630061827484
0.028,-1.3207854155985037,5904.0297242833485
0.032,-1.3070096244826057,5907.175669716298
0.036,-1.2887022929976681,5894.152963399613
0.04,-1.2672977419313622,5904.930573469377
0.044,-1.2447063278509456,5904.546879777375
0.048,-1.2229887420754826,5902.606852018073
0.052,-1.2040317646615806,5904.327591110702
0.056,-1.1894024432629717,5902.920481803824
0.06,-1.1802699014192595,5901.77617795631
0.064,-1.1771949422820207,5897.718020169301
0.068,-1.1798149918370358,5893.2826544931695
0.072,-1.1867037173356516,5900.954795059863
0.076,-1.1956649443885343,5902.103632481636
0.08,-1.204434632270875,5902.91433126313
0.084,-1.211460242864742,5903.925496615226
0.088,-1.2163537998525789,5891.547393931813
0.092,-1.2198112558619982,5905.444877204742
0.096,-1.2230749181864615,5898.282807134701
0.1,-1.2271951321477856,5894.818636061022
0.104,-1.23238455947838,5903.894039150682
0.108,-1.2377177149435992,5904.326062540883
0.112,-1.2413344864291647,5895.694221097487
0.116,-1.2411278322279213,5896.958266591558
0.12,-1.235664515442851,5893.215225460799
0.124,-1.2249366567288784,5901.143013575445
0.128,-1.2105790035742838,5903.074032612847
0.132,-1.1954090694657689,5894.074894025656
0.136,-1.1824728159766396,5908.061016999319
0.14,-1.1740511742062034,5899.8044227415
0.144,-1.1711105386680145,5903.351546641314
0.148,-1.1734169703753805,5900.288372914458
0.152,-1.1801563412825529,5893.448233275904
0.156,-1.190639337240788,5901.590415089464
0.16,-1.2046460684148599,5900.957625366738
0.164,-1.222190645023466,5899.893649368387
0.168,-1.2428463431754382,5899.8789013872565
0.172,-1.265050762492624,5902.425238799771
0.176,-1.2858420763885974,5893.939376377756
0.18,-1.3012693019732833,5906.813269487287
0.184,-1.3074080594864175,5893.270335951408
0.188,-1.3016435250734748,5891.476456684768
0.192,-1.283734386172143,5897.985032959765
0.196,-1.2561886176609494,5912.520095170755
0.2,-1.2237177883967825,5895.163182666998
0.204,-1.191956530602555,5892.975212591013
0.208,-1.1659922307690227,5891.742305102452
0.212,-1.1492735374934009,5895.873281740405
0.216,-1.1431727505188862,5894.418627019115
0.22,-1.147140005657196,5898.441505916724
0.224,-1.1592131633728002,5907.639879414267
0.228,-1.176642076074637,5900.320910420538
0.232,-1.1964652995982477,5905.03575559558
0.236,-1.2159593152451251,5904.021880819383
0.24,-1.23292061441556,5901.851754774519
0.244,-1.2457687557183512,5907.782876772155
0.248,-1.2535268243497224,5899.378660118022
0.252,-1.2558113630321435,5907.3363031176805
0.256,-1.2529381950472316,5895.39448491052
0.26,-1.2460916784442966,5909.58172214721
0.264,-1.2373487204782705,5901.436416912059
0.268,-1.229373338354353,5897.660054928351
0.272,-1.224804633178162,5899.239842344169
0.276,-1.2255635028195309,5900.727746791987
0.28,-1.2323488202267232,5890.363627321679
0.284,-1.244496918688509,5900.898228062267
0.288,-1.2602207086287454,5899.834997651116
0.292,-1.2770896316871414,5899.044117331932
0.296,-1.292536338759401,5903.705516408294
0.3,-1.304245116207614,5894.595261467422
0.304,-1.3104344630676728,5894.53495725679
0.308,-1.3101285920652255,5905.658661827077
0.312,-1.3034326624503145,5900.440354905227
0.316,-1.2916790071596418,5896.372468820603
0.32,-1.277253676379831,5892.335997932712
0.324,-1.2630099196371471,5903.014087414983
0.328,-1.2513824487974723,5895.705624885194
0.332,-1.2435239900126454,5905.46221238583
0.336,-1.23886160028651,5896.599012633802
0.34,-1.2353270133805578,5891.028739837502
0.344,-1.2302072127867818,5895.69244149582
0.348,-1.221283262168557,5902.900273438069
0.352,-1.2078307353174602,5903.482447639278
0.356,-1.1911223711091832,5896.764054624332
0.36,-1.1742272752061258,5896.839807912573
0.364,-1.1611338560107456,5896.059555596887
0.368,-1.155488334323822,5900.96034142343
0.372,-1.159386210054644,5902.22112880392
0.376,-1.1725948947904241,5897.0557032003935
0.38,-1.1924043706351908,5901.230871236452
0.384,-1.2141217237982125,5896.387362048053
0.388,-1.232088308908926,5896.978182948675
0.392,-1.2410015499084164,5895.753941985873
0.396,-1.2372648694523165,5900.800461387604
0.4,-1.220065702466544,5887.1066068402415
0.404,-1.1919000300046398,5904.298464386403
0.408,-1.1583452326885557,5898.878155939688
0.412,-1.1270356310436669,5907.896600876197
0.416,-1.105991092048749,5895.015424880483
0.42,-1.1016504971006973,5894.353128041431
0.424,-1.1171180425473122,5897.814381535471
0.428,-1.1511690368895546,5895.330576263053
0.432,-1.1984089402972018,5893.109349644897
0.436,-1.250631422262974,5906.819563839626
0.44,-1.2989936922374465,5901.406994905118
0.444,-1.3362931665272069,5899.886291773622
0.448,-1.3585519878732648,5893.944520423958
0.452,-1.365399857033639,5896.3793307053065
0.456,-1.3592919841599642,5902.773351738744
0.46,-1.3440749820357198,5899.248144052634
0.464,-1.3235546940180063,5891.670518024312
0.468,-1.3005707507286153,5903.586102981598
0.472,-1.276815067428001,5901.771454005142
0.476,-1.2533121247261867,5905.996956306061
0.48,-1.2311669896915194,5902.435736300658
0.484,-1.2120614246203858,5899.015557545246
0.488,-1.1981728819256694,5899.987032699135
0.492,-1.1915869362655245,5900.027422527648
0.496,-1.1935633437774356,5902.723314084888
0.5,-1.203995819071888,5904.690368274317
0.504,-1.221190691142314,5899.958825303543
0.508,-1.241953224100453,5896.909884737735
0.512,-1.2619895502253318,5900.9791098115165
0.516,-1.2766465790615427,5897.652507866291
0.52,-1.2819062456786523,5889.409185171203
0.524,-1.2753945058181946,5901.535646170443
0.528,-1.257083664541161,5890.298019276806
0.532,-1.229411225973407,5891.427709622257
0.536,-1.1967148104242233,5890.888004232547
0.54,-1.1641654110425677,5884.1743608059705
0.544,-1.1366313769712042,5901.333342415067
0.548,-1.1178977266906236,5908.881712180804
0.552,-1.1103524384549552,5906.941775664433
0.556,-1.114914517234146,5887.631036010571
0.56,-1.1309308923545238,5904.413388781859
0.5640000000000001,-1.1559933038910195,5894.091517754887
0.5680000000000001,-1.185877943729857,5898.163757207763
0.5720000000000001,-1.214917067888974,5905.570305141766
0.5760000000000001,-1.2370005924068952,5900.894635433243
0.58,-1.247075978233758,5904.290694190226
0.584,-1.2426483593387836,5907.656252702928
0.588,-1.2246657523337832,5898.390922762304
0.592,-1.1974015370059634,5897.725982871774
0.596,-1.1673523407586999,5899.848605800891
0.6,-1.141533961123667,5894.253421845495
0.604,-1.125742728443851,5900.586452992448
0.608,-1.12330062935981,5900.686809353111
0.612,-1.1345692191773813,5906.886511400473
0.616,-1.1572341303610627,5898.754289073129
0.62,-1.187146663195867,5901.974250635717
0.624,-1.2194189215432605,5896.770426842882
0.628,-1.2495086243868512,5901.240896197213
0.632,-1.274118474630033,5897.5081099987865
0.636,-1.2917618875850891,5894.389641486222
0.64,-1.302833323078493,5902.174747277437
0.644,-1.3091079357112247,5896.84643618884
0.648,-1.3128216253756804,5899.523405549103
0.652,-1.31570496440947,5901.916421593977
0.656,-1.3183904187735758,5893.464467803021
0.66,-1.320429148635305,5901.818028193419
0.664,-1.3208238858040604,5907.929880060797
0.668,-1.3186881483077442,5899.384786167805
0.672,-1.3135872855926594,5893.028844419088
0.676,-1.3053856454569615,5902.174164376255
0.68,-1.2938369622548043,5895.564558016764
0.684,-1.2783708593227157,5899.193340706913
0.6880000000000001,-1.258371003160421,5899.828221898686
0.6920000000000001,-1.233876452744687,5903.597357530988
0.6960000000000001,-1.2063568667892104,5899.814390627346
0.7000000000000001,-1.1791322683652685,5892.091214388846
0.704,-1.1570911479917734,5899.828859610933
0.708,-1.1455836773689405,5890.906134027353
0.712,-1.1487163191300127,5905.085858051866
0.716,-1.1676304352685418,5891.710925924748
0.72,-1.1995026765178332,5904.932525747265
0.724,-1.2378153576868418,5902.579622715208
0.728,-1.2739564013342572,5896.046771313669
0.732,-1.2996483466708335,5902.684951082367
0.736,-1.3093422708472622,5907.45665943329
0.74,-1.3017048853575741,5899.013430039751
0.744,-1.2796837005387733,5898.145675948618
0.748,-1.2492163176277407,5903.705985658686
0.752,-1.2171841970011452,5901.588514543305
0.756,-1.1894278584636508,5909.863823916716
0.76,-1.1694691520155276,5898.490191897878
0.764,-1.1581915654919286,5903.115537146326
0.768,-1.1543476840177487,5901.349665095731
0.772,-1.1555339417668373,5901.730855079556
0.776,-1.1592074853388472,5898.56616663246
0.78,-1.1633935666102095,5906.3001497995965
0.784,-1.166935368043533,5897.541725408841
0.788,-1.1693935162060811,5901.317539888308
0.792,-1.1708495659209543,5896.886856941181
0.796,-1.1718178456790036,5892.24522109744
0.8,-1.1732872747911953,5904.041176460016
0.804,-1.1767347257898082,5898.276406370307
0.808,-1.1838982077307731,5899.862487714347
0.812,-1.1962220140607052,5897.888733508733
0.8160000000000001,-1.214108109532183,5897.467017439544
0.8200000000000001,-1.2362884638179419,5902.925149552721
0.8240000000000001,-1.2596878359878556,5910.45578082302
0.8280000000000001,-1.280028101343269,5894.535284678042
0.8320000000000001,-1.2931124070958115,5901.981502203165
0.836,-1.2963467702226499,5898.801757870532
0.84,-1.2898572613121768,5897.561454796633
0.844,-1.2766783054686386,5895.563588733924
0.848,-1.2618565100493564,5901.111901162174
0.852,-1.2507781114743834,5892.278918282035
0.856,-1.2473861856367003,5904.067327716917
0.86,-1.2530050834426012,5889.600541334411
0.864,-1.266190144343234,5893.971629074375
0.868,-1.283544946163025,5901.011473600799
0.872,-1.3010454610013051,5898.9659706658895
0.876,-1.3152670020574586,5902.416648312437
0.88,-1.324094262411253,5908.5715061117535
0.884,-1.3268710960425285,5899.884329434687
0.888,-1.3242045331369492,5894.882182259362
0.892,-1.3176085299013889,5901.541995747091
0.896,-1.3090297483254414,5896.60870830077
0.9,-1.3002765444889597,5903.591109340582
0.904,-1.2924740501139038,5909.360857941488
0.908,-1.2857539218120875,5905.498111650662
0.912,-1.2793581365827729,5899.015685778224
0.916,-1.2721625258212264,5900.564312311337
0.92,-1.2633875920074649,5894.465782211511
0.924,-1.2531474959496105,5902.429920520615
0.928,-1.2425947180456924,5900.444728757346
0.932,-1.2336313337461597,5900.163193889006
0.936,-1.2283031599691867,5897.992998596942
0.94,-1.2280507808220071,5891.229581920744
0.944,-1.233042465577372,5902.023236954387
0.948,-1.241846897471595,5893.1401029054605
0.952,-1.2516223052911322,5900.050869062723
0.956,-1.258796453437599,5894.042319762888
0.96,-1.2600125447107389,5889.506713559126
0.964,-1.2530386854558901,5902.192509831059
0.968,-1.2373988908862956,5903.85970243292
0.972,-1.214611179423819,5898.5535295722575
0.976,-1.18801807964457,5901.046228623292
0.98,-1.162222193769848,5893.961016429813
0.984,-1.1421571652063829,5897.393566137199
0.988,-1.1319278312893348,5897.8217597240655
0.992,-1.1337060398502856,5897.160936570173
0.996,-1.147017591591197,5907.43102143415
1.0,-1.1686381838044066,5906.943944654568
1.004,-1.1931336072072194,5891.671443998815
1.008,-1.2139540815150573,5897.91432089209
1.012,-1.2249289305027953,5904.184550736351
1.016,-1.221905815196123,5904.437037369373
1.02,-1.2041002134395018,5903.314652681285
1.024,-1.1746283310581178,5898.29369794212
1.028,-1.139897341916493,5907.811228805397
1.032,-1.1079675900095476,5902.97891794438
1.036,-1.0863888214965267,5899.577211438233
1.04,-1.0801475070282436,5900.21519501016
1.044,-1.0902892088678366,5899.732405742998
1.048,-1.1135993855961268,5901.509840345581
1.052,-1.143446037613704,5889.044080371335
1.056,-1.1715413782277628,5898.692793937101
1.06,-1.190120525819498,5901.680472938295
1.064,-1.193970210305521,5902.525978394919
1.068,-1.1818126506744229,5892.761657983442
1.072,-1.1566932179794687,5908.339281701372
1.076,-1.1252568648488854,5897.7161053590935
1.08,-1.096106929734825,5897.660094409138
1.084,-1.0777008327104396,5900.305033579755
1.088,-1.0763450194219562,5902.793568085977
1.092,-1.0947887424826725,5898.361058806428
1.096,-1.1317192714652933,5897.280760908438
1.1,-1.1821928069257863,5899.4943239491
1.104,-1.2387902538392672,5892.234441497215
1.108,-1.2931486562551355,5898.964292739067
1.112,-1.3375060929640428,5902.399549775702
1.116,-1.3659837165363888,5898.626900291292
1.12,-1.37546276262466,5906.47075341567
1.124,-1.3660155690354887,5910.103478969068
1.128,-1.3408704340613211,5900.35278819534
1.132,-1.3058819765505414,5901.485804778651
1.136,-1.2685177398619776,5898.600997934586
1.14,-1.2364615885539996,5895.235218422531
1.144,-1.2160460262499824,5897.048232937775
1.148,-1.2108502727485353,5893.882767330549
1.152,-1.2208874774798806,5903.535347325889
1.156,-1.2427354440256568,5898.658244022031
1.16,-1.2706718641385515,5903.9252372911305
1.164,-1.298445535009342,5889.461245511474
1.168,-1.3209917885252784,5891.874970592289
1.172,-1.3354381053790472,5896.470065633268
1.176,-1.3411618546740898,5897.762696615458
1.18,-1.3391549944092818,5904.33129562245
1.184,-1.3311828410737017,5895.985523510526
1.188,-1.3191304202314886,5904.72425251238
1.192,-1.3046877843632125,5897.815685277989
1.196,-1.289328781122551,5908.214106577622
1.2,-1.2744395110864706,5894.163682159593
1.204,-1.2613932696968035,5902.741071475006
1.208,-1.2513637175967238,5895.771840086699
1.212,-1.244841299294627,5906.231810365646
1.216,-1.241130396108499,5889.357611200123
1.22,-1.2382617908877818,5898.76535939677
1.224,-1.2335504216443822,5898.383245233719
1.228,-1.2246086442722475,5889.937592103068
1.232,-1.2103192118039956,5895.653278182611
1.236,-1.191286423248391,5904.3476005648745
1.24,-1.1695825745073554,5897.679210700696
1.244,-1.1479740125180597,5894.51789277073
1.248,-1.1290147382750437,5897.235223655468
1.252,-1.1143606954714516,5888.3965871702085
1.256,-1.1044926790713108,5904.748082647625
1.26,-1.098884002680464,5894.577559833129
1.264,-1.0965441884182354,5893.797515114364
1.268,-1.0967456934643545,5902.839657701772
1.272,-1.0995994876883033,5900.140940268696
1.276,-1.1061534407673221,5899.325307504227
1.28,-1.1179548098751286,5901.808064027524
1.284,-1.1363525577755569,5902.02755030442
1.288,-1.1619128486502737,5891.755737929741
1.292,-1.1941407249890472,5890.975937061081
1.296,-1.2314693352247479,5899.704180255569
1.3,-1.2713867195210706,5891.118821804317
1.304,-1.3106170077270898,5905.623005475989
1.308,-1.3453683009125856,5888.580094495879
1.312,-1.3717335446121568,5904.817721490933
1.316,-1.386313757461854,5907.250636449063
1.32,-1.3869928975903538,5890.046635845144
1.324,-1.3736358782555596,5908.140217968168
1.328,-1.3484494821332282,5898.115801954472
1.332,-1.3158272472718548,5900.073966112617
1.336,-1.2816026447182982,5896.469069172047
1.34,-1.2517776227967232,5902.869648657319
1.344,-1.2310140389754456,5909.630529964197
1.348,-1.2213616717938953,5898.655832431479
1.352,-1.221682093132882,5894.736058999363
1.356,-1.2279989417823534,5890.292526607048
1.36,-1.2346961471722675,5906.125283904611
1.364,-1.2362211197645219,5896.250948526786
1.368,-1.2287904847942677,5899.727571088737
1.372,-1.211581964159262,5897.98277131751
1.376,-1.1870402358525054,5898.5004818275775
1.38,-1.16017569043227,5896.066868411314
1.384,-1.1370206574897537,5895.058637280166
1.388,-1.1226956987260373,5907.563139518972
1.392,-1.1197588963125094,5897.992138517043
1.396,-1.1274789123955145,5896.228991714111
1.4,-1.142287200579549,5890.968922055285
1.404,-1.159143596139657,5896.920221225244
1.408,-1.1732481690844545,5898.853022134796
1.412,-1.181556348383772,5900.601182419479
1.416,-1.1837238920013573,5899.765322487453
1.42,-1.182257502781768,5906.79935775822
1.424,-1.1817874262278933,5906.403449065342
1.428,-1.1875801105778214,5912.931645212985
1.432,-1.2036550357993703,5904.640014376701
1.436,-1.2310624146311973,5911.476552055037
1.44,-1.2669209192660562,5907.394997975576
1.444,-1.3046497382490385,5902.70119778114
1.448,-1.3354563468377922,5904.530241815633
1.452,-1.3506705765925513,5907.2442950162
1.456,-1.3441706475426674,5902.521739758524
1.46,-1.3141168731507504,5906.82251644439
1.464,-1.2634938604630084,5897.492977047837
1.468,-1.1994014796774208,5906.98159606861
1.472,-1.1314347335473947,5902.083577332754
1.476,-1.0696990721780026,5888.909518402705
1.48,-1.0229644408516227,5899.330164477578
1.484,-0.9972695895563846,5904.655972010765
1.488,-0.9951216050047024,5902.433307251366
1.492,-1.0153486611641176,5892.509465377012
1.496,-1.053582364448026,5903.135889154075
1.5,-1.1032360510635641,5903.91777393312
1.504,-1.1567578690421516,5903.756029145396
1.508,-1.2069081957771506,5899.029921135839
1.512,-1.247829145947668,5898.050561729127
1.516,-1.2757324009225892,5893.1219139544
1.52,-1.2891316115348297,5899.279481307687
1.524,-1.2886623042584084,5895.559841592204
1.528,-1.276628145669563,5902.048206965814
1.532,-1.2564589200515786,5899.78121330194
1.536,-1.2322248689507405,5899.991655724711
1.54,-1.208219949038415,5904.26591916438
1.544,-1.1885043799119304,5900.08668896846
1.548,-1.1763121926367066,5897.004974865783
1.552,-1.1733882107662843,5889.962300877846
1.556,-1.1794997120957933,5903.720149314571
1.56,-1.192417756854711,5898.3448308304105
1.564,-1.2084995713872309,5900.48195068886
1.568,-1.2237102002865092,5895.219199457812
1.572,-1.2347062167988896,5900.172881166935
1.576,-1.2395983493318512,5900.708028044207
1.58,-1.2381754391663167,5893.223246730402
1.584,-1.231602192592226,5893.156728952937
1.588,-1.2218031417168702,5897.387622018819
1.592,-1.2108285837554713,5898.975170462829
1.596,-1.2004190780925865,5890.026285048338
1.6,-1.1918075487952582,5888.534795673299
1.604,-1.1856795837279885,5902.434867945531
1.608,-1.182240303708239,5897.823142453377
1.612,-1.181396878499601,5895.905443000972
1.616,-1.1830039543987936,5904.76790012509
1.62,-1.186997058862247,5905.65208179062
1.624,-1.193263845513433,5898.718196841272
1.628,-1.201320388137883,5895.553572107056
1.632,-1.2100745278391978,5898.435221490089
1.636,-1.2179578278514194,5895.785502053881
1.64,-1.2234753277068995,5888.814584570146
1.644,-1.2259322659901983,5897.740340398191
1.648,-1.2259540734799168,5904.493232161085
1.652,-1.2255080151066837,5893.724363878157
1.656,-1.2273884442068415,5908.333342892136
1.66,-1.2343646221762867,5906.590117025109
1.664,-1.248255997712656,5902.407574390538
1.668,-1.2691162508472098,5899.95537356433
1.672,-1.2946717406285742,5900.140465491183
1.676,-1.320262359222788,5893.125196520156
1.68,-1.3395650926619822,5899.504420224524
1.684,-1.3461381216875699,5897.991166436953
1.688,-1.3354445399962038,5897.825285041454
1.692,-1.3067936742222794,5894.654010508168
1.696,-1.2646517943336233,5905.676964498894
1.7,-1.2188767857102416,5897.382560439673
1.704,-1.1835169539552344,5901.235171628438
1.708,-1.1739462666750873,5901.730349229313
1.712,-1.2024189628963715,5903.296620229501
1.716,-1.272678652725794,5895.7250450290985
1.72,-1.3749423016945224,5897.533883266161
1.724,-1.4830614205632218,5899.803017054968
1.728,-1.5555608748430603,5889.253162591018
1.732,-1.5414617780083484,5904.169833903139
1.736,-1.3904987232217165,5893.998479872672
1.74,-1.0658470496460328,5901.165269554108
1.744,-0.5561752023171945,5898.9090781508285
1.748,0.11676657265421289,5904.510585020763
1.752,0.8982505697320446,5895.652116325843
1.756,1.709643852217139,5890.2897992589305
1.76,2.464648009819021,5913.389499114111
1.764,3.0878956897271292,5938.611698774743
1.768,3.529962904467931,5950.629158522137
1.772,3.7745213192099087,5980.322483876185
1.776,3.8367345748117754,5995.107370237633
1.78,3.7550421152449975,6003.267081161152
1.784,3.5799075643552083,6030.453598750239
1.788,3.3629213186525946,6049.3185940294425
1.792,3.1484793716746067,6065.983382716098
1.796,2.9688521464184867,6074.535084775558
1.8,2.842370782191494,6087.081154795887
1.804,2.773956374561988,6113.576607201533
1.808,2.757242641166995,6118.873084067779
1.812,2.777783271914679,6140.251738487512
1.816,2.816942884855443,6141.429589138861
1.82,2.855948807614058,6167.613723301883
