时间(s),电压(V),幅值(高频80K)
0.0,-0.7721936300844969,5902.465195554254
0.004,-0.8450659390742796,5898.184061783943
0.008,-0.9146556279652875,5895.415668102582
0.012,-0.9766875749631889,5893.828762635953
0.016,-1.0269612708905842,5893.786632649671
0.02,-1.0620427758239281,5903.047605260392
0.024,-1.0800345915270926,5906.851420908807
0.028,-1.0810994125150386,5898.724241711391
0.032,-1.067590953320509,5899.906800236899
0.036,-1.0437802872451785,5909.026381427019
0.04,-1.0151982778557362,5897.554449669272
0.044,-0.9876684544622881,5904.171503132678
0.048,-0.9662517628592,5902.037498651142
0.052,-0.9544363267107858,5906.133838439384
0.056,-0.9537986140824722,5901.302243156317
0.06,-0.9640784276574956,5901.768979780206
0.064,-0.9834446171666418,5905.974654002539
0.068,-1.0088655409179708,5900.550009916144
0.072,-1.0367031924022854,5900.238202045327
0.076,-1.0635606541034381,5902.782252076614
0.08,-1.0870848283766588,5909.431568206026
0.084,-1.106277485145883,5901.343367527653
0.088,-1.1211044567555413,5902.721585992034
0.092,-1.131608934277882,5901.454856137013
0.096,-1.1370273976707077,5902.191667903856
0.1,-1.1354335012325434,5895.353620044412
0.104,-1.1242266119248008,5904.534668225407
0.108,-1.101441291791484,5907.649738736181
0.112,-1.067449092891063,5892.399455640288
0.116,-1.0262587260295801,5896.346116839061
0.12,-0.9855556315360297,5898.38077261894
0.124,-0.9550598577410696,5903.920124145893
0.128,-0.9435715911626522,5893.951675602576
0.132,-0.9558020423836385,5897.352004384093
0.136,-0.9903535752366842,5898.1305730836375
0.14,-1.0398158228066523,5904.542779741275
0.144,-1.0930246652220728,5901.594978946942
0.148,-1.1385721483186457,5895.111604723973
0.152,-1.1681793475715405,5898.020319438765
0.156,-1.1787285297164207,5903.356571945416
0.16,-1.172380510860399,5907.827694476499
0.164,-1.1549551478538345,5902.873166298017
0.168,-1.1333812216204653,5892.678125879206
0.172,-1.1132974290620474,5902.8761301471495
0.176,-1.0976579575950673,5900.422018459122
0.18,-1.0866131988551726,5899.108530452268
0.184,-1.0783857472134184,5895.423221080599
0.188,-1.0706045235837942,5904.016833107747
0.192,-1.0615625413622192,5901.859326747998
0.196,-1.0509861167308903,5893.004640418031
0.2,-1.040095969952138,5902.194899508794
0.204,-1.0310147896506157,5909.837830880949
0.208,-1.025850586674218,5897.120007192741
0.212,-1.0258773143870303,5900.902800927804
0.216,-1.0310680741644822,5904.6699808135845
0.22,-1.0399852200180344,5909.787274427625
0.224,-1.049939375996219,5899.463532277086
0.228,-1.0574196326388376,5904.769048491843
0.232,-1.0588535863992778,5896.08067006525
0.236,-1.0516063665764317,5896.000476284332
0.24,-1.0348749764842384,5908.688518687836
0.244,-1.0100435526477924,5898.815413387033
0.248,-0.9802792272600944,5899.31520237258
0.252,-0.9495462251194711,5908.163917029461
0.256,-0.9215116267175332,5899.975851536765
0.26,-0.898810788158262,5896.233940685412
0.264,-0.8828843662529215,5902.831397226091
0.268,-0.8742924709784319,5900.348242241884
0.272,-0.8732151156151919,5903.82037022698
0.276,-0.8798137615469127,5904.295144184712
0.28,-0.8942304217556974,5904.199602751804
0.284,-0.916196889007061,5903.996548722393
0.288,-0.9444724193123443,5900.437155670703
0.292,-0.9764946139124009,5893.741476371528
0.296,-1.0085358710268708,5899.40822070578
0.3,-1.0363321602144717,5900.864869451029
0.304,-1.0558879211850696,5899.872001718967
0.308,-1.064178790387873,5897.813373109651
0.312,-1.0596664359175032,5909.200192116687
0.316,-1.0426703551523682,5903.182955551025
0.32,-1.015608470188602,5898.296972836582
0.324,-0.9829924939391478,5896.212739660602
0.328,-0.9509887354589742,5898.0816375251225
0.332,-0.926423145219644,5901.718026832799
0.336,-0.9153121837189113,5898.010200125164
0.34,-0.9212740619124037,5894.248893112553
0.344,-0.9443863196545221,5898.600730307171
0.348,-0.980995849071507,5893.337641534077
0.352,-1.0245960003352053,5902.890507939973
0.356,-1.0674290644001327,5902.84472636533
0.36,-1.1022657454087719,5895.326918457889
0.364,-1.123873694944505,5907.461156606847
0.368,-1.129842441070105,5902.770766785032
0.372,-1.120617267053926,5905.4696452441885
0.376,-1.0988530987823077,5907.19948552569
0.38,-1.0684491344240648,5916.458057343024
0.384,-1.033658038917206,5904.838986796762
0.388,-0.998462754820324,5901.051253155564
0.392,-0.9662250856713138,5901.037481624763
0.396,-0.9395751195330998,5900.354784847028
0.4,-0.9204969597674554,5903.104268221207
0.404,-0.9104715711456038,5887.402755584652
0.408,-0.9104844173460249,5906.711941859905
0.412,-0.9208166779698777,5896.96859832562
0.416,-0.9407258084299369,5901.1133094790885
0.42,-0.9682081738010218,5894.064455873902
0.424,-0.9999841472279637,5905.782194724843
0.428,-1.0317632941987465,5911.248938283969
0.432,-1.0588138938564529,5899.573594890941
0.436,-1.076822861741212,5907.813919017275
0.44,-1.0829006768038556,5898.340557039503
0.444,-1.0764039910712253,5892.556219735707
0.448,-1.0592038401572088,5904.316635411173
0.452,-1.0352399860296135,5901.013993752399
0.456,-1.0095345371258797,5903.99561383497
0.46,-0.9870379276431095,5896.815032513337
0.464,-0.971654679644079,5891.996666961373
0.468,-0.9656338474819179,5902.575367560752
0.472,-0.9693410179822878,5896.121304907302
0.476,-0.981343576304267,5893.171158277365
0.48,-0.9987363830046322,5897.00492527151
0.484,-1.0176526085230075,5902.730406275995
0.488,-1.033925698461881,5898.925430870888
0.492,-1.0438785260620767,5900.82221496027
0.496,-1.0451411641142827,5902.238143890388
0.5,-1.0372541779079225,5894.650591293197
0.504,-1.0217902162182604,5901.334942677638
0.508,-1.0019291116546927,5911.04691653636
0.512,-0.9816747748419007,5902.5097802885175
0.516,-0.9649894051524686,5907.056596968005
0.52,-0.9550579959808534,5903.624121166022
0.524,-0.9538095346776845,5908.557811564074
0.528,-0.9617323610753263,5895.05885416462
0.532,-0.9779225693027722,5903.758929276453
0.536,-1.0002723415398174,5910.540483459121
0.54,-1.0257629785416427,5907.774124817795
0.544,-1.0508633278183674,5904.323772232488
0.548,-1.0719897450931697,5885.639962775779
0.552,-1.0859495228625713,5891.661661666928
0.556,-1.0903317081450632,5902.4048108711895
0.56,-1.0838568192417795,5896.782624951141
0.5640000000000001,-1.0666662837821692,5898.513240224097
0.5680000000000001,-1.040457002597128,5905.917446953432
0.5720000000000001,-1.0083385470379145,5895.461073608072
0.5760000000000001,-0.9743446952503969,5902.871948037625
0.58,-0.9426636729900927,5901.941296905929
0.584,-0.9168288326560537,5911.933768606717
0.588,-0.8991841229565544,5896.807211905955
0.592,-0.8907697464948686,5906.810608170149
0.596,-0.8914968880490671,5897.912221286731
0.6,-0.9003759652799739,5904.378126238474
0.604,-0.915690256455624,5899.0822733250925
0.608,-0.9351730300552039,5904.705810922038
0.612,-0.956269370643756,5907.593930485113
0.616,-0.9764433914245448,5894.9620165076585
0.62,-0.9933883939485488,5904.0742487298085
0.624,-1.0050781330855054,5899.783917404734
0.628,-1.009813980228012,5898.760465207778
0.632,-1.0064983102148164,5904.180482243163
0.636,-0.9951482459324414,5893.289018839463
0.64,-0.9773828356339469,5896.286833672074
0.644,-0.9565537057070609,5898.909029758745
0.648,-0.9373236424584661,5903.191542279429
0.652,-0.9246921398617639,5900.222133372315
0.656,-0.9227022256880588,5902.040621753663
0.66,-0.9332741174518513,5901.76619066382
0.664,-0.955614065181441,5906.190393571735
0.668,-0.9863981534089531,5905.029926093355
0.672,-1.0206206053486033,5898.514515733459
0.676,-1.05279610600072,5896.807058228332
0.68,-1.0781343948583164,5900.805788845865
0.684,-1.093358880847529,5906.564093602509
0.6880000000000001,-1.097036133980608,5897.516151736027
0.6920000000000001,-1.0895341453614045,5904.999273438082
0.6960000000000001,-1.0728476248745464,5899.175549273932
0.7000000000000001,-1.050411247540626,5897.969425628402
0.704,-1.0267851825893242,5898.229807451097
0.708,-1.0070155023575835,5904.64040447036
0.712,-0.9956748646839158,5901.740680454591
0.716,-0.9958768308654472,5890.694588762578
0.72,-1.0086445988120918,5899.980888279806
0.724,-1.0328454359135508,5904.947559705461
0.728,-1.065614205595326,5891.88537855447
0.732,-1.1029630318442023,5906.5736293035525
0.736,-1.1402755682335066,5897.447477824208
0.74,-1.1726330552917499,5901.3937032218855
0.744,-1.195192446645295,5899.970980584869
0.748,-1.203868974577046,5900.504382424559
0.752,-1.196314216653589,5901.072195272954
0.756,-1.1728192343406338,5893.492283263754
0.76,-1.1366208805615154,5902.741875958868
0.764,-1.0933255879805868,5906.460801416783
0.768,-1.0496266223416575,5904.088170406616
0.772,-1.0118215285745564,5907.498781055207
0.776,-0.9846276987472857,5895.498701404505
0.78,-0.9705179492657781,5903.419249719065
0.784,-0.9695105113827871,5892.407326370205
0.788,-0.9792767538341822,5897.145622077009
0.792,-0.9955522641324375,5901.402929120025
0.796,-1.0129190536783876,5897.661279926307
0.8,-1.0259306910559527,5896.966219518338
0.804,-1.03036542015283,5901.570343958804
0.808,-1.0242590291957985,5896.692409888964
0.812,-1.0083688377465412,5900.753287622921
0.8160000000000001,-0.9858777173604722,5900.319456281507
0.8200000000000001,-0.961405979936848,5897.166177021451
0.8240000000000001,-0.9396259686845819,5896.645495711116
0.8280000000000001,-0.9238856140993484,5894.720642419662
0.8320000000000001,-0.9152646858978727,5896.714109684591
0.836,-0.9124177137419328,5902.192122529458
0.84,-0.912330058772652,5898.765411689609
0.844,-0.9117355030768663,5896.473716696831
0.848,-0.9086186780340334,5900.441102465655
0.852,-0.9031840106596468,5892.851773844217
0.856,-0.8979298859094713,5901.812071593698
0.86,-0.8968376154951477,5896.409924433662
0.864,-0.9039811329568626,5906.862311953561
0.868,-0.9220121992347927,5898.230635215356
0.872,-0.9510009033922323,5905.293903359701
0.876,-0.9880409102669496,5905.694027305121
0.88,-1.02783415711566,5896.574511999256
0.884,-1.0641344670667872,5903.663220650608
0.888,-1.0915623591973163,5894.402377434166
0.892,-1.1071049194481803,5896.325574041346
0.896,-1.1107274424366993,5901.918027008543
0.9,-1.1049176489687529,5896.442701366338
0.904,-1.09346174810178,5901.580152612401
0.908,-1.080054214674135,5901.1484543382185
0.912,-1.0673011885665662,5905.7784595905005
0.916,-1.0563650745688629,5890.471404029149
0.92,-1.0471884454013904,5899.24247344861
0.924,-1.0391134224987957,5912.883668569194
0.928,-1.0317043620117798,5903.347595549527
0.932,-1.0255225947666615,5894.688329036212
0.936,-1.0224937306007793,5900.94275636031
0.94,-1.0255424404275861,5905.74306299871
0.944,-1.0374700851719523,5892.060090626726
0.948,-1.0594622250108,5901.732414783257
0.952,-1.0898708529453374,5898.65479510283
0.956,-1.1239024155595232,5903.754942554365
0.96,-1.1545433240746215,5904.814105850137
0.964,-1.1745144206152107,5908.4421753383285
0.968,-1.178529185219977,5902.270670981682
0.972,-1.1649932818373094,5897.274357391216
0.976,-1.1365586317847558,5896.225400932854
0.98,-1.0993753482943758,5899.514608013412
0.984,-1.0613072904654945,5894.24834452035
0.988,-1.0297361715304203,5890.727455981159
0.992,-1.009717267326171,5904.200816392608
0.996,-1.0030393037220373,5903.533283542375
1.0,-1.0083155482042931,5899.185646316091
1.004,-1.0218584682696645,5903.365142301217
1.008,-1.0388903514277392,5903.789724339124
1.012,-1.0546098524356384,5901.165425264505
1.016,-1.0648084287735575,5886.57294078653
1.02,-1.0661003534666855,5907.268456501242
1.024,-1.0561264048893275,5903.940182168678
1.028,-1.0340160284015352,5895.036525001255
1.032,-1.0010205259472917,5895.8907407196
1.036,-0.9609071668750132,5904.318927697572
1.04,-0.9196727095910824,5889.864416832564
1.044,-0.8844205619881481,5899.657202000192
1.048,-0.8616954762414939,5902.0699955022965
1.052,-0.8558937768675521,5896.579721715227
1.056,-0.8683390867983464,5907.29195568222
1.06,-0.8972774869452642,5900.541780429498
1.064,-0.9386460762168222,5892.9936114834745
1.068,-0.9872160989676245,5895.280332371589
1.072,-1.0376775468240336,5899.746652548431
1.076,-1.0853761800068282,5893.983751205679
1.08,-1.1266323107826923,5893.224431869542
1.084,-1.158760761053429,5896.448539911316
1.088,-1.1800032169813965,5903.823139525706
1.092,-1.1895239375606779,5902.823332944725
1.096,-1.1874460899905364,5910.29208640505
1.1,-1.1748042359381676,5897.288856582335
1.104,-1.1533829673283271,5903.776490512771
1.108,-1.1255709815926387,5902.760502861232
1.112,-1.0943595660955927,5901.485863984743
1.116,-1.0634098384784882,5909.388945989263
1.12,-1.0368889088039277,5900.685305797777
1.124,-1.018787459302815,5898.100932157432
1.128,-1.011769085042964,5894.407555756471
1.132,-1.0160468350299303,5895.590249868473
1.136,-1.028958924103448,5891.144223666661
1.14,-1.0456454504921966,5901.719800724062
1.144,-1.0606919267810762,5896.981284541536
1.148,-1.0701228842833852,5907.540435236146
1.152,-1.072916561224469,5900.722513079269
1.156,-1.071369995840413,5897.057327406919
1.16,-1.0701303794617008,5897.000847116115
1.164,-1.0742764616683278,5899.514647236938
1.168,-1.0871815038722397,5903.113284760562
1.172,-1.1089027779746894,5903.80352389962
1.176,-1.1356238691767198,5900.618317837717
1.18,-1.160364997198382,5904.29102042549
1.184,-1.17482888183928,5901.719403808829
1.188,-1.1718960904991822,5897.930189529964
1.192,-1.1480234950715682,5909.7080712952575
1.196,-1.1047719933954119,5902.261627641895
1.2,-1.0489411386665706,5897.238899858569
1.204,-0.9912024227399863,5904.591823930087
1.208,-0.9435436284557339,5908.693617488679
1.212,-0.9161903726338791,5909.775652537478
1.216,-0.9148939211591409,5888.981368543222
1.22,-0.9394377838552449,5900.383113765829
1.224,-0.9838325591553292,5898.399954392358
1.228,-1.0380547404177647,5893.171039956045
1.232,-1.0906634435645555,5900.812759995484
1.236,-1.1314777638626576,5908.590998056571
1.24,-1.1536818989973776,5898.61551051679
1.244,-1.154999935104121,5890.498059509246
1.248,-1.1378044868091388,5910.402030692248
1.252,-1.1082054427985477,5895.212431289884
1.256,-1.074330199378204,5898.43456002487
1.26,-1.044155989993327,5894.740252533919
1.264,-1.0233894701866948,5892.26928879608
1.268,-1.0139617333028217,5896.105135607962
1.272,-1.0136131584868493,5898.7259578606
1.276,-1.0167412295342941,5898.790750000209
1.28,-1.016293069840867,5895.750980648455
1.284,-1.0061658515861203,5899.15759078103
1.288,-0.983401536495927,5900.899682175298
1.292,-0.9494586172825579,5897.635259828565
1.296,-0.9100759097987933,5899.5190992166845
1.3,-0.8737024149002461,5899.344552275396
1.304,-0.8489862995600798,5896.844788290617
1.308,-0.8421689019361861,5910.481048481597
1.312,-0.8552543895959668,5906.33660693382
1.316,-0.8854941971707745,5904.445551879146
1.32,-0.9262068060842352,5904.28235511606
1.324,-0.9685362607231407,5892.453633214993
1.328,-1.0036014443673946,5900.58336104583
1.332,-1.02453974949657,5893.734227279801
1.336,-1.0280516549891474,5895.801517641691
1.34,-1.0151304488011643,5901.056157522474
1.344,-0.9907664689733747,5902.846429374901
1.348,-0.9626353576140984,5904.952284520813
1.352,-0.939083328944265,5889.162522886442
1.356,-0.9269585030248585,5893.150465809784
1.36,-0.9298812649379742,5903.5647396576605
1.364,-0.9473908770717904,5891.716855256915
1.368,-0.9751438563957247,5903.877745306222
1.372,-1.00609301086567,5896.462232680244
1.376,-1.0323957600927778,5907.201616797379
1.38,-1.0476299027968385,5905.777707404151
1.384,-1.0486906355530365,5893.057371754906
1.388,-1.036654215577867,5908.178316348392
1.392,-1.016180541259318,5902.8518467235535
1.396,-0.9936762651012792,5902.672560768002
1.4,-0.9750280844957487,5901.040331095894
1.404,-0.9638211330237221,5895.061586564569
1.408,-0.9605906660089287,5897.89053602394
1.412,-0.9631592073767126,5895.7200078894
1.416,-0.9677646473465306,5899.259206546523
1.42,-0.9705185087223066,5910.173175709871
1.424,-0.9686832775754095,5892.884179440993
1.428,-0.9613583647891325,5895.427390645084
1.432,-0.9494554932412205,5904.880512786534
1.436,-0.9351640149059772,5906.283317040741
1.44,-0.9212318927943124,5896.556555462129
1.444,-0.9103257675876355,5903.964906790493
1.448,-0.9046203315345763,5906.948516387719
1.452,-0.9056238296836182,5889.957605017595
1.456,-0.9140870736647971,5899.7927406914405
1.46,-0.9298202704491757,5902.977317280863
1.464,-0.9514416923262495,5903.62380561784
1.468,-0.9763200115393538,5907.796353640835
1.472,-1.0009504915800975,5893.109519660434
1.476,-1.021689285414789,5900.014445746783
1.48,-1.0355010345656324,5895.6590798334255
1.484,-1.0404446225598836,5895.169334895518
1.488,-1.0358727948276156,5894.425204194719
1.492,-1.022425305677544,5903.661129503821
1.496,-1.0018369055466558,5905.393893832766
1.5,-0.976579156255544,5898.906005873542
1.504,-0.949461058430625,5900.985450641695
1.508,-0.9233589712180119,5902.431044337671
1.512,-0.9011293510652465,5899.744398989258
1.516,-0.885586192241194,5902.1852755361
1.52,-0.8793589978841668,5898.081252834616
1.524,-0.8845295398000363,5899.339646502815
1.528,-0.9021080384459854,5903.455249242318
1.532,-0.9315490421345671,5896.543277793649
1.536,-0.9705329582202821,5899.344277113421
1.54,-1.0151211521708332,5895.679827671023
1.544,-1.0602192061669256,5893.370468241899
1.548,-1.1002171565553205,5897.661591272732
1.552,-1.1297672847462947,5904.368679615632
1.556,-1.1447251850923477,5896.65934494748
1.56,-1.1431225710015867,5894.58097261792
1.564,-1.1257937728718252,5900.100230765125
1.568,-1.0962785778498874,5907.209986750327
1.572,-1.059938883746499,5903.190651256094
1.576,-1.022585129397795,5905.023090736933
1.58,-0.989081395487582,5892.617481425995
1.584,-0.9623702322626505,5895.167583117853
1.588,-0.9431852190704261,5905.28694639844
1.592,-0.9304627365552344,5903.9941189621695
1.596,-0.9222306700934537,5891.043440460638
1.6,-0.9166269738548664,5890.790466398541
1.604,-0.9126818540599443,5897.902374364538
1.608,-0.9105668770218606,5895.731510855091
1.612,-0.9112059088146653,5897.098937085158
1.616,-0.9154361629569678,5907.698126487373
1.62,-0.9231482556579511,5904.635698275221
1.624,-0.9328595166528316,5904.305416258512
1.628,-0.9419642309246946,5901.985359872206
1.632,-0.9475770773438373,5892.655347270306
1.636,-0.9476214516155499,5897.093600558114
1.64,-0.941737839781229,5906.338917005853
1.644,-0.9316739763725133,5903.891769981901
1.648,-0.920975464826809,5901.414164805093
1.652,-0.9140133279036841,5897.329771786295
1.656,-0.9146618002067498,5897.448798967331
1.66,-0.9251172548283222,5891.486607590447
1.664,-0.9452492318140697,5901.359839602958
1.668,-0.9725745407366801,5902.490678451814
1.672,-1.0027134151079056,5895.88610028195
1.676,-1.0301602568026653,5903.091743137024
1.68,-1.049270451013331,5901.768215036848
1.684,-1.0553636594012354,5895.770466155096
1.688,-1.045757418142111,5901.036614726478
1.692,-1.0204729028782757,5904.311220347544
1.696,-0.9823776679583198,5903.54788720419
1.7,-0.9366753595506899,5891.629053599065
1.704,-0.8898691309834479,5898.776915936753
1.708,-0.8484864671022198,5901.647810714005
1.712,-0.8178897026318214,5902.319023378092
1.716,-0.8014455188634788,5900.352030770769
1.72,-0.8002265129046754,5895.031421828215
1.724,-0.8132905986459076,5898.7990923307725
1.728,-0.8384439324531817,5911.928234066612
1.732,-0.8732157739388673,5896.061185486079
1.736,-0.9156040687668412,5891.080679502655
1.74,-0.9641808673798336,5904.628183298343
1.744,-1.0174888805850393,5887.892770070519
1.748,-1.0731171749898594,5904.7907648841365
1.752,-1.127069795896406,5906.580566731531
1.756,-1.1738944416725496,5899.353333942546
1.76,-1.2076661925272976,5899.899964255323
1.764,-1.2235371590753366,5899.313832168188
1.768,-1.2192951827717249,5895.86896891443
1.772,-1.1963116838010208,5900.12357927012
1.776,-1.1594516281976597,5902.272951127851
1.78,-1.1159132391693023,5898.337625908889
1.784,-1.0734024218100482,5893.379390384994
1.788,-1.0383092083580103,5900.25570913486
1.792,-1.0144807803796705,5899.653517297755
1.796,-1.0028564762804613,5900.832921949881
1.8,-1.0019093601367568,5889.8848685831845
1.804,-1.0086572040065491,5905.099066528245
1.808,-1.019883948126315,5899.773482098004
1.812,-1.0331388653836198,5895.243440091632
1.816,-1.0471782576773265,5898.127445739052
