时间(s),电压(V),幅值(高频80K)
0.0,-0.7791959296056422,5898.877343500583
0.004,-0.9448246291437594,5894.674979360505
0.008,-1.0904449124209008,5896.861962317748
0.012,-1.1993375635021952,5896.851570892206
0.016,-1.2620009677641737,5899.623247288138
0.02,-1.2773899987445276,5900.856386304318
0.024,-1.252192285108557,5905.346998473414
0.028,-1.1985694298566862,5903.427836666672
0.032,-1.1312162964525545,5889.533518342642
0.036,-1.0645700288503044,5887.152852202216
0.04,-1.0105986251621735,5894.85361527132
0.044,-0.9772673221040149,5897.675088984726
0.048,-0.9677689407998367,5900.964710986104
0.052,-0.9806579261496164,5902.483988243827
0.056,-1.0108372722921393,5897.446077015799
0.06,-1.0510102949693916,5900.9036494974525
0.064,-1.0930904835825739,5906.060914279554
0.068,-1.1293241846625877,5894.883261855137
0.072,-1.1532525702246141,5900.738570125485
0.076,-1.1606973843950699,5897.341305129791
0.08,-1.150631234403537,5902.744885282636
0.084,-1.1254979733369377,5900.361501608626
0.088,-1.0906952378861339,5894.179307807705
0.092,-1.0534090972079249,5899.597090647556
0.096,-1.0212729110836358,5896.49588525933
0.1,-1.0011511360950176,5902.694900118015
0.104,-0.9980746333557073,5899.174988809439
0.108,-1.0143817908749726,5897.400446490282
0.112,-1.0493031495087588,5905.061657432199
0.116,-1.0991587908513425,5897.358792506388
0.12,-1.1580229242845008,5896.049032950183
0.124,-1.2185494172640488,5894.2534041717845
0.128,-1.2728204450138523,5896.2791104245325
0.132,-1.313293410727686,5894.014317378807
0.136,-1.333881488375853,5901.872847431966
0.14,-1.3309911766409426,5894.933272798216
0.144,-1.3042252968801087,5900.920226293054
0.148,-1.2565354588851068,5904.277058325868
0.152,-1.1937689658037096,5896.199642057911
0.156,-1.123689731078392,5889.703112734719
0.16,-1.0546414574668326,5902.57235569814
0.164,-0.9941145572207403,5894.9043384421175
0.168,-0.9475906867440814,5901.286782696556
0.172,-0.9180406133814647,5904.242956349139
0.176,-0.9061870612789095,5890.062359420329
0.18,-0.9112273388095996,5895.1754629395455
0.184,-0.9315035640794,5894.41877336187
0.188,-0.9647823287907707,5895.246987325405
0.192,-1.0081326177981802,5895.822882951728
0.196,-1.0575978361143645,5899.330844557343
0.2,-1.107925009965552,5903.370713587777
0.204,-1.1526211087370202,5901.446547229748
0.208,-1.1845495591731172,5898.376980692785
0.212,-1.1971165309221303,5901.336469234406
0.216,-1.1858327951009158,5898.782360282616
0.22,-1.1497818803371356,5901.691868343667
0.224,-1.0924437289396502,5897.932721218127
0.228,-1.0214802517362005,5897.7828221726695
0.232,-0.947416146891428,5902.520652144701
0.236,-0.8815326409376568,5901.677647901466
0.24,-0.833583773104417,5902.069675790813
0.244,-0.8099876666702341,5897.951895167364
0.248,-0.8129255006263466,5901.220264179677
0.252,-0.8404464081431742,5906.930324247791
0.256,-0.8873685389758041,5899.272515605401
0.26,-0.9465608339272392,5890.68134252763
0.264,-1.0101735338618845,5899.320527726843
0.268,-1.0705860416759856,5899.114435192291
0.272,-1.121089184773355,5902.743294767171
0.276,-1.156407624463725,5904.203039248653
0.28,-1.1731221260748264,5908.431246351006
0.284,-1.1700187947559115,5911.607490545074
0.288,-1.148373711063846,5906.752755096346
0.292,-1.112096071339195,5900.102923687496
0.296,-1.0675378178727044,5908.230608394179
0.3,-1.0227523646952534,5899.654486573751
0.304,-0.9861303601875913,5899.7955988224285
0.308,-0.9646429240986425,5903.0370067204585
0.312,-0.9622295786737587,5904.389912285785
0.316,-0.9789447900650412,5894.528369292424
0.32,-1.0112089295548177,5907.1119298713
0.324,-1.0530300501480017,5894.256200677091
0.328,-1.0976633235105353,5895.243082217792
0.332,-1.1390786357765876,5904.741949535582
0.336,-1.172812040335837,5891.239394164799
0.34,-1.1961149638914739,5903.3124776313
0.344,-1.2076183794414148,5906.387589126789
0.348,-1.2069015765355817,5903.705890848537
0.352,-1.1943370757773624,5903.809059517938
0.356,-1.1713435119199829,5894.112735972735
0.36,-1.1408041866705714,5903.87240315253
0.364,-1.1071638086958273,5898.576101807075
0.368,-1.0758544805029384,5901.351971877397
0.372,-1.0521538479755959,5899.916597291552
0.376,-1.0399379930554093,5896.068265577268
0.38,-1.0407577521371345,5904.38225816057
0.384,-1.0533978900004217,5905.279923450681
0.388,-1.0739213642499483,5903.830976693015
0.392,-1.0962025327815275,5901.996751748092
0.396,-1.112927238746232,5900.717013188632
0.4,-1.1169430227416972,5891.348405344208
0.404,-1.102754022466696,5896.352610787673
0.408,-1.0678558037205832,5897.546830473045
0.412,-1.01351075391138,5899.053153774036
0.416,-0.9446419563032479,5907.906195193814
0.42,-0.8688454319218009,5907.661346735319
0.424,-0.7948710237638922,5895.990544253489
0.428,-0.7310308987905096,5902.9853166995445
0.432,-0.6838606096801756,5899.408426493485
0.436,-0.6571949227759823,5890.001008002132
0.44,-0.6517487873232549,5906.328315090054
0.444,-0.6652426867520989,5896.63379797878
0.448,-0.6930159294120746,5895.67697700494
0.452,-0.728978287533252,5897.201146129787
0.456,-0.7667095601204869,5904.854552352494
0.46,-0.8005197421180202,5897.665831726088
0.464,-0.8263181445653164,5890.313037176364
0.468,-0.8421987997833463,5893.492116072174
0.472,-0.8486978518779175,5895.343910017848
0.476,-0.8486842137034715,5904.945640363051
0.48,-0.8468226726418456,5898.498829733839
0.484,-0.8485806009648743,5897.151651803546
0.488,-0.8589108177203243,5896.681803343674
0.492,-0.8809650306260822,5890.958025462484
0.496,-0.9152845566312927,5893.727919459469
0.5,-0.9597682079061017,5907.177283132623
0.504,-1.0103971792506317,5898.730385093811
0.508,-1.062371932124805,5900.142860152366
0.512,-1.111174137901161,5902.394005208853
0.516,-1.1532090237370418,5908.548253829876
0.52,-1.1860096521927386,5905.398491450183
0.524,-1.2082380838477917,5907.442419711874
0.528,-1.219699701694868,5904.696146519694
0.532,-1.2213455986217199,5899.358947036999
0.536,-1.2150501312401425,5893.236340649449
0.54,-1.2030428135248783,5905.52788689527
0.544,-1.1871638935548128,5899.764142532374
0.548,-1.16831052809251,5906.145608128667
0.552,-1.1463714832592455,5902.148575588557
0.556,-1.1206895634873069,5894.635960532901
0.56,-1.0908309602197477,5894.074132329452
0.5640000000000001,-1.0573090270410068,5893.239649191939
0.5680000000000001,-1.0219409266737434,5894.862858331331
0.5720000000000001,-0.9876947388077741,5905.953460724546
0.5760000000000001,-0.9581346044029142,5892.813578920017
0.58,-0.9367302464959332,5904.896321915112
0.584,-0.926257869401216,5901.617139021749
0.588,-0.9283706703569257,5892.806109182581
0.592,-0.943330243289022,5906.022156474834
0.596,-0.969915243870085,5890.86526096414
0.6,-1.0055731929358063,5898.039833797387
0.604,-1.0468657645371076,5895.539211036359
0.608,-1.0901689576808287,5898.970716136682
0.612,-1.1324576750714823,5888.582846720089
0.616,-1.1718684631145517,5899.301446893116
0.62,-1.2077006596587585,5905.096535141935
0.624,-1.2397395157929274,5900.329006982458
0.628,-1.2672476350974193,5895.492180999829
0.632,-1.288319459942469,5897.918545972145
0.636,-1.3001259074993963,5896.66322898932
0.64,-1.2999616489615398,5898.1891139254585
0.644,-1.2864727386708426,5901.085230727776
0.648,-1.2603930468639168,5900.56379733433
0.652,-1.2244964215878793,5894.631955316722
0.656,-1.1829372063437025,5903.536893706521
0.66,-1.140392340016796,5889.725968911736
0.664,-1.101349844971373,5890.893010635195
0.668,-1.0696661200690276,5898.998903085819
0.672,-1.048333819527058,5902.184246497346
0.676,-1.0393331675140138,5906.219244349484
0.68,-1.0434645922757453,5899.655054382279
0.684,-1.0601471400378895,5897.950677251264
0.6880000000000001,-1.0872566326003048,5908.222727647673
0.6920000000000001,-1.1211144336046819,5905.271736474666
0.6960000000000001,-1.1567403920910342,5899.774348269176
0.7000000000000001,-1.1884798804332581,5884.985283773104
0.704,-1.2110264273970293,5897.94715843672
0.708,-1.2206159048344358,5901.948009371708
0.712,-1.2159234521328297,5906.779985817856
0.716,-1.198248740653796,5902.335663936503
0.72,-1.1709793835329583,5900.217796936957
0.724,-1.1387305404631942,5903.863850548826
0.728,-1.1065887960623968,5897.459853538594
0.732,-1.079556546865536,5908.139655172344
0.736,-1.061977988896254,5908.8561912026
0.74,-1.0567450008319887,5895.710983577775
0.744,-1.064397984651546,5909.26364597394
0.748,-1.0825613362880657,5901.404998907532
0.752,-1.106191975150923,5900.928812034106
0.756,-1.1287845328148625,5895.652410769832
0.76,-1.144167064728204,5881.040632727076
0.764,-1.148188938822038,5899.325702317309
0.768,-1.1396623413014673,5889.193797120716
0.772,-1.120287717409794,5901.192762926737
0.776,-1.0937228291179768,5886.972639501587
0.78,-1.0642540791356692,5899.4764217523225
0.784,-1.035620546979443,5898.085395300027
0.788,-1.0103997872691965,5896.80815035935
0.792,-0.990047106792483,5906.086466452083
0.796,-0.9753787362130752,5901.297338425014
0.8,-0.9671747313562484,5900.843113198176
0.804,-0.966614471768893,5891.6406217005615
0.808,-0.9753213852453095,5906.3231544613855
0.812,-0.9948902018546742,5893.1866869708765
0.8160000000000001,-1.0259733539171383,5905.743093510902
0.8200000000000001,-1.0672645772690066,5901.154310054124
0.8240000000000001,-1.1148863478033886,5900.976329299477
0.8280000000000001,-1.1626343120445046,5898.252719141923
0.8320000000000001,-1.203210826846829,5899.223238483791
0.836,-1.2300967293034233,5899.043623863694
0.84,-1.2393381705618296,5906.111003131331
0.844,-1.230523305517156,5897.00137794334
0.848,-1.2066086444171509,5897.173376176221
0.852,-1.1727878032618408,5897.866877974119
0.856,-1.1349666902590236,5895.190466424865
0.86,-1.0984340762576732,5901.290803249015
0.864,-1.0670421386771822,5903.898723017383
0.868,-1.0428760768860201,5900.104532796342
0.872,-1.0262340816804745,5895.087720103311
0.876,-1.0158090015423795,5895.834112397027
0.88,-1.0090975329786167,5895.493505304318
0.884,-1.003064327669874,5904.864426130991
0.888,-0.9949494915993103,5895.544992446708
0.892,-0.982994316434043,5898.411440775703
0.896,-0.9668742046745392,5903.131729111663
0.9,-0.9477211097965661,5905.693273727266
0.904,-0.9277355139149879,5904.147136792734
0.908,-0.9095269814983928,5901.908388634871
0.912,-0.8954390323079677,5916.716081082178
0.916,-0.8871196790741802,5894.946387379007
0.92,-0.8854527137739882,5901.461567935672
0.924,-0.8907377214273204,5890.633632266956
0.928,-0.9028724557326204,5906.4152875819445
0.932,-0.9213725284204919,5904.167104359847
0.936,-0.9452681726643701,5896.19195500427
0.94,-0.9730431034866177,5900.066213938215
0.944,-1.0027500249738737,5891.9822223168485
0.948,-1.032328109940733,5899.079315536645
0.952,-1.0600356027968454,5891.572943024496
0.956,-1.0848139335592257,5903.823669165377
0.96,-1.1063688338260276,5894.813431199574
0.964,-1.1248697693326792,5901.850463497391
0.968,-1.1404040580493136,5904.711965307891
0.972,-1.152511934855017,5905.930923027288
0.976,-1.16010957084178,5896.977001149691
0.98,-1.1618600411967774,5904.663595903501
0.984,-1.156757719701037,5896.892782723005
0.988,-1.1445969804333038,5906.014028034464
0.992,-1.1261573842667858,5902.673314075085
0.996,-1.1031654275378415,5895.342610370117
1.0,-1.0781899743691716,5888.70032607813
1.004,-1.054561023131513,5900.207117103662
1.008,-1.0362475288574282,5902.922953891724
1.012,-1.0275087279727106,5900.638591090024
1.016,-1.0321643420544562,5894.854810026539
1.02,-1.0525363556473004,5897.152289345996
1.024,-1.0883761269276042,5897.156272217743
1.028,-1.1362258541888632,5902.365662781939
1.032,-1.1895760407583862,5901.734352947952
1.036,-1.2399100819115187,5900.317980850462
1.04,-1.2783975606534956,5897.515859726702
1.044,-1.2977507584565595,5911.013857271848
1.048,-1.2937092730677155,5900.43105749397
1.052,-1.2657913082461603,5910.315327870809
1.056,-1.217238991738156,5901.297584870324
1.06,-1.1543169038990424,5907.857009303827
1.064,-1.085198102181142,5903.28525368293
1.068,-1.018621727209248,5896.352405059619
1.072,-0.9624524664402115,5891.860277813873
1.076,-0.9223256943995362,5904.439440996091
1.08,-0.9006943906507686,5904.969622516094
1.084,-0.8966207677855632,5904.576704576328
1.088,-0.9064406323227638,5900.7048009208565
1.092,-0.9250867574625309,5904.549109700091
1.096,-0.9476384772203503,5908.2661845932025
1.1,-0.9706566995355163,5894.115514869736
1.104,-0.9929596471438853,5902.304354065891
1.108,-1.0156127699652513,5904.0918145089045
1.112,-1.0410788027563136,5903.142891386848
1.116,-1.0717380897423134,5892.99077862239
1.12,-1.108286397613147,5899.979734262324
1.124,-1.148681962375123,5894.563436258828
1.128,-1.1881702999874526,5901.907996719316
1.132,-1.2204610787247097,5898.643034430237
1.136,-1.239606469194655,5904.374784599262
1.14,-1.2418475132196776,5905.433034532255
1.144,-1.2267776167291162,5898.699081761199
1.148,-1.197485134426529,5895.057006318713
1.152,-1.1596845359082955,5897.752615511682
1.156,-1.1201543996582026,5900.067109909487
1.16,-1.0850428574074555,5905.840080323085
1.164,-1.0586509158448194,5912.2258682504
1.168,-1.043031346149577,5904.473801273812
1.172,-1.0382660372757575,5901.305592580462
1.176,-1.0429713602129393,5893.898787230812
1.18,-1.0546497368466308,5903.067892514382
1.184,-1.0698021964112019,5896.727254408707
1.188,-1.0839764698425172,5898.943057918542
1.192,-1.0920512472638577,5905.882737342411
1.196,-1.089026520935002,5900.677280971045
1.2,-1.07134652171633,5901.079219051326
1.204,-1.038389796252625,5897.016699284455
1.208,-0.9934815969313339,5907.577916654007
1.212,-0.9438462655796197,5898.138318786317
1.216,-0.8992891452754966,5896.8291641222895
1.22,-0.8698592662916869,5898.340039372924
1.224,-0.8631309805220518,5893.766148862876
1.228,-0.8819849407820798,5907.847114084143
1.232,-0.9237169210336884,5896.929164770188
1.236,-0.980808968025509,5903.892029737547
1.24,-1.042972541075169,5906.621062555919
1.244,-1.099624173223957,5892.506549575116
1.248,-1.1420333532813196,5911.441597956296
1.252,-1.1647644602483225,5901.923207799971
1.256,-1.1663582141475157,5898.30294712396
1.26,-1.1493183083007474,5902.530708227807
1.264,-1.1194592380596098,5901.676813221575
1.268,-1.084646441478224,5894.387744425136
1.272,-1.0530120944464896,5903.203383606951
1.276,-1.03092646500997,5898.61327849111
1.28,-1.0212755238809383,5899.456912179775
1.284,-1.0227045991887118,5896.173590340439
1.288,-1.030249174421356,5893.294363030571
1.292,-1.0372476010735903,5894.008833948959
1.296,-1.0378756827906983,5894.771213901009
1.3,-1.0293514526001069,5895.859920901003
1.304,-1.013006430125301,5899.271893174682
1.308,-0.9939181663862979,5903.855481263288
1.312,-0.9793076259680914,5892.883978297346
1.316,-0.9761900863193917,5890.293898345328
1.32,-0.9889280389401467,5892.8750926312505
1.324,-1.017466731598211,5905.710447592499
1.328,-1.0569532567056021,5901.928355181902
1.332,-1.0989888328089896,5898.747741552592
1.336,-1.1341385705504405,5901.778332420454
1.34,-1.1548719538712267,5895.701240591784
1.344,-1.157962342754459,5900.322277872064
1.348,-1.1454958127718482,5904.021618152205
1.352,-1.1240500597246583,5901.440160652222
1.356,-1.102269183682203,5903.71185765964
1.36,-1.0877005674799696,5901.946688348036
1.364,-1.0840618618808795,5899.320643667658
1.368,-1.0899728288378228,5896.820976478342
1.372,-1.0996606602727144,5896.143121717028
1.376,-1.1053429567831903,5887.663512385158
1.38,-1.1002330978475114,5899.502355777109
1.384,-1.0808687342174146,5896.454452308569
1.388,-1.047929643831526,5894.457747932286
1.392,-1.0055492268805044,5891.935996554183
1.396,-0.9597797465190279,5901.98251525624
1.4,-0.9170311682114095,5905.11903940806
1.404,-0.8830040790939513,5892.86892898401
1.408,-0.8621520677965553,5898.736196123925
1.412,-0.8573904400037858,5901.377792378823
1.416,-0.869802586939481,5906.408612736895
1.42,-0.8983494717808077,5892.29108692046
1.424,-0.9397826728350428,5898.094317717091
1.428,-0.9889682245966447,5905.460303096371
1.432,-1.039702704584977,5903.500910024385
1.436,-1.0859074789284968,5909.370690222183
1.44,-1.1228651037240316,5906.20825961923
1.444,-1.1480512191580858,5907.269903765457
1.448,-1.161264292181313,5902.7883540534285
1.452,-1.1640961572200337,5892.4445066131
1.456,-1.1590550775168003,5899.965028905806
1.46,-1.148689794382165,5908.845942386469
1.464,-1.1349639357756824,5903.038457786545
1.468,-1.1190396748427718,5908.823249638059
1.472,-1.1015305754948272,5895.762667775074
1.476,-1.0831112348110774,5907.5007190670685
1.48,-1.0651823853914941,5897.341819275553
1.484,-1.0501934174540557,5894.5757267409
1.488,-1.0412887481846826,5900.548011122309
1.492,-1.0412286415712617,5901.663969377652
1.496,-1.050983361191437,5901.178272704516
1.5,-1.0687166623988353,5904.067633464654
1.504,-1.089781879756082,5903.45949844639
1.508,-1.1078980892848047,5891.0620043738645
1.512,-1.1171060588510102,5903.558877479536
1.516,-1.1136915947771824,5897.788277307257
1.52,-1.0972706686513725,5897.223795792414
1.524,-1.070698221869396,5905.641040830147
1.528,-1.0390337141094894,5897.707494581195
1.532,-1.0080794661129793,5903.04418062065
1.536,-0.9829831480111362,5901.251923784341
1.54,-0.9672541006009233,5903.871507511574
1.544,-0.9623806338914491,5901.313311498663
1.548,-0.9680581942366361,5901.392650895231
1.552,-0.9828371009214122,5906.403395244588
1.556,-1.0048054464551324,5902.367882240815
1.56,-1.031905528246329,5900.947080479245
1.564,-1.0617746081891475,5901.454906768796
1.568,-1.0914053283118466,5898.621690614877
1.572,-1.1170872884665177,5898.2708651121975
1.576,-1.1349277973217693,5896.408034319139
1.58,-1.1419056842012427,5904.574705030514
1.584,-1.137051763035949,5890.778582203501
1.588,-1.1221464203634361,5907.737343762387
1.592,-1.1014383394333913,5892.529051496988
1.596,-1.0803059571539995,5893.825772826625
1.6,-1.0633091272182271,5894.258182119598
1.604,-1.0524546855358643,5897.509000497399
1.608,-1.0464906712259767,5903.038793531037
1.612,-1.0415874519807167,5899.762270396747
1.616,-1.033110499046428,5901.626439760635
1.62,-1.017727398339444,5901.35945112396
1.624,-0.9950130955528521,5900.731170796756
1.628,-0.9679630597752327,5892.364629867878
1.632,-0.9422575093089954,5904.929164282693
1.636,-0.9245816950533378,5896.838320685802
1.64,-0.9205983292805302,5909.965155372557
1.644,-0.9332030943231954,5906.992298282045
1.648,-0.961582379734312,5900.3293395615465
1.652,-1.0013969765506396,5902.6916951016365
1.656,-1.046048180412389,5910.015703214792
1.66,-1.0885119686491538,5904.06394118442
1.664,-1.1229933906818779,5901.442778925604
1.668,-1.1458716029863034,5892.869322629024
1.672,-1.155866748979201,5905.087966459424
1.676,-1.1536919186367784,5899.678732524301
1.68,-1.1415208844444213,5904.982401931048
1.684,-1.1225048099091497,5900.58050359651
1.688,-1.1004047608157548,5904.796312646554
1.692,-1.0792178401933232,5904.190113821085
1.696,-1.0625768002156362,5900.720696292417
1.7,-1.0528390116045017,5898.164979012705
1.704,-1.0501175678004961,5899.860944517111
1.708,-1.0517747120249779,5906.686254143601
1.712,-1.0528341522593625,5889.095746299325
1.716,-1.047408426424847,5898.830481117754
1.72,-1.0308479311980316,5900.735762936184
1.724,-1.002070870844439,5897.799536554571
1.728,-0.9653849099944836,5895.248309930078
1.732,-0.9310155405069087,5896.6664159731135
1.736,-0.9136367389640123,5902.639661313429
1.74,-0.9286412903707965,5900.720221219816
1.744,-0.9866751505463442,5903.854293050302
1.748,-1.08775873831308,5903.4895320800215
1.752,-1.2167131217946021,5899.183426602991
1.756,-1.341475882958607,5896.966709201422
1.76,-1.4154095811030685,5892.374360068258
1.764,-1.3840065447452576,5896.562263518582
1.768,-1.1954209950984305,5906.845115265985
1.772,-0.8130613212527664,5901.239976300799
1.776,-0.22737675495204066,5899.5454430321015
1.78,0.5366554091631912,5893.577730913295
1.784,1.4196395036856704,5893.6664807539455
1.788,2.3371805573515516,5898.641969354586
1.792,3.1970836176090014,5909.882051654564
1.796,3.9191668009837866,5912.981177242098
1.8,4.4510288672173095,5917.094209709048
1.804,4.775094251098505,5925.8845649941
1.808,4.906245359816942,5948.961163588518
1.812,4.8826817369887925,5959.697424848056
1.816,4.753928179941676,5969.540707826052
