时间(s),电压(V),幅值(高频80K)
0.0,-1.3092408077219475,5896.968159841121
0.004,-1.328844605937808,5897.18683466001
0.008,-1.344909289974588,5904.068616212549
0.012,-1.3545029863861222,5896.221599620715
0.016,-1.3557996670264758,5905.4650504072
0.02,-1.348642555320446,5900.225708073087
0.024,-1.3348006751066714,5902.882517962604
0.028,-1.3176838351762594,5889.869225711448
0.032,-1.3015382863120721,5898.7723137314215
0.036,-1.2903854546286209,5899.40491560274
0.04,-1.2870182897378217,5898.699006864711
0.044,-1.292290924431289,5895.959414975389
0.048,-1.30485979898076,5908.363081019799
0.052,-1.3214671499323878,5903.90358182393
0.056,-1.3377361226038196,5902.084088081119
0.06,-1.3492720708511476,5897.330257159807
0.064,-1.3527393198606892,5899.552490732438
0.068,-1.3466145767166533,5903.271908449619
0.072,-1.3314740093952848,5898.192784437364
0.076,-1.3098071724690632,5906.182072478043
0.08,-1.285417374897017,5895.646606058891
0.084,-1.262538777214245,5904.334032806252
0.088,-1.2448887780581257,5897.240727429124
0.092,-1.234883107275036,5899.984617488408
0.096,-1.2331412686257048,5894.193135121344
0.1,-1.2383349530705139,5900.500269936573
0.104,-1.2474830898278118,5893.95004092104
0.108,-1.256823877342538,5905.061053253101
0.112,-1.2631531517488834,5905.902084949757
0.116,-1.2650825109304922,5894.277236476463
0.12,-1.2634862514394747,5901.214992262306
0.124,-1.260801206103385,5895.485904409501
0.128,-1.2595767600593457,5899.645844510797
0.132,-1.2611357486759198,5895.200676590155
0.136,-1.2650492256824681,5897.27853734392
0.14,-1.2695529325698645,5895.685522410391
0.144,-1.2725157219355288,5893.564313117788
0.148,-1.2724147698516646,5896.2304692557
0.152,-1.2689452629990177,5895.018171231925
0.156,-1.2631601504006602,5906.668838465416
0.16,-1.2572049901943045,5898.823891491049
0.164,-1.253759536404305,5907.2311539757175
0.168,-1.2553125757460413,5893.735298562149
0.172,-1.263440813336059,5895.4495047273
0.176,-1.278297054130416,5902.006678460397
0.18,-1.2984717293247745,5901.273774938002
0.184,-1.321275276351687,5892.401687144449
0.188,-1.343350889223007,5901.75642649458
0.192,-1.3614215237074618,5901.333592327517
0.196,-1.372938724398095,5900.190465477595
0.2,-1.3764523955548966,5903.472414742943
0.204,-1.371652795573716,5891.432050163448
0.208,-1.359194193277268,5902.2361741009145
0.212,-1.340490860488351,5902.353398192941
0.216,-1.317609116109634,5892.104268709033
0.22,-1.2932143366671052,5901.084105118742
0.224,-1.2704122225404348,5897.220082253799
0.228,-1.2523568289803038,5901.322832641216
0.232,-1.2416580654821288,5901.632832305428
0.236,-1.2397692967970795,5905.146761589878
0.24,-1.2465495238696067,5901.589381260622
0.244,-1.2600957864709337,5900.504535207325
0.248,-1.276863156896256,5887.138128409056
0.252,-1.2921105607097716,5892.8366233219385
0.256,-1.3007531143029092,5901.567129915822
0.26,-1.2986036974011033,5898.355404232776
0.264,-1.283703179928185,5894.041081674212
0.268,-1.257189051418647,5902.4096177978
0.272,-1.2232355538466522,5901.683196640096
0.276,-1.1880205608057963,5902.426757231911
0.28,-1.1581242918268941,5908.116741662993
0.284,-1.1389686596552049,5904.220000094404
0.288,-1.1338230514737606,5909.125667997945
0.292,-1.1436065542259881,5901.654552052842
0.296,-1.1673157886214791,5898.248272503638
0.3,-1.202617510749311,5899.727125328755
0.304,-1.2461985520125276,5901.647117508587
0.308,-1.2938173435197675,5900.251806573645
0.312,-1.3403169018847763,5897.773018957402
0.316,-1.3798924019127086,5897.510780949754
0.32,-1.4067240624473354,5903.502712001645
0.324,-1.4159025234863756,5907.804977741332
0.328,-1.4045008129656813,5908.258456359804
0.332,-1.372605548531223,5898.9946396848045
0.336,-1.3239996572563815,5895.38585016352
0.34,-1.2660940427513423,5900.962012159945
0.344,-1.2088562878243492,5903.613819397185
0.348,-1.1628625329702424,5897.567083681072
0.352,-1.1369552994933467,5912.391148443394
0.356,-1.136153829964324,5899.498458199145
0.36,-1.1604209163597148,5904.580077161658
0.364,-1.2046754136065831,5896.9225983699
0.368,-1.260094344358957,5897.455734484554
0.372,-1.31634424922567,5897.112543875398
0.376,-1.364053356120746,5896.570202065744
0.38,-1.3967559974281076,5899.259176234476
0.384,-1.4117869498996622,5902.766202044897
0.388,-1.41006179091332,5900.89793070415
0.392,-1.3950968527573189,5899.935224478124
0.396,-1.3717795393192191,5890.588342161894
0.4,-1.3452756619863022,5901.886308187426
0.404,-1.3202322820758836,5889.958711595458
0.408,-1.3002823424691314,5899.674056491123
0.412,-1.287799113678538,5905.880275678712
0.416,-1.2838168959379095,5894.909828967384
0.42,-1.2880336803371657,5899.115382074921
0.424,-1.2988809490374194,5899.626821663534
0.428,-1.3137280692758606,5907.138275168784
0.432,-1.3292725449925111,5914.677457074416
0.436,-1.3420591681796765,5894.8368785901375
0.44,-1.349005573962192,5895.942158189067
0.444,-1.3478541209733539,5900.7776117912
0.448,-1.3375236034125373,5900.872942776385
0.452,-1.3183166113288811,5910.426574469018
0.456,-1.2919149988106164,5897.776278032681
0.46,-1.2611332574550673,5899.219772284967
0.464,-1.2294488247763424,5901.287682773887
0.468,-1.2003713197479096,5895.878806215755
0.472,-1.1768046277246527,5904.191747056135
0.476,-1.1606300144177952,5902.700204536233
0.48,-1.152645246538948,5900.011176510965
0.484,-1.1527788936125298,5900.495086379495
0.488,-1.1603664487608245,5903.714430705167
0.492,-1.1743133030050785,5902.530072750436
0.496,-1.1931044743329424,5900.816134457576
0.5,-1.2147490033647907,5898.363859431259
0.504,-1.2367958070306495,5899.686215072336
0.508,-1.2565221360170007,5901.352559532691
0.512,-1.2713367599261787,5901.368452494791
0.516,-1.2793748346858278,5901.840976769704
0.52,-1.2801410088064924,5902.850272944337
0.524,-1.2749187188988331,5897.15540804085
0.528,-1.2666573044988276,5902.111962866298
0.532,-1.2592562115985815,5905.841639453948
0.536,-1.2564827951593631,5902.660895842126
0.54,-1.260954498360836,5910.345797071847
0.544,-1.273523631739623,5900.007513102777
0.548,-1.2931303249699155,5896.65169600461
0.552,-1.3170024188005633,5901.840131930981
0.556,-1.3410770468916289,5890.535812968432
0.56,-1.3605851944950769,5898.211668460265
0.5640000000000001,-1.3707771461736111,5902.6229381808325
0.5680000000000001,-1.367759148082174,5901.384387554873
0.5720000000000001,-1.3493583124699662,5899.770579855546
0.5760000000000001,-1.3158337157031976,5904.877514223688
0.58,-1.2701610252116886,5898.870981595306
0.584,-1.2176492190134816,5895.660531069941
0.588,-1.1648750967307617,5905.608585238924
0.592,-1.1182592200593442,5902.315414710203
0.596,-1.0828234516665323,5906.383337054653
0.6,-1.061566973955585,5895.585869193936
0.604,-1.0555161656717906,5901.588253454985
0.608,-1.064132027705251,5899.008247969377
0.612,-1.0856733116656543,5903.281595362824
0.616,-1.1173304201214074,5897.422700750545
0.62,-1.155258600610927,5898.881109905608
0.624,-1.1948148334159918,5906.901162555108
0.628,-1.2312117443217523,5900.996246633547
0.632,-1.2605056724751813,5907.218864545326
0.636,-1.2805665664933539,5896.038280748285
0.64,-1.291625700237722,5900.190446033446
0.644,-1.2961564120954128,5899.637737684158
0.648,-1.2980882017174449,5901.376278683371
0.652,-1.3015686592801559,5899.812292755614
0.656,-1.30960753876253,5904.451363529632
0.66,-1.3229773566254983,5896.063586029029
0.664,-1.3397523139930396,5900.999305922319
0.668,-1.3557864536156197,5897.696610121422
0.672,-1.3661142703764462,5900.185269398739
0.676,-1.3667444047738186,5899.236489938264
0.68,-1.3559990200524035,5900.807459981184
0.684,-1.3347907020846743,5889.773625533254
0.6880000000000001,-1.3058720149736283,5901.312886677193
0.6920000000000001,-1.2726084658819679,5902.243792843151
0.6960000000000001,-1.2379053770488992,5897.86966732619
0.7000000000000001,-1.2036874000357505,5898.932639484852
0.704,-1.1710071055312836,5901.14045321349
0.708,-1.1405602446588063,5892.900536490798
0.712,-1.1132306482258874,5906.894641955094
0.716,-1.0903693134817865,5904.448222401149
0.72,-1.0737305837229065,5898.156345260426
0.724,-1.0651598225393626,5891.099714695632
0.728,-1.0661890762531683,5906.923958926229
0.732,-1.0776773463720473,5894.372556762667
0.736,-1.0995611593156749,5898.478294658661
0.74,-1.1307170875902361,5899.910890874989
0.744,-1.1689369757560961,5904.887731525309
0.748,-1.2110559148249196,5903.546847406529
0.752,-1.2532763538613103,5895.510387300561
0.756,-1.2916619695029141,5899.395085141989
0.76,-1.3226864775930778,5897.64324848252
0.764,-1.3437073542423221,5903.701862048958
0.768,-1.353296577418464,5907.790081646239
0.772,-1.3514199714853383,5893.805862764666
0.776,-1.33947401555387,5909.780203251044
0.78,-1.3201726306128623,5904.987483974961
0.784,-1.2972345866118673,5901.647420135975
0.788,-1.2748113941188821,5889.339763623426
0.792,-1.256692988414904,5897.95705474015
0.796,-1.2454896633071844,5900.5472922336985
0.8,-1.2420677766318897,5904.723013745473
0.804,-1.2454453618647117,5897.626262787263
0.808,-1.2531909204900618,5905.922549353248
0.812,-1.2622014540702624,5899.653138830256
0.8160000000000001,-1.2696245317498718,5902.575179011245
0.8200000000000001,-1.2736650811402774,5901.749047822881
0.8240000000000001,-1.2740624118420647,5897.926109252385
0.8280000000000001,-1.2721005011241642,5901.20631318538
0.8320000000000001,-1.2701347236139604,5906.066462291007
0.836,-1.2707828960568521,5900.427528542672
0.84,-1.2760459374269715,5900.739923736668
0.844,-1.286603148280307,5902.285997052525
0.848,-1.3014223823051656,5896.387431826837
0.852,-1.3177575534162167,5901.652941161248
0.856,-1.3315880936251168,5903.704082172178
0.86,-1.3384968709177645,5896.149767683325
0.864,-1.3348383657369218,5898.01940883
0.868,-1.3188770598919737,5899.659224083292
0.872,-1.2914874420623714,5904.632369067091
0.876,-1.2561063526734788,5901.160910870066
0.88,-1.217936016980621,5904.665012704812
0.884,-1.1827413415738308,5887.99963351424
0.888,-1.1556989213153754,5905.147610059337
0.892,-1.1405766233185026,5904.618440195535
0.896,-1.1392795345148004,5897.379997814796
0.9,-1.1517081412237884,5905.353536516101
0.904,-1.1759038571303366,5893.387419409703
0.908,-1.208446659575795,5898.400361823885
0.912,-1.244993883952785,5901.615421221453
0.916,-1.2808354522128236,5893.231944755275
0.92,-1.3114424991836777,5909.469785249799
0.924,-1.3330593004023426,5907.837409261208
0.928,-1.343301700126936,5901.7117505481
0.932,-1.3415934010740502,5906.357411216714
0.936,-1.3292828581753935,5905.893284056196
0.94,-1.3094062494016938,5903.968904304948
0.944,-1.2861455341307366,5891.421922721495
0.948,-1.2640594990017902,5894.48535735888
0.952,-1.2472065786822362,5903.015349553444
0.956,-1.238322561621391,5896.011408247422
0.96,-1.2382233128571039,5899.482238910733
0.964,-1.2455748607575183,5886.638152378729
0.968,-1.2571210574970426,5894.455886698673
0.972,-1.268384072443675,5907.558037340795
0.976,-1.2747567968986533,5897.104164128166
0.98,-1.2727698336010749,5912.522550157087
0.984,-1.2611579753710707,5891.3155440432365
0.988,-1.2413131635564205,5902.543757404329
0.992,-1.2169231699373386,5906.2750144347
0.996,-1.1929467215540128,5896.524043027815
1.0,-1.1742994792039008,5897.637584716072
1.004,-1.164625182119211,5898.274198049572
1.008,-1.1654314077348993,5900.820086965777
1.012,-1.1757843401290529,5900.337949356707
1.016,-1.1926538542746015,5902.950806880383
1.02,-1.2118325132680086,5898.596074977123
1.024,-1.2291487237154008,5899.446626502072
1.028,-1.2415636717911303,5897.3905530124175
1.032,-1.2477904611839465,5906.335510993
1.036,-1.2482892671134787,5905.2523695143045
1.04,-1.2447512576123214,5903.089068905919
1.044,-1.2393662403781955,5904.59713896676
1.048,-1.2341988956811216,5902.172054710102
1.052,-1.2308557873206192,5906.538999977672
1.056,-1.2303982826592044,5900.679873038984
1.06,-1.2333200251575083,5899.74096106048
1.064,-1.239474511600015,5894.204736535656
1.068,-1.2480306138549262,5897.596101454157
1.072,-1.2576341477949773,5901.79965004628
1.076,-1.266825558975702,5903.427895740641
1.08,-1.2745271496313426,5901.153918027559
1.084,-1.2803292485957862,5903.327124171143
1.088,-1.2844608241184214,5888.076840514244
1.092,-1.2875470846795891,5897.825441909651
1.096,-1.2903316172646773,5906.546360566782
1.1,-1.2934538878115842,5902.108957484025
1.104,-1.2972548521861678,5898.678146100368
1.108,-1.3015659536577313,5895.450339225589
1.112,-1.3055252977867664,5903.2700821517965
1.116,-1.3075497751520901,5903.086743804988
1.12,-1.3055871274479043,5910.4721064794285
1.124,-1.2976780421019056,5903.7543056985805
1.128,-1.282712125069995,5904.837815705744
1.132,-1.2611115736720309,5895.885681569196
1.136,-1.2351014906477153,5899.770984372458
1.14,-1.2083203246582432,5900.783715722001
1.144,-1.1848151735560168,5904.62689020587
1.148,-1.1678178539279453,5897.354197890944
1.152,-1.1588488625277933,5901.72121325751
1.156,-1.1574987103630474,5906.762760006859
1.16,-1.1618443047694893,5908.363596683621
1.164,-1.1692000618094935,5903.421662911463
1.168,-1.176928954394987,5907.305740255231
1.172,-1.1831823549417908,5901.6825265720345
1.176,-1.187467385821518,5898.5335775731855
1.18,-1.1908456634065818,5898.12150479011
1.184,-1.19554165210569,5892.03190583008
1.188,-1.2039379295858366,5907.343846586045
1.192,-1.217294759606724,5899.04962680199
1.196,-1.234804325647928,5895.614509638132
1.2,-1.25353672066713,5897.1538999542045
1.204,-1.2694269234693738,5903.908015246652
1.208,-1.278916036098678,5892.350759191361
1.212,-1.2805087839463782,5904.8805100520285
1.216,-1.2755364828941145,5898.814443948384
1.22,-1.2678052809061826,5893.635449354341
1.224,-1.262337395304828,5901.978286055908
1.228,-1.2637621867173852,5906.472550437457
1.232,-1.2749247434978896,5902.015170094991
1.236,-1.2960698896907727,5896.389132494407
1.24,-1.3247442681529966,5900.929294772527
1.244,-1.3564027438712585,5897.610715360481
1.248,-1.3855398814945499,5898.566642206279
1.252,-1.407006572667166,5893.859622646761
1.256,-1.417144924413373,5890.453279023461
1.26,-1.4145135607684522,5896.858828249498
1.264,-1.4001302814395595,5892.092114077069
1.268,-1.3772112446158595,5897.536028770192
1.272,-1.3504148616952598,5898.001588700482
1.276,-1.3247221093037034,5909.177875575246
1.28,-1.3042546183649948,5902.12563928643
1.284,-1.2913994836808258,5903.459592063172
1.288,-1.2865089248863852,5898.067004175376
1.292,-1.2882313501558937,5902.325918864822
1.296,-1.2943137982820019,5898.64482546179
1.3,-1.3025683043564138,5904.129598758394
1.304,-1.3116319727559242,5906.208568004045
1.308,-1.3211886990130184,5900.028778230489
1.312,-1.3315213019747703,5900.067914068967
1.316,-1.342615056573047,5897.080897030008
1.32,-1.3533314960133562,5901.428063863951
1.324,-1.3611688022956512,5901.010842099445
1.328,-1.3628121763705854,5902.042955458323
1.332,-1.3552851159866597,5899.526500786019
1.336,-1.3372512505957357,5891.088596020826
1.34,-1.3099303911033033,5896.96070131064
1.344,-1.2771792682921468,5894.484593273898
1.348,-1.2445890272673445,5891.632358524706
1.352,-1.2179009661522502,5902.696103487981
1.356,-1.2013717894654525,5907.410157488591
1.36,-1.1967097222726923,5894.477426021988
1.364,-1.2029104920619298,5905.422766597679
1.368,-1.21694339595137,5895.3116337825295
1.372,-1.2349113982214823,5909.638422375146
1.376,-1.2531574233428155,5901.468113125559
1.38,-1.2689235946369706,5893.834921970641
1.384,-1.2805147878738636,5900.965358135244
1.388,-1.2871916292930072,5905.207485043458
1.392,-1.2890193185347867,5892.770177148507
1.396,-1.2867098402125745,5901.533809566611
1.4,-1.2813631167890922,5901.735032613248
1.404,-1.2740806775195939,5903.418919752661
1.408,-1.2655947680090045,5899.213190154461
1.412,-1.25612637725523,5898.028117137755
1.416,-1.245595656305844,5900.603402964544
1.42,-1.2341403517211336,5897.302116308094
1.424,-1.2227299007190968,5896.046604098609
1.428,-1.2135514671194845,5898.647758565819
1.432,-1.2098642844894931,5909.57472701502
1.436,-1.2151979978218155,5904.591329990045
1.44,-1.2320423929577953,5896.302413461124
1.444,-1.2604302301676198,5905.988446402998
1.448,-1.2969492888853935,5901.984800335683
1.452,-1.3346600480409374,5899.955518040339
1.456,-1.364143519695289,5904.024888761841
1.46,-1.375554737079088,5902.067895877432
1.464,-1.3612162886154329,5903.746279370037
1.468,-1.318026184871377,5906.921167931555
1.472,-1.248905409480681,5901.173039404751
1.476,-1.1628204884932865,5899.0994456687085
1.48,-1.0734915723986331,5894.612732136291
1.484,-0.9973436469821946,5905.104823007936
1.488,-0.9512395671255264,5892.396635001055
1.492,-0.9501192716795374,5902.442989527248
1.496,-1.00428846324163,5900.344525626441
1.5,-1.1161582574462456,5900.85974263361
1.504,-1.2767642875006562,5896.6960318989
1.508,-1.4630352069721857,5887.086097034629
1.512,-1.6371248270835703,5901.207027756908
1.516,-1.7489959527640568,5908.495651317093
1.52,-1.7428924989156493,5904.765793506823
1.524,-1.567418306728146,5893.961264026555
1.528,-1.1877063984950507,5904.4900752820095
1.532,-0.5968756400968571,5891.670984030279
1.536,0.17682373719170075,5915.347824842118
1.54,1.0704965350726046,5894.190797365648
1.544,1.9962789668380916,5895.304562568685
1.548,2.858595554549197,5905.212999856924
1.552,3.574048280631955,5924.1268853656775
1.556,4.087622179728451,5937.185417678985
1.56,4.380599836200278,5964.873612683328
1.564,4.4691292848678525,5963.776382314292
1.568,4.395547096440316,5991.701007519427
1.572,4.216055472483417,6001.3867932949925
1.576,3.9882653044320153,6016.615259718423
1.58,3.7611522038844867,6024.769822723674
1.584,3.5688027489289085,6043.205843282693
1.588,3.428297776098379,6062.029590793449
1.592,3.341266123560876,6068.564004828647
1.596,3.2980461054382655,6080.498884699852
1.6,3.2830330692857985,6100.938709756916
1.604,3.2797416916376463,6112.9694534952605
1.608,3.2744602892698853,6130.99847521628
1.612,3.258056402077565,6133.957000690662
1.616,3.226182856614069,6147.6967822495
1.62,3.1784821921407085,6155.821764242523
1.624,3.117360023406318,6169.5804750036505
1.628,3.0467285913455493,6180.1101705328765
1.632,2.9709836122999747,6188.039034524751
1.636,2.894360763148677,6206.375075484866
1.64,2.820666884700975,6217.205482301457
1.644,2.753205389669272,6224.356085247512
1.648,2.6946152642843177,6231.109754930137
1.652,2.6464511252927165,6245.38539053133
1.656,2.6086303649430143,6254.357623248457
1.66,2.579111441445342,6263.62697250704
1.664,2.5541089558975423,6271.717198730552
1.668,2.5288604105390404,6282.90658563993
1.672,2.498702567155234,6295.957894406956
1.676,2.4601377177333466,6313.888209338966
1.68,2.411620581767736,6304.951710275854
1.684,2.353896466388229,6323.81479393432
1.688,2.2898275916512123,6320.113621538221
1.692,2.2237196800302144,6344.571843093056
1.696,2.1602364513864782,6335.138930711231
1.7,2.103147754021864,6352.611370831372
1.704,2.0543458327559683,6359.1422759394745
1.708,2.0135694216338553,6353.784618488264
1.712,1.9789777575658418,6365.411703819275
1.716,1.9482826383213891,6375.155653500622
1.72,1.9198749936320214,6386.935804055763
1.724,1.893426809047288,6390.849729212363
1.728,1.86974327504804,6401.144534177822
1.732,1.8500023181948966,6408.669581972475
1.736,1.8347774629546434,6409.913113768973
1.74,1.8233082810744368,6420.260601514861
1.744,1.8133523851203666,6430.329812727851
1.748,1.801678435365038,6432.331470901122
1.752,1.7849782629543556,6431.5615782621735
1.756,1.7608306099156508,6444.70773016209
1.76,1.7283599356745347,6450.256511562588
1.764,1.6883663853101172,6457.500773160971
1.768,1.6429608707250125,6462.890794679504
1.772,1.5950094641131394,6477.176213430398
1.776,1.5477070910864803,6480.276186469891
1.78,1.5043128201209253,6467.623335888928
1.784,1.4678309204887596,6483.300718832564
1.788,1.4405101075317464,6493.001389856288
1.792,1.4233184806223447,6497.197128548123
1.796,1.4156846805031282,6505.878176858063
1.8,1.4156464992271671,6513.396419640144
1.804,1.4202807758492153,6501.663123899507
1.808,1.4261492361181711,6521.804208249511
1.812,1.4296050946213947,6522.715036770938
1.816,1.427057340133886,6525.654916698061
1.82,1.4154171726190627,6529.058788772431
1.824,1.3927977653857528,6532.771601984367
