时间(s),电压(V),幅值(高频80K)
0.0,-1.1670554686929175,5894.894423051995
0.004,-1.1215847629706301,5900.597562286835
0.008,-1.0821031454235825,5890.4707145063485
0.012,-1.0524683346816333,5904.63620448135
0.016,-1.0341501027103994,5901.258672515439
0.02,-1.0261606685223088,5903.536729712489
0.024,-1.0255843513364062,5906.875423875682
0.028,-1.0284702888936383,5897.654316398119
0.032,-1.0308949688436615,5902.296503186988
0.036,-1.0299606589911028,5899.596367683012
0.04,-1.0244363157010394,5902.26706100554
0.044,-1.0148426525486105,5904.524657037634
0.048,-1.003023051627702,5892.589226394473
0.052,-0.9914498421638639,5900.145647573896
0.056,-0.9825391345237301,5891.475521302299
0.06,-0.9781077493686822,5900.074829865992
0.064,-0.9789996537085912,5905.115659472558
0.068,-0.9849654235044812,5905.544839062696
0.072,-0.994919994083274,5898.364999027637
0.076,-1.0074954218818304,5894.660252376624
0.08,-1.0215115608582312,5889.848874363871
0.084,-1.0360275950961995,5905.723877986112
0.088,-1.0500541239005337,5900.281901773177
0.092,-1.0623534186467294,5889.461793302528
0.096,-1.071664379399037,5901.401983020305
0.1,-1.077263488917556,5906.713760532413
0.104,-1.0794292852874898,5892.888109136794
0.108,-1.079438558691436,5899.188143443882
0.112,-1.079124048287386,5897.7716264799465
0.116,-1.0803585704270389,5898.150475666491
0.12,-1.084764247641688,5892.9960837585
0.124,-1.09359121593739,5890.11504415424
0.128,-1.1074926343884803,5892.015099774974
0.132,-1.126076741043131,5893.2421775887415
0.136,-1.1474527909883985,5902.949285158346
0.14,-1.1681707687946805,5906.403224307273
0.144,-1.1838426680117073,5894.375080359463
0.148,-1.190387384495102,5898.232318436296
0.152,-1.185417355682701,5910.000570950573
0.156,-1.1690531722398598,5899.49154361738
0.16,-1.143701107155089,5896.077902986596
0.164,-1.1129893920006353,5894.947973686151
0.168,-1.0805979717140952,5896.475415591172
0.172,-1.0496660764659984,5901.013350850413
0.176,-1.0229198556946932,5897.916757518671
0.18,-1.0031097913808569,5897.784518956493
0.184,-0.9931705052867352,5905.436913821848
0.188,-0.9957705037562938,5905.520599047918
0.192,-1.0123687969957198,5909.337931052113
0.196,-1.0422142752204748,5901.278056264168
0.2,-1.0817587166904994,5901.6188523747
0.204,-1.1247889688223893,5896.100131701131
0.208,-1.1633650422051953,5906.764986547988
0.212,-1.1894358187140346,5902.141855000349
0.216,-1.1967909120372666,5898.138063510051
0.22,-1.1828228331830148,5903.163174739635
0.224,-1.1495059568917396,5901.40264301019
0.228,-1.1031732099595266,5909.454734005157
0.232,-1.053104288802636,5897.336019470996
0.236,-1.0093799464627273,5894.535725894889
0.24,-0.980591865130466,5907.748234259952
0.244,-0.9718707850904028,5905.265042786158
0.248,-0.9836229204886596,5895.272128883841
0.252,-1.011379659223199,5906.588084985243
0.256,-1.0469566160247838,5899.272655066841
0.26,-1.0806179227144486,5900.057480049498
0.264,-1.103540488628044,5903.647950926955
0.268,-1.1098879674057867,5898.426705857618
0.272,-1.098081789461129,5892.013711565509
0.276,-1.0710622754740124,5901.492366726197
0.28,-1.0354250050112768,5893.762276112763
0.284,-0.9995371647926945,5899.430581627768
0.288,-0.9711527045248546,5897.749518797667
0.292,-0.9553423953652991,5900.03642572239
0.296,-0.9534327555822282,5890.573922275508
0.3,-0.9631937839983072,5899.234004861444
0.304,-0.9800519269470974,5893.752931694611
0.308,-0.998836211904512,5897.827535069581
0.312,-1.015493624716696,5894.48278779344
0.316,-1.028272264860685,5901.75342458637
0.32,-1.0380442015063946,5902.069458121782
0.324,-1.047697756118549,5903.593969614897
0.328,-1.0607999458733117,5900.766288258211
0.332,-1.0799554068421446,5898.233482937179
0.336,-1.1054219820482099,5895.379167198063
0.34,-1.1345066893750857,5901.75189961156
0.344,-1.162025068301135,5896.23198106284
0.348,-1.1817390070212925,5900.875221835378
0.352,-1.1883287610767581,5903.487237650119
0.356,-1.1792501145653198,5903.736300409601
0.36,-1.155859167152249,5897.31205909049
0.364,-1.1234001025720683,5896.892275979692
0.368,-1.0897654307753712,5909.22422202799
0.372,-1.063332453792496,5904.466704516528
0.376,-1.05054294489725,5894.570283566176
0.38,-1.0540148081048466,5900.279538656371
0.384,-1.0717923950270893,5899.784137232383
0.388,-1.0979744771646385,5897.353576682109
0.392,-1.1245085452595591,5901.156673215395
0.396,-1.1435157500388407,5891.699338081492
0.4,-1.149335884734678,5898.040786346477
0.404,-1.1397002521683472,5893.102815422684
0.408,-1.1158875029673083,5897.687656901704
0.412,-1.082073823443515,5905.188149441846
0.416,-1.0442023950462727,5906.450770757371
0.42,-1.0086626750523995,5907.007664613556
0.424,-0.9810287043677093,5900.994466917358
0.428,-0.9650680435683848,5906.276996471849
0.432,-0.9621521733866143,5897.450720012029
0.436,-0.9711003329978959,5894.786963568318
0.44,-0.9884286485116565,5896.417958154502
0.444,-1.008971678093127,5900.246416392253
0.448,-1.0268673388397103,5902.226712683322
0.452,-1.0368663228661166,5891.169062263345
0.456,-1.0357557699976707,5901.988863770834
0.46,-1.023429837724516,5907.388787856903
0.464,-1.0030440352960288,5904.014044708555
0.468,-0.9799901126865007,5889.661072184273
0.472,-0.9600369400334061,5899.1468473255845
0.476,-0.9474694359476881,5907.315588623791
0.48,-0.9440438742972397,5895.562817958918
0.484,-0.9490863635877674,5889.020581799534
0.488,-0.9604406377440337,5901.75342767752
0.492,-0.9756062551071462,5902.271336952298
0.496,-0.992471906202297,5896.538442221526
0.5,-1.0094165520833909,5902.384417331745
0.504,-1.0249518652823473,5908.377037739382
0.508,-1.0372997146885463,5903.174978961066
0.512,-1.044271035066303,5895.765117567463
0.516,-1.0436191612337797,5901.179517728035
0.52,-1.033813986379901,5907.463590102929
0.524,-1.0149740241590481,5899.257279478392
0.528,-0.9895148588113333,5896.612665999003
0.532,-0.9620485278595334,5894.679911714257
0.536,-0.9383685681393867,5899.727075626111
0.54,-0.9238929407874308,5901.527729472869
0.544,-0.922284702451678,5902.657214872768
0.548,-0.9347955944899295,5895.230621667872
0.552,-0.9603689684217749,5899.12696880286
0.556,-0.9961630867168015,5896.055352301532
0.56,-1.038118551271477,5897.139849677256
0.5640000000000001,-1.0813713532111628,5897.63140906402
0.5680000000000001,-1.120549671035614,5896.52668007407
0.5720000000000001,-1.1501775282312732,5887.51112596646
0.5760000000000001,-1.165409477710283,5897.528745590089
0.58,-1.1631051649122446,5898.68341094022
0.584,-1.1429705734339455,5896.621139582462
0.588,-1.1082980962810995,5905.388557507215
0.592,-1.065819239536413,5905.432527433348
0.596,-1.0244576308921018,5894.9541318595575
0.6,-0.993292467129861,5900.113651744477
0.604,-0.9794378324806284,5896.208360614064
0.608,-0.9864986585401625,5906.930141208662
0.612,-1.0139109553454344,5900.44586651409
0.616,-1.057130619235945,5896.328812162106
0.62,-1.1084607645097078,5894.907535762057
0.624,-1.1583110836314146,5895.177255724956
0.628,-1.1967734886111117,5907.049696041112
0.632,-1.2154072049904068,5894.86844021699
0.636,-1.2089782061151861,5898.854683888856
0.64,-1.1767390294579732,5894.581201915022
0.644,-1.1228646389321906,5904.557124113607
0.648,-1.0558735092075908,5904.734100041058
0.652,-0.9871041328403006,5895.150350454781
0.656,-0.9285202583880143,5905.101647512865
0.66,-0.8903087384477729,5905.405721006478
0.664,-0.8788559231163495,5898.789368225415
0.668,-0.8956203923111684,5898.56628424571
0.672,-0.9371371939936572,5900.684126157933
0.676,-0.9960285168397283,5898.099486036076
0.68,-1.0626411262853974,5899.222848686351
0.684,-1.12685694986635,5898.507219837034
0.6880000000000001,-1.1797081851406537,5893.974526860122
0.6920000000000001,-1.2146256961902189,5890.959505711895
0.6960000000000001,-1.2283306133090799,5898.223783335385
0.7000000000000001,-1.221369172364939,5894.761866557999
0.704,-1.1981090156066185,5901.317214448636
0.708,-1.165925200697971,5903.0902899551775
0.712,-1.1335098883663315,5898.589167436657
0.716,-1.1086362207319724,5907.984100931586
0.72,-1.0960259180627068,5893.695770790282
0.724,-1.0960614540093765,5900.781387995967
0.728,-1.1049105446800767,5897.941384591944
0.732,-1.1161565272395626,5904.4068643422015
0.736,-1.1233675572489825,5901.669625190326
0.74,-1.122558359910932,5907.836837512243
0.744,-1.113532473285161,5903.304981574339
0.748,-1.0996429035143047,5905.146538507165
0.752,-1.0862641740478345,5895.877682142892
0.756,-1.0787910149408027,5903.638112507168
0.76,-1.0809861442990407,5901.728639396103
0.764,-1.0940969494643749,5898.549677232691
0.768,-1.1167261688487957,5899.652741408124
0.772,-1.1452524074671977,5911.266642799802
0.776,-1.1746213739765148,5904.425904598696
0.78,-1.1993725024856474,5894.308583428881
0.784,-1.2147322380135201,5897.564543829438
0.788,-1.2175570749412017,5893.852143190278
0.792,-1.2069225963618242,5898.969342724922
0.796,-1.1842368643852095,5895.429676903991
0.8,-1.1528902093098117,5900.953323343776
0.804,-1.1175941341069298,5902.694100523069
0.808,-1.0836030819090132,5902.416199067032
0.812,-1.0558968608024224,5910.825842496279
0.8160000000000001,-1.0382706904642416,5897.802553276196
0.8200000000000001,-1.0323629905377913,5900.246356362567
0.8240000000000001,-1.0369492763088186,5897.970592678405
0.8280000000000001,-1.0480217993917533,5904.732931415891
0.8320000000000001,-1.059937710292633,5897.941234113232
0.836,-1.0673390645338776,5891.424787235331
0.84,-1.0670718698581865,5897.8629790498735
0.844,-1.0592957224909438,5905.912708592687
0.848,-1.0473476378984572,5900.636832986405
0.852,-1.0364594360386772,5902.270431805544
0.856,-1.0318656751884818,5911.052941425348
0.86,-1.0370021048952172,5907.717430657784
0.864,-1.052371324437933,5901.384187604288
0.868,-1.0753458448601156,5896.604809338349
0.872,-1.1008183463211212,5893.124050264252
0.876,-1.1223640054695894,5898.495107069603
0.88,-1.133580051022179,5892.857499314005
0.884,-1.1294281148567378,5905.075891819475
0.888,-1.1074994450738331,5897.181408606392
0.892,-1.0690452281899265,5908.804478088609
0.896,-1.0194377124874743,5889.060436120225
0.9,-0.9676147262859983,5902.847715960973
0.904,-0.9242339908418856,5898.658158561524
0.908,-0.8988444676708454,5904.741735715467
0.912,-0.8970698569525692,5894.238074102343
0.916,-0.9189960651468975,5901.769142666609
0.92,-0.9594069423686074,5893.66922674527
0.924,-1.0096103010260185,5900.003795524007
0.928,-1.0599366975207154,5902.023848710644
0.932,-1.1018867652063031,5899.096546233073
0.936,-1.1293060527141432,5908.400012838783
0.94,-1.1386152970855903,5894.565098518618
0.944,-1.1286359142972928,5889.983578362702
0.948,-1.1005851696990896,5900.927625869022
0.952,-1.058344170613576,5895.217243249223
0.956,-1.0085268565788252,5893.544205957941
0.96,-0.9597188242607838,5904.944225321789
0.964,-0.9206672494438333,5903.810421927044
0.968,-0.8978860331948955,5901.640555873146
0.972,-0.8936238405301321,5904.185559891558
0.976,-0.9051072015065702,5902.846927586011
0.98,-0.9254376801162326,5900.983885092624
0.984,-0.9458187073900832,5895.622426195821
0.988,-0.9582903136636632,5905.389863148873
0.992,-0.9580536447455767,5906.993487798165
0.996,-0.9447249218279484,5891.867748623822
1.0,-0.922259986381792,5895.989226606401
1.004,-0.8976525328848796,5902.889497592027
1.008,-0.878804630866647,5904.588033694762
1.012,-0.8722222975141519,5903.30319093894
1.016,-0.8813086650549297,5902.771755845901
1.02,-0.9058434776587548,5903.709161806142
1.024,-0.9427295630301822,5901.052300910735
1.028,-0.9874938836671276,5908.042670364846
1.032,-1.0357253515150495,5901.675835418149
1.036,-1.0838483100469836,5887.513417005582
1.04,-1.1291940734493413,5899.037169303687
1.044,-1.1697545743111446,5892.635289881959
1.048,-1.2040023055405336,5894.405070372403
1.052,-1.230901009251597,5908.311498182673
1.056,-1.2499875525553552,5890.982538736897
1.06,-1.261313066014228,5902.488502645402
1.064,-1.2651390560453455,5896.728137786887
1.068,-1.2615432117621046,5900.15839361807
1.072,-1.2502704601952368,5896.985195085138
1.076,-1.2310241682858125,5893.388455453848
1.08,-1.2040085055259966,5900.7794740081545
1.084,-1.1702905503002037,5904.716657955602
1.088,-1.1316982724145552,5903.7350367992185
1.092,-1.0903544378405758,5900.219513018243
1.096,-1.048222868348016,5899.996006743626
1.1,-1.007000387397625,5905.966686067191
1.104,-0.9683849830179282,5898.046051345805
1.108,-0.9344656712727898,5905.393029902431
1.112,-0.9079466942044293,5902.830242881828
1.116,-0.892074454450168,5899.641179768929
1.12,-0.8902465765926066,5899.0577517670345
1.124,-0.9052992481659025,5902.192795609158
1.128,-0.9385474878982817,5902.25201924297
1.132,-0.9888420422752598,5901.1240465415885
1.136,-1.052035781572205,5892.780748576848
1.14,-1.1211642845671994,5905.992453709739
1.144,-1.18738410714446,5903.792805473606
1.148,-1.2414548790879114,5900.485076517483
1.152,-1.2754320650116433,5896.972501960519
1.156,-1.2842439167297381,5905.339761738038
1.16,-1.2668622657575068,5897.208751383491
1.164,-1.2267943484148633,5905.157889065124
1.168,-1.1716455302127002,5890.26674369447
1.172,-1.1116184896088477,5906.104198040954
1.176,-1.0571357185527348,5910.829300483093
1.18,-1.016216553307054,5906.317777020175
1.184,-0.992483744368565,5899.795063905955
1.188,-0.9845154267797249,5892.990591526544
1.192,-0.9868052740081301,5906.716112598929
1.196,-0.9920348675767392,5903.824372100275
1.2,-0.9938349884789286,5902.933418952007
1.204,-0.9889377404245072,5895.362617483393
1.208,-0.9778725974045047,5900.147097227189
1.212,-0.9641085520979518,5899.443200262331
1.216,-0.9522977848535014,5902.048159013667
1.22,-0.9465141620680634,5895.675426837668
1.224,-0.9490857434452502,5905.078390361534
1.228,-0.9601751488973382,5900.2452049422445
1.232,-0.9779591513592921,5890.560278245198
1.236,-0.9991540108270156,5906.267475199124
1.24,-1.0196993949767332,5904.4718988096565
1.244,-1.0355647753457002,5889.392228512381
1.248,-1.0436841746805192,5896.107340458043
1.252,-1.0428557844439341,5909.904904432776
1.256,-1.0342649768912247,5898.546794784378
1.26,-1.021376262564956,5893.1754743458105
1.264,-1.0092242350152822,5897.623263266269
1.268,-1.0033136895354016,5907.046097914058
1.272,-1.0083400680824015,5899.939803004519
1.276,-1.026949227921377,5894.774367424798
1.28,-1.0588469782160683,5897.41464728316
1.284,-1.100599593041087,5888.592460205009
1.288,-1.146299080911691,5905.23701521917
1.292,-1.188935096271088,5888.678389104771
1.296,-1.2220178430103816,5892.352529667519
1.3,-1.2409546023184086,5906.962383310827
1.304,-1.243884693605943,5896.738454989348
1.308,-1.2318777883391663,5892.7930739564
1.312,-1.2084947030798634,5894.743447983362
1.316,-1.17883703314494,5901.473516233049
1.32,-1.1483862342010043,5900.099432968377
1.324,-1.1219537449945252,5910.851968635943
1.328,-1.1028805250887659,5897.318425524172
1.332,-1.0924593674312892,5904.306240448071
1.336,-1.0895990129749034,5891.714380880435
1.34,-1.0909299423084018,5894.91731262495
1.344,-1.0916062384466882,5903.862506216725
1.348,-1.0868005326624255,5904.1470723175335
1.352,-1.0734291890695502,5901.018974527083
1.356,-1.0513490276775994,5907.233405037538
1.36,-1.0234459312047592,5907.096038701665
1.364,-0.9946279557524886,5890.637995671184
1.368,-0.9702961042094832,5905.479426607793
1.372,-0.9549627418297497,5896.89646522383
1.376,-0.9513591886315361,5897.855225689403
1.38,-0.9600446203223513,5896.21706750782
1.384,-0.9794516845752478,5893.532463546778
1.388,-1.0063413397081769,5901.011211562579
1.392,-1.036597021182857,5910.512434338159
1.396,-1.0661868652802708,5894.415674694484
1.4,-1.0920671206211552,5902.42036134106
1.404,-1.1127893118025327,5887.238986642491
1.408,-1.1285811825561602,5905.252477084986
1.412,-1.1407949322115627,5907.216370682989
1.416,-1.1509178185336657,5901.977172640074
1.42,-1.1596161036196408,5910.361973161154
1.424,-1.1662693073891792,5891.57820627708
1.428,-1.1691660266433377,5906.752528624232
1.432,-1.1662081728563969,5899.139872781833
1.436,-1.1557849234051936,5907.786388102129
1.44,-1.1374710450189682,5901.342555036893
1.444,-1.1123267689165282,5905.574263754369
1.448,-1.0827446676132177,5904.180726304526
1.452,-1.0519448113268175,5894.622164573326
1.456,-1.023337094438081,5906.396528193043
1.46,-1.0000092892159755,5898.97826038077
1.464,-0.9845081314275235,5896.562921522111
1.468,-0.9788702266827628,5908.026034641317
1.472,-0.9846580890483504,5903.738855021851
1.476,-1.0027365940379926,5890.768261789461
1.48,-1.0327446337829578,5902.781526284809
1.484,-1.0725251632620474,5899.125580710581
1.488,-1.1179123891211689,5905.413395448895
1.492,-1.1631111699949346,5903.084646788335
1.496,-1.2015899854548582,5905.708537190757
1.5,-1.2272138736508427,5899.008214742173
1.504,-1.23537229469968,5893.324442286341
1.508,-1.2239634322675934,5902.751272751567
1.512,-1.1940875797339359,5902.627505201129
1.516,-1.15019515566545,5895.514312933336
1.52,-1.0994392178467667,5909.862922238002
1.524,-1.0502155069959878,5894.080206300689
1.528,-1.01021582085356,5893.428436004871
1.532,-0.9845740558931285,5910.657011484204
1.536,-0.974730246592332,5899.131037478841
1.54,-0.9784347805417103,5908.031310596702
1.544,-0.9908867690945353,5899.415940281819
1.548,-1.0065060162123989,5902.236780622244
1.552,-1.0205691978876035,5894.508727674798
1.556,-1.0301161003227555,5899.036953996355
1.56,-1.0340547970247773,5894.381700261161
1.564,-1.0328710604486555,5898.244261124123
1.568,-1.0283912013637933,5903.039568580309
1.572,-1.0236556646804862,5900.159157980414
1.576,-1.0225659083188714,5908.516186638065
1.58,-1.0289890752744288,5890.259556112684
1.584,-1.0454100315387875,5895.959594368181
1.588,-1.071635807618176,5905.969256574155
1.592,-1.104181442981049,5900.164279655059
1.596,-1.1367621956702612,5899.803904926562
1.6,-1.1619184437872072,5900.5017968202765
1.604,-1.1733545680524016,5906.879523654406
1.608,-1.1682273759237776,5894.089475355167
1.612,-1.1485307497655775,5893.536397538193
1.616,-1.1209581332243406,5893.19020845762
1.62,-1.0951138341418571,5900.357395380789
1.624,-1.0805495146922748,5897.673971650178
1.628,-1.0836197644476215,5904.635795250476
1.632,-1.1053248657737231,5900.267194477798
1.636,-1.1409819297326096,5905.925242854182
1.64,-1.181835971566391,5900.106536336168
1.644,-1.2179405727634085,5892.353595306356
1.648,-1.2411835793424837,5901.813226967161
1.652,-1.2473646640242695,5896.483601751262
1.656,-1.2366621753468041,5900.053387624543
1.66,-1.2124694913415013,5900.955299405121
1.664,-1.1792250559249176,5893.576695484515
1.668,-1.140272824738103,5906.19466224825
1.672,-1.0967808608347815,5896.538561039662
1.676,-1.0482806825124167,5893.071971416913
1.68,-0.9946355406145494,5905.191216924576
1.684,-0.9385265393647294,5903.381419099251
1.688,-0.8872073617238685,5896.455161312532
1.692,-0.85246408220185,5895.2051032342615
1.696,-0.8482707062131182,5907.109072913454
1.7,-0.8863136906147452,5892.258795529975
1.704,-0.970255440611103,5901.535078380033
1.708,-1.0902143703091987,5900.013457958295
1.712,-1.21924650638233,5901.124328963826
1.716,-1.3134847203522146,5898.415865773796
1.72,-1.3170606959892734,5903.432748260304
1.724,-1.1720000335866416,5907.138762366801
1.728,-0.8318823732346275,5906.710937818868
1.732,-0.27635802512015406,5904.375116919435
1.736,0.47785225804101106,5895.543118594842
1.74,1.374183426746194,5901.631923094505
1.744,2.3245886226788817,5896.674126984924
1.748,3.227860964485858,5904.118409619471
1.752,3.992174560112585,5915.120064065028
1.756,4.5541013313224745,5923.806240272788
1.76,4.888374665354511,5925.721424421434
1.764,5.007065050045281,5946.669757243857
1.768,4.950694506059596,5953.621389976092
1.772,4.775499824654647,5966.442646342469
1.776,4.540690596032528,5971.624345471075
1.78,4.298173975178483,5988.9512006291725
1.784,4.085873137950195,5989.5417666219
1.788,3.92489934186856,5999.900429830767
1.792,3.8202892873322147,6015.226733640537
1.796,3.7645243315658394,6017.312626713787
1.8,3.742611564031293,6019.069401445986
1.804,3.737323930010666,6024.761039341943
1.808,3.7333868074838366,6033.272520337616
1.812,3.7198902364134177,6051.18802277591
1.816,3.6908127056521662,6059.826446461224
1.82,3.644085921133089,6061.466733762167
