时间(s),电压(V),幅值(高频80K)
0.0,0.5758286122429939,5892.36383026892
0.004,0.8460347612079508,5906.876033579982
0.008,1.0837766915977312,5898.9554474759625
0.012,1.26415438205531,5899.193414631131
0.016,1.3746276186070479,5904.259346079626
0.02,1.415949203760205,5900.774325927247
0.024,1.3994692281819192,5903.764664539142
0.028,1.342446069671143,5900.7730128808025
0.032,1.2633280653026446,5897.501857318849
0.036,1.1784591433683325,5913.621668883263
0.04,1.1007000931844309,5905.044561661201
0.044,1.0394791558852763,5896.046255903536
0.048,1.0012319960176927,5906.513712832572
0.052,0.9893793152230451,5904.538469949871
0.056,1.0037828582314872,5897.35984848474
0.06,1.0403689481332679,5893.757412714073
0.064,1.0916765563919981,5894.916682041152
0.068,1.1484510207146699,5902.787585268013
0.072,1.2016717332222377,5899.128929395751
0.076,1.244216496970238,5909.274706491992
0.08,1.27178435765847,5903.687717322542
0.084,1.2831896399328637,5902.6452842623885
0.088,1.2802367258537917,5898.198981405649
0.092,1.2672046512816888,5897.352036332491
0.096,1.2499191889289851,5897.736264108505
0.1,1.2345585579731284,5892.9815735162265
0.104,1.2264601992707078,5902.671543566555
0.108,1.2291021746654587,5895.5746730226165
0.112,1.2433034231402205,5897.259782898281
0.116,1.26675433106309,5894.049496990915
0.12,1.2941307177423578,5903.034170611313
0.124,1.3179462733251934,5897.725300671676
0.128,1.3299764905578024,5907.737962309929
0.132,1.3228929713385298,5910.04851893565
0.136,1.291849942441489,5907.468125810531
0.14,1.2359106836874665,5904.346921378336
0.144,1.1590747408492512,5909.121292714569
0.148,1.0703940051490415,5905.851924645482
0.152,0.9827377895460994,5894.473639844983
0.156,0.9103516076375435,5903.110776397271
0.16,0.865978391351959,5893.879116138358
0.164,0.8584209723541955,5898.518234852787
0.168,0.8910210762868902,5901.557489517192
0.172,0.961086114726004,5909.243580150155
0.176,1.0601861748001735,5900.633003854939
0.18,1.1753789614116064,5902.657889787293
0.184,1.2914087432854522,5896.172590865514
0.188,1.3935436086496649,5910.105433938128
0.192,1.470226360818785,5893.77270656988
0.196,1.5146565958924254,5903.254311586347
0.2,1.5249704462328344,5904.182928966326
0.204,1.5033775857687304,5892.926053813904
0.208,1.4549011092529858,5903.334072691379
0.212,1.38621793595162,5905.920528569403
0.216,1.3048448252788798,5898.690476924538
0.22,1.2187074887847782,5908.182579979117
0.224,1.1359028468965175,5897.100789717774
0.228,1.064287848188577,5909.578869778567
0.232,1.010623613422975,5900.38559246696
0.236,0.9793893926907441,5904.336798160334
0.24,0.9717541607555085,5893.448078168713
0.244,0.9852484606088525,5901.264999147642
0.248,1.0143931129186337,5894.270912559377
0.252,1.0521057294164056,5895.371224762032
0.256,1.0913629106089606,5892.826626047577
0.26,1.1265651112831427,5904.514224810182
0.264,1.15434126065083,5903.205613305396
0.268,1.1738259702926415,5898.812374473494
0.272,1.1864624500089584,5902.314432949278
0.276,1.195271846159604,5898.668630636031
0.28,1.2036198720754696,5905.38662553227
0.284,1.2138339683119068,5899.490174218699
0.288,1.2262419524250188,5896.185717519372
0.292,1.2390153135032997,5898.22811455073
0.296,1.248728476978928,5900.655927828135
0.3,1.2512474985279938,5896.71662288372
0.304,1.2426927843330322,5893.697326209855
0.308,1.2204749078885428,5901.343434066707
0.312,1.1843193459329462,5896.208286885483
0.316,1.1368720057665684,5903.321286051762
0.32,1.0834625736184484,5899.12210362097
0.324,1.0310423986571762,5901.14102699342
0.328,0.9867319192540732,5900.188450565037
0.332,0.9564419120036233,5905.000996750761
0.336,0.943822097178246,5899.004283638064
0.34,0.949614683849147,5898.812414828138
0.344,0.9714274938147438,5904.174748425121
0.348,1.0039732458199313,5904.368991604388
0.352,1.0398865186141049,5904.9898688857165
0.356,1.0711804756224643,5893.553897914412
0.36,1.0911590032071978,5903.465301911582
0.364,1.0962807972711226,5896.680857377472
0.368,1.0872889926583853,5894.099325208864
0.372,1.0690296123999807,5901.932277884699
0.376,1.0488600724738757,5894.753448261769
0.38,1.0342371106442818,5902.849451461447
0.384,1.0305100706014991,5895.634757560591
0.388,1.0397674889418003,5901.948246215554
0.392,1.0609655765230959,5904.909569191021
0.396,1.0910069775317623,5899.536279751586
0.4,1.1261978867048164,5900.272631806544
0.404,1.1634869651650313,5901.8694072867365
0.408,1.2009704201649496,5899.62952268552
0.412,1.2374069211740706,5897.744983226471
0.416,1.2709705820255135,5901.657027500015
0.42,1.2979957620266014,5893.17179502708
0.424,1.3126650831915436,5891.904564692402
0.428,1.3081817961844793,5897.910158360043
0.432,1.2791153018264543,5911.588582353652
0.436,1.2238948585970806,5899.224473757521
0.44,1.1463030451520206,5897.431416331203
0.444,1.0552661680257913,5898.571992053009
0.448,0.9629529802942253,5897.869211222346
0.452,0.8818548221293814,5908.735576601172
0.456,0.8218796481028902,5903.977173633783
0.46,0.7884230801350889,5899.586609499327
0.464,0.7819122883449816,5892.694771908747
0.468,0.7986578365082884,5894.6788378855135
0.472,0.8323357548325536,5912.244914324465
0.476,0.8753522871690684,5903.724452772085
0.48,0.9197474581065975,5902.009558951661
0.484,0.9578706023291095,5899.642791955234
0.488,0.9833443408435881,5904.446005747517
0.492,0.9925480281914698,5900.701827766403
0.496,0.9861891147854375,5898.089515574521
0.5,0.970027269460938,5910.7184230987805
0.504,0.9539374705103343,5903.195115816467
0.508,0.9492703727937368,5901.3705552041065
0.512,0.96539602109695,5898.351405330748
0.516,1.0067433675556785,5900.875854241676
0.52,1.0713176391785613,5901.893072039076
0.524,1.1509283741495229,5904.97412844582
0.528,1.2327795241884283,5892.300145827572
0.532,1.3019717074097645,5897.716936908133
0.536,1.344603689715295,5909.347813518388
0.54,1.3510507306162658,5907.478809442028
0.544,1.3186115625578347,5899.282730554709
0.548,1.252587970586991,5901.358064302989
0.552,1.1653279568383867,5903.0654752961855
0.556,1.0735127805035527,5907.792260474836
0.56,0.9945190708820205,5899.19198961072
0.5640000000000001,0.9428486860964679,5896.765744515285
0.5680000000000001,0.9274196236085567,5904.6192436276015
0.5720000000000001,0.9501204677251831,5899.327017480137
0.5760000000000001,1.0056974714728857,5902.563337542387
0.58,1.082867152036972,5914.621506473501
0.584,1.166441256470902,5899.457013607411
0.588,1.2401496199775288,5903.502760938832
0.592,1.289759524405197,5907.185202379941
0.596,1.3059959503034668,5902.715742416018
0.6,1.2866439777902918,5902.825263512003
0.604,1.2371732331928067,5895.996150948967
0.608,1.169466459081825,5902.1754499479575
0.612,1.0988203583810048,5908.259873382904
0.616,1.0400678866834434,5888.124835339827
0.62,1.0040390621859934,5899.442455482267
0.624,0.9954244138787862,5895.027601057488
0.628,1.0125422266614335,5905.95136221722
0.632,1.0488167869579395,5904.667361448085
0.636,1.0952727330052507,5893.539722231164
0.64,1.1432147560876156,5903.595856776166
0.644,1.1863688763407454,5895.758225020417
0.648,1.2219458567003154,5910.33076007371
0.652,1.2503932171931962,5897.110643300013
0.656,1.2740555049708489,5893.298785821676
0.66,1.2953513145870215,5894.160454705015
0.664,1.3151715164797035,5903.223347915724
0.668,1.332013150284617,5900.953438245515
0.672,1.3420639231911695,5903.842081423775
0.676,1.340197430579061,5907.411164973128
0.68,1.321644579321529,5894.719145451642
0.684,1.283894488811873,5901.390400964685
0.6880000000000001,1.228190543074314,5898.318306514868
0.6920000000000001,1.1600236140347773,5898.215634088559
0.6960000000000001,1.0883558028207112,5900.218215467741
0.7000000000000001,1.0237589055229521,5895.801547707459
0.704,0.9760040922846853,5897.684861389458
0.708,0.9517663319413513,5896.466803451581
0.712,0.9530080715682412,5906.849911897761
0.716,0.9764057660082796,5903.775412808083
0.72,1.013973659648116,5901.26665846735
0.724,1.0548206521583907,5900.544269107364
0.728,1.0877691524627848,5905.901469129852
0.732,1.1043594986719343,5900.576823377086
0.736,1.1014711012291714,5890.511281940863
0.74,1.0825275771965592,5901.169140507465
0.744,1.0564466219387767,5896.6966248091
0.748,1.0343912617855806,5897.587062070795
0.752,1.0255432078489137,5912.652691830569
0.756,1.0337129212207348,5893.357873741372
0.76,1.056177292581403,5909.755299877608
0.764,1.0850125573120444,5902.710462238052
0.768,1.1100931140838566,5892.955064085588
0.772,1.1224346902381959,5892.681857786029
0.776,1.1167742582767293,5909.610835395939
0.78,1.0928411646640082,5903.175577989938
0.784,1.0552522102686113,5903.36997116024
0.788,1.0122288847645682,5897.867343784671
0.792,0.9735111928688491,5905.150923409319
0.796,0.948001972597781,5890.984744256985
0.8,0.9417119614153489,5905.325095038374
0.804,0.9563962345937509,5898.34075236764
0.808,0.9890182042275155,5900.236815568564
0.812,1.0320733776716577,5910.623381151262
0.8160000000000001,1.0748391945137514,5900.760679234174
0.8200000000000001,1.1055816601360506,5902.024242982746
0.8240000000000001,1.1145076659576656,5897.189154708409
0.8280000000000001,1.0968091714359984,5899.740622305114
0.8320000000000001,1.0547082880535084,5899.730424113072
0.836,0.997441243842471,5904.38660240817
0.84,0.9388897100763504,5910.497438339935
0.844,0.8936653757149428,5895.973693841243
0.848,0.8731034217191218,5902.036597876341
0.852,0.8824622026020572,5895.079013909739
0.856,0.9199573018013197,5913.001402623874
0.86,0.977619031079924,5899.770125714187
0.864,1.0436011718054057,5897.3002096559785
0.868,1.1053448258779974,5907.24723986577
0.872,1.15275424601107,5899.573582234988
0.876,1.1803936609999213,5896.062642161744
0.88,1.1879561310102145,5904.015399844574
0.884,1.1789705899560012,5912.424916550006
0.888,1.158544369966455,5896.344609696479
0.892,1.1313047960975877,5893.926545996866
0.896,1.1003458430463042,5898.99021486819
0.9,1.0672653728953116,5904.948779868304
0.904,1.0328970984569485,5902.885790829705
0.908,0.9982969746993028,5912.095388211947
0.912,0.9656423284728831,5903.853471705256
0.916,0.938682142211528,5898.943357692409
0.92,0.9223743534010673,5901.945822742956
0.924,0.9216406820252074,5907.804418574438
0.928,0.939701920192945,5903.508690438137
0.932,0.9767862020098242,5894.6510252411135
0.936,1.0298088355209676,5905.853371809316
0.94,1.0930622391852076,5894.619770329769
0.944,1.159431393104445,5895.0572293443465
0.948,1.2214710374277085,5898.329950179967
0.952,1.2719636274086754,5897.677819563553
0.956,1.3041529935378293,5904.80258157409
0.96,1.3122552311651423,5895.771728308791
0.964,1.2926948325182082,5905.957157507191
0.968,1.245860157279436,5898.346578204994
0.972,1.1774907629608329,5904.468313081835
0.976,1.0986439307951457,5892.73455499467
0.98,1.0237571121786215,5898.893065490325
0.984,0.9672909847052151,5901.301536936704
0.988,0.940149795703164,5898.1114789921685
0.992,0.9471384544277636,5905.458340110742
0.996,0.9862258258477967,5890.410160474851
1.0,1.0496289913842907,5903.058523600962
1.004,1.1260380837096224,5904.315454402347
1.008,1.20305206373483,5901.881840857523
1.012,1.2692077208585815,5906.773252347028
1.016,1.3154647624443705,5900.033247575812
1.02,1.3362161710342422,5893.821231257846
1.024,1.3298001282710357,5904.102189517507
1.028,1.2983600114362295,5901.107349056192
1.032,1.2469658727164048,5894.01557151723
1.036,1.1822013795288948,5901.99136118064
1.04,1.1107189150808068,5900.4260505244165
1.044,1.0383214008467716,5893.915410063105
1.048,0.9698826115547406,5906.7537568620655
1.052,0.9099723338125901,5902.263340806817
1.056,0.8636255766470075,5904.222289792627
1.06,0.8365814532518808,5895.612845864781
1.064,0.834620696340599,5898.6375442858525
1.068,0.8620956260434876,5902.068485448449
1.072,0.9200834833440557,5899.340034654507
1.076,1.0047809968489299,5900.962878040156
1.08,1.1068383676762616,5891.676824984583
1.084,1.2121827406601207,5900.5334676967
1.088,1.304401537706481,5894.761944746776
1.092,1.3681297742434193,5901.608580447075
1.096,1.3924992480796698,5909.444600133984
1.1,1.3737571542726281,5899.639377978394
1.104,1.3164444428708044,5907.24292545771
1.108,1.2327644339351453,5901.959563974746
1.112,1.1400364648850196,5897.27183097702
1.116,1.0566545278614063,5898.676012332966
1.12,0.9976522408803437,5894.594458876572
1.124,0.9713196801002295,5900.958539730181
1.128,0.977955178397042,5906.419472247573
1.132,1.0109334350538173,5892.023272348428
1.136,1.0593832053448164,5894.64700732711
1.14,1.111348485831259,5904.60390907517
1.144,1.1564321394928265,5898.301852480666
1.148,1.1873788923023054,5905.507342774349
1.152,1.2005650711206481,5899.161521773627
1.156,1.1957057012116064,5895.940164266205
1.16,1.1751725549923135,5899.410743973468
1.164,1.1432222663359959,5901.167658774106
1.168,1.1053140351057562,5903.607493961328
1.172,1.067561436562195,5902.901309425904
1.176,1.0361637931113465,5892.286865060428
1.18,1.0165537117295234,5902.042971974441
1.184,1.0121955070635476,5901.125242016415
1.188,1.023389250395132,5907.163104055102
1.192,1.0467209325135445,5905.105051268698
1.196,1.0756869784376506,5902.867993432408
1.2,1.1025384431802858,5897.4784600221
1.204,1.1207771468796899,5902.15834005299
1.208,1.1273322631030316,5901.165617239364
1.212,1.1235291316220481,5899.738314766915
1.216,1.1144980119179053,5898.395011287113
1.22,1.1073238353767374,5907.873973373669
1.224,1.1086729968976174,5898.012630779581
1.228,1.1226949092166694,5904.144138780544
1.232,1.1497515745517508,5901.542702484842
1.236,1.1862126062376457,5895.751832630704
1.24,1.2252910189103052,5898.016843970388
1.244,1.2586054735599834,5898.1311640103095
1.248,1.2779003976119157,5912.818811091266
1.252,1.2764206824738027,5902.9261625509125
1.256,1.2498348150893477,5894.133887670518
1.26,1.1969058528922896,5909.972534138726
1.264,1.120017889830512,5896.309714449852
1.268,1.025397978187958,5895.785833828829
1.272,0.9228032814023992,5900.908433772629
1.276,0.8245534112623849,5901.527549073204
1.28,0.7438658095457462,5899.673985184274
1.284,0.6925873728084656,5888.306965220073
1.288,0.6787675608158519,5901.741415695892
1.292,0.7048291763060333,5894.735221144737
1.296,0.7669780215145819,5897.756059674054
1.3,0.8559927741948699,5895.828606869943
1.304,0.9590359644882307,5906.753185558159
1.308,1.0619256431567072,5904.216893824544
1.312,1.1514157260563511,5897.478552951705
1.316,1.2172349650286711,5888.362523087785
1.32,1.253700486060691,5905.403347839669
1.324,1.2606225804860571,5901.774544694824
1.328,1.2431548728278028,5897.623661723405
1.332,1.2104432862267407,5898.814914627989
1.336,1.1733478176615255,5899.965774718054
1.34,1.141841650730572,5914.56885925875
1.344,1.1227246250882053,5908.587551778157
1.348,1.1181427444229675,5896.256816299115
1.352,1.1252635677075462,5888.662691764718
1.356,1.1372698220263322,5903.496736962553
1.36,1.1454636743259787,5891.802657174405
1.364,1.1418288932368152,5897.314049376611
1.368,1.1212294310078488,5892.492195145904
1.372,1.0827006569563986,5906.290159355775
1.376,1.0297150941907527,5902.235628511987
1.38,0.969492416737794,5905.009738528611
1.384,0.9114444989824539,5901.889649281768
1.388,0.8650409398724331,5899.856355959424
1.392,0.8377218514199143,5890.575008004837
1.396,0.8335484611165596,5893.68354639684
1.4,0.8528728514873474,5900.170940687988
1.404,0.8927636239583806,5898.791506440789
1.408,0.9476961029921577,5898.442496107233
1.412,1.0101867395307538,5907.92836201645
1.416,1.0713941321152636,5893.500405260738
1.42,1.1219945325872394,5898.876299340908
1.424,1.1536727156687132,5894.91527170446
1.428,1.1611821011991326,5889.8626074090425
1.432,1.1442759541212604,5894.153396100635
1.436,1.108461553049674,5891.076546022439
1.44,1.0639134637842813,5904.938184498944
1.444,1.0227635991305757,5892.155168972218
1.448,0.9957051388264927,5907.253054496423
1.452,0.9890093857401465,5895.368032127542
1.456,1.002788279948795,5907.1136106015
1.46,1.0309697654070564,5900.679758100066
1.464,1.0631080218269442,5906.4616373641975
1.468,1.087686520269242,5904.358640166211
1.472,1.0959519784479026,5905.954104546695
1.476,1.0848795503402517,5905.900593234794
1.48,1.0580519996155955,5900.609772739668
1.484,1.024105191252227,5895.161488701362
1.488,0.9935184861277884,5896.0412981433465
1.492,0.975229303577943,5903.172778821754
1.496,0.9743829457111312,5890.702343376807
1.5,0.9916943302119565,5897.430014311914
1.504,1.0240636829985286,5901.868707466067
1.508,1.0657631897202917,5901.528530172671
1.512,1.1096968044226834,5902.550850541439
1.516,1.1486051831610644,5898.223090946636
1.52,1.1763270700325346,5897.629380919132
1.524,1.1891658731461339,5906.43215181921
1.528,1.187072723786982,5904.679367981304
1.532,1.1740426249374767,5894.797665196796
1.536,1.1572059459231956,5896.905758716478
1.54,1.144629525357632,5899.583659391594
1.544,1.1424457452998684,5901.308397210339
1.548,1.1522308278613718,5897.3491618341
1.552,1.1695321799653173,5901.354395954799
1.556,1.1842180485818794,5900.5291082314
1.56,1.1828583053006785,5912.534353307894
1.564,1.1526441998167525,5902.680737946663
1.568,1.0856974031363673,5908.689665174164
1.572,0.9823523727039797,5902.918581808855
1.576,0.8522403743094381,5894.899334613291
1.58,0.7126722260062556,5908.007516509844
1.584,0.5847172959071149,5905.82248158528
1.588,0.48818685219509195,5895.35996672794
1.592,0.43707695826920145,5901.684102079026
1.596,0.43674706005775127,5900.328817620562
1.6,0.4834029979493047,5894.77564707236
1.604,0.565701320678151,5904.68297244389
1.608,0.667778701700464,5893.284904000438
1.612,0.7728081194294991,5909.91209177162
1.616,0.8662373300769345,5899.659766958949
1.62,0.9381091546596677,5901.953580237119
1.624,0.9842053063093384,5901.9049336852895
1.628,1.0060151879134087,5904.845766132235
1.632,1.009590023557698,5901.865346776261
1.636,1.003361002840778,5909.057848594179
1.64,0.9952614369275201,5893.112071995847
1.644,0.9899730947515651,5903.083045745975
1.648,0.987387458251883,5909.646364050111
1.652,0.9830646802618995,5898.872874987578
1.656,0.9706830013654523,5898.25400420533
1.66,0.9455859144535473,5901.091880478655
1.664,0.9079224080252393,5899.851711803635
1.668,0.8638711022974093,5899.05752094413
1.672,0.8242191208689751,5898.820272539741
1.676,0.8008087370099182,5904.539975247271
1.68,0.8023200493863109,5905.308123424207
1.684,0.8310007229036819,5896.707126139872
1.688,0.8814208655655664,5899.164000649805
1.692,0.941606517178517,5901.403578511465
1.696,0.9962589726248663,5904.781353289358
1.7,1.0311805882933591,5899.575529414348
1.704,1.037553088702429,5899.447986852039
1.708,1.014633417350659,5893.1438832147305
1.712,0.969949606631218,5910.923168602946
1.716,0.9169991647291488,5898.958619962929
1.72,0.8712969116212872,5904.503588342609
1.724,0.8460285424512367,5907.377217661922
1.728,0.8485110002643711,5900.790249222061
1.732,0.878308135204826,5899.96890290628
1.736,0.9273777972767154,5903.522442580923
1.74,0.9821834645298049,5905.895696526481
1.744,1.0273249118367649,5901.567679831997
1.748,1.0498063557157629,5909.709793865406
1.752,1.0426321581816262,5902.821787094607
1.756,1.0064727138836564,5913.512743245272
1.76,0.9489587209372675,5907.93101253784
1.764,0.8822225651519909,5905.966398528444
1.768,0.819804358399253,5907.019347068229
1.772,0.773809621714083,5903.050517754772
1.776,0.7527279705472549,5901.888846606914
1.78,0.7600484305281071,5898.919450339851
1.784,0.7937875479868322,5892.658160063493
1.788,0.8470647996304633,5905.03505186365
1.792,0.9097111816254995,5906.707367076511
1.796,0.970573053744427,5890.694913757132
1.8,1.0198588661856436,5905.196539075469
1.804,1.0508122852336086,5890.100297221038
1.808,1.0603137620997187,5902.214997478895
1.812,1.0485634865780893,5900.6709209974215
1.816,1.018364356160822,5907.907262401353
1.82,0.9744339578836339,5900.368618943822
1.824,0.9228437962433736,5900.942347437144
1.828,0.8704763672306125,5901.833609033845
1.832,0.824353299508424,5897.659278272514
1.836,0.7907150075220886,5905.584615194521
1.84,0.7738623141715282,5905.765906198777
1.844,0.7750083614530202,5902.136720496551
1.848,0.7915711273546316,5888.831087862389
1.852,0.817346712499916,5901.283189918287
1.856,0.8438222848491503,5900.710774306052
