时间(s),电压(V),幅值(高频80K)
0.0,1.794596460593209,5910.397486753006
0.004,1.5657136858817955,5902.158749351594
0.008,1.3635063972134602,5907.57908978158
0.012,1.2083613074074246,5903.366814247265
0.016,1.1110909948323977,5896.121110608196
0.02,1.0715823970228953,5894.204238421142
0.024,1.0801728403731707,5888.3230289853445
0.028,1.1210249825501988,5897.041200083663
0.032,1.1762648137712877,5891.606122626852
0.036,1.2297269847391152,5889.963371206425
0.04,1.2696533693762584,5907.872518250004
0.044,1.2902054653511654,5891.566924672878
0.048,1.291830381293556,5900.798989366174
0.052,1.280425288433774,5902.109522651229
0.056,1.265300618723446,5890.116002458768
0.06,1.2563528429978366,5906.439480039659
0.064,1.2612800411102871,5893.931861320113
0.068,1.2836773433622357,5894.529294143819
0.072,1.3224503356782789,5897.967258273549
0.076,1.3725206645638746,5904.754676646158
0.08,1.4264907642848859,5897.746702363316
0.084,1.4767449903958279,5898.424784644094
0.088,1.5173345636238524,5902.032431364564
0.092,1.5450729333126114,5893.274452466961
0.096,1.5596839920974133,5904.706356511634
0.1,1.563321553517721,5902.086882112764
0.104,1.5598549863625812,5905.614496932507
0.108,1.5539845307547524,5893.679293999905
0.112,1.550015931877678,5897.444966635763
0.116,1.550362919285781,5891.405486959696
0.12,1.5543415455632412,5904.189638497094
0.124,1.5580149571605486,5900.033245139488
0.128,1.5554425331741106,5899.953630005581
0.132,1.5409479542910522,5907.594386877958
0.136,1.5114819285762457,5890.775552311855
0.14,1.4681063824891083,5907.177186367467
0.144,1.4159931503558867,5896.722243219612
0.148,1.3629337292261392,5901.514742155363
0.152,1.3170127212855873,5909.198607200424
0.156,1.2844916805611895,5890.263844809132
0.16,1.2687579213519466,5900.116953972195
0.164,1.2704695350675674,5906.344544977445
0.168,1.288312380028152,5903.459067464335
0.172,1.3196204666101357,5892.949902428471
0.176,1.360507747319414,5902.102164032636
0.18,1.4056965321433923,5901.5417962113615
0.184,1.448537313224558,5906.350672537699
0.188,1.481665307367543,5903.364033156405
0.192,1.498400241740665,5900.732666712412
0.196,1.4945785414419805,5903.462487512363
0.2,1.4701917390405892,5905.008277841224
0.204,1.430094525578197,5895.327328699249
0.208,1.3832614579935603,5891.54858956406
0.212,1.3406268054255137,5893.311604601137
0.216,1.3121820258121812,5899.621809989817
0.22,1.3043628662793727,5893.696830038385
0.224,1.3186185438947857,5903.147321959603
0.228,1.3514806819964296,5896.955264552592
0.232,1.3957858195236712,5895.790081415069
0.236,1.4424053514171724,5888.350008013704
0.24,1.4820540367516986,5903.594397985286
0.244,1.5070987835944591,5900.44946928902
0.248,1.5132592249850478,5898.071289965379
0.252,1.5007177062742427,5896.706171217216
0.256,1.4740082818816813,5901.67679292345
0.26,1.4404811501934263,5898.380749748768
0.264,1.4078529167634037,5909.523717804615
0.268,1.3818196610589637,5899.488163928139
0.272,1.3646671793660603,5903.765531943682
0.276,1.355346924085442,5899.507566197141
0.28,1.3508409808041393,5895.140103229482
0.284,1.3481004521549114,5898.408891185352
0.288,1.345658014370755,5903.478450247376
0.292,1.3442532756295988,5901.5974587235
0.296,1.3463114504131837,5898.415139901083
0.3,1.354641684110702,5904.7327643542185
0.304,1.3710475106541637,5900.27569323754
0.308,1.3954899798875824,5901.12923960305
0.312,1.4260274386891354,5899.974805816426
0.316,1.4592883197620035,5910.598606783701
0.32,1.4910726708199864,5903.790193876533
0.324,1.5168596447834881,5898.484157328204
0.328,1.532268911586988,5897.246726443266
0.332,1.5336436595756344,5906.980871037403
0.336,1.5188128719141343,5894.450997257861
0.34,1.4878543621290408,5896.4014741557885
0.344,1.4435326676582008,5902.137227436596
0.348,1.3911356673432618,5899.001482671019
0.352,1.337616629827136,5903.426706070146
0.356,1.2901957543521152,5896.9244281035535
0.36,1.2548092119970455,5900.953538313095
0.364,1.234852061306833,5895.791807065441
0.368,1.2305154965656573,5897.936340960648
0.372,1.2388585516885184,5900.78611919406
0.376,1.2546546135719623,5900.463058829624
0.38,1.271871471437252,5901.967376001253
0.384,1.2853623930486657,5901.097837831599
0.388,1.292185722209201,5895.178274235792
0.392,1.2920886859499843,5901.462996962075
0.396,1.287016955931663,5896.152521494343
0.4,1.2799026244573146,5893.473870403419
0.404,1.2732943162365555,5894.132237214651
0.408,1.268428601414128,5904.9950768732415
0.412,1.2650472677678093,5897.036271958642
0.416,1.2618861717454148,5898.05024018849
0.42,1.2575532585216438,5896.948610768546
0.424,1.251465857851072,5895.28542743571
0.428,1.2445195673818055,5910.280754728412
0.432,1.239215229496386,5898.143254066627
0.436,1.2391609255747453,5901.735022517136
0.44,1.2481670171018266,5898.173677264194
0.444,1.2693113775016558,5900.0075871104455
0.448,1.3041948226804196,5895.590458096387
0.452,1.3523930938993434,5899.572953295827
0.456,1.4111648367966216,5901.983299332096
0.46,1.4756364729665097,5899.659914904988
0.464,1.5395848725885597,5907.080344488279
0.468,1.596575457429815,5896.453652073196
0.472,1.6409466944497975,5906.226178984152
0.476,1.6682532802214407,5903.874444030852
0.48,1.675210592723068,5899.647515199151
0.484,1.6595550457918409,5899.784753209152
0.488,1.620255194681351,5904.624171829779
0.492,1.5581923873405634,5899.699365112026
0.496,1.4770139115901413,5895.998033492912
0.5,1.383609584719392,5896.045363663416
0.504,1.287730808577656,5912.79582949378
0.508,1.200632464622124,5906.200859403577
0.512,1.1330726433886102,5890.023844764115
0.516,1.0932863873694818,5899.311534855487
0.52,1.0855070887108416,5904.045722987665
0.524,1.1093362608002868,5898.409324886617
0.528,1.1599825290438048,5900.135285659317
0.532,1.2292292390843744,5898.167487037563
0.536,1.3069161088612802,5904.108951590498
0.54,1.3826605446218692,5898.591362657889
0.544,1.4474973357003962,5893.517398694962
0.548,1.495147585892448,5898.488939745137
0.552,1.522748308580085,5893.873728661152
0.556,1.5309879505751998,5898.073802773072
0.56,1.5236514125550291,5899.568558179565
0.5640000000000001,1.5066680051417054,5907.107354463609
0.5680000000000001,1.486914187417032,5895.23824321179
0.5720000000000001,1.4710868232087018,5905.486320373225
0.5760000000000001,1.4647935347948735,5903.19408227625
0.58,1.4717717522535199,5906.144900376148
0.584,1.4931479093495308,5893.363544142976
0.588,1.5268992338980514,5898.334509777278
0.592,1.5678738849100615,5896.847853071114
0.596,1.6086033435653206,5899.106055398233
0.6,1.6407861354104956,5897.755849497571
0.604,1.6570410509613815,5895.288126814441
0.608,1.6524896544933836,5891.748719011682
0.612,1.6258210154880093,5905.755733325682
0.616,1.579588857685923,5895.2650681136765
0.62,1.5196343896594042,5901.22766244949
0.624,1.4537491564665945,5895.81858541256
0.628,1.3898919667228862,5901.477283163392
0.632,1.3343732714644048,5893.7100040322775
0.636,1.2904489648646653,5906.26695478446
0.64,1.2577321330172688,5902.606987391017
0.644,1.2326582512750492,5896.249344531537
0.648,1.209918559332811,5907.97789183903
0.652,1.1844539309860151,5900.774602353269
0.656,1.153411414785492,5905.611763582228
0.66,1.1174355326175869,5891.746794743329
0.664,1.0808311080376174,5899.014719476409
0.668,1.0505100691947746,5903.027441449053
0.672,1.0340700633248368,5892.963167198085
0.676,1.0376217992219574,5903.449667647212
0.68,1.0639917181974448,5913.757550529715
0.684,1.1117339788125464,5897.10336883548
0.6880000000000001,1.1751280112289015,5890.593479957155
0.6920000000000001,1.2451673284958857,5893.763590378817
0.6960000000000001,1.3114718497454758,5900.304505436314
0.7000000000000001,1.3648700481186227,5900.347404966262
0.704,1.3999710437629773,5894.705321341388
0.708,1.4166993486236976,5899.168104057816
0.712,1.4200090946789756,5896.471799569164
0.716,1.4178543926360925,5907.452340601539
0.72,1.4183484306420682,5900.74030154271
0.724,1.4272592540812952,5910.058020767975
0.728,1.4465555174873737,5903.4401481379455
0.732,1.4741540020755803,5899.60867518706
0.736,1.5047102373754282,5900.870251433314
0.74,1.5311695169231907,5894.961950437985
0.744,1.546729937052178,5902.533740445784
0.748,1.5468488603255919,5895.372700005952
0.752,1.5308457523913421,5897.1945058558185
0.756,1.5025068426789143,5909.72256606081
0.76,1.4692162976770913,5897.062513938382
0.764,1.439727064698718,5894.492419660067
0.768,1.4213482992687392,5904.004367296052
0.772,1.417549807437423,5897.032889805273
0.776,1.4267518314792822,5901.955742244198
0.78,1.442689486166957,5902.036993387891
0.784,1.4563471291707457,5900.263511526294
0.788,1.4589576821831174,5903.032728267151
0.792,1.445019867286721,5901.890936373063
0.796,1.4141143751402225,5892.933620259546
0.8,1.3708223058552025,5896.583699332393
0.804,1.3229837112266745,5900.798368533352
0.808,1.27923318851974,5905.157808081621
0.812,1.2468413102336615,5906.4855428647925
0.8160000000000001,1.2304662559152868,5906.493150274232
0.8200000000000001,1.2318255631406494,5891.523939911564
0.8240000000000001,1.249899997321812,5904.819923085192
0.8280000000000001,1.2812553955213355,5898.047707288961
0.8320000000000001,1.3203456352320702,5898.458583379514
0.836,1.360030652813005,5908.342070853308
0.84,1.3926871347070184,5901.155257173533
0.844,1.411937920230423,5907.605549488702
0.848,1.4143818686762455,5902.590720639926
0.852,1.4004384740674156,5901.589725329236
0.856,1.3739116719556477,5902.390268943464
0.86,1.3406679926176497,5898.47073468322
0.864,1.3071573299335164,5896.57926401208
0.868,1.2792378767850396,5892.156827027067
0.872,1.2613794769566757,5901.902920774136
0.876,1.25616270589812,5904.032912465377
0.88,1.2639938843653247,5900.167245610579
0.884,1.2830044848774156,5895.876041769462
0.888,1.3092306194579395,5895.54858886663
0.892,1.3372955083032039,5904.696341784652
0.896,1.3616874723122308,5899.468678947269
0.9,1.378293964350884,5900.697226173673
0.904,1.3854987331712059,5889.504578355822
0.908,1.3842759562886569,5904.420579418889
0.912,1.3772545057825984,5898.02311742359
0.916,1.3672445424990352,5899.817285418752
0.92,1.3559361470909914,5899.035460084758
0.924,1.3434171703982236,5896.778176702893
0.928,1.3288251112268523,5890.445102705595
0.932,1.3118219533829951,5897.231402228388
0.936,1.293960728184496,5911.669593766413
0.94,1.278934561850839,5895.683956841179
0.944,1.2713509536572105,5906.9807435791845
0.948,1.2746419561774158,5897.703440241934
0.952,1.2893133800204755,5896.083249264923
0.956,1.312498598914406,5898.5040526004905
0.96,1.338904354875725,5903.326980152106
0.964,1.3624593215483984,5902.365254707559
0.968,1.3778667332427765,5908.075109830328
0.972,1.381663487882014,5892.914219413788
0.976,1.372778071251358,5908.09584632027
0.98,1.3527127071042697,5911.130727144275
0.984,1.325426869134255,5893.84427543219
0.988,1.2968731900857553,5899.273719307061
0.992,1.2740462951826035,5904.739376763479
0.996,1.2635124329214753,5898.251405219815
1.0,1.2696959478606973,5909.387851743214
1.004,1.2934883805818882,5902.301621653295
1.008,1.331793969451209,5899.528320000606
1.012,1.3783332401521033,5895.264106706345
1.016,1.4254728669962073,5901.616342260853
1.02,1.466343804627584,5905.372120713414
1.024,1.4963925914867113,5897.4563403772345
1.028,1.5138385592066692,5899.5466735326445
1.032,1.5190389316827577,5903.036570855828
1.036,1.513208890597967,5899.014553071625
1.04,1.497155745566731,5903.785218142708
1.044,1.4706280944466117,5910.183055416343
1.048,1.4325667838332925,5895.6662677344175
1.052,1.3820945683798238,5902.9318005346295
1.056,1.3197362766704626,5902.490435379356
1.06,1.248306037011183,5903.935373181856
1.064,1.1731064826918878,5897.785021130161
1.068,1.101385761726877,5902.424493896829
1.072,1.0412343049045967,5903.748231316856
1.076,1.0002216587792025,5900.571865036744
1.08,0.9841027847364497,5905.709740580956
1.084,0.9958707461231482,5900.144043562223
1.088,1.0352768537497314,5900.069274061545
1.092,1.0987559573093053,5899.495955406931
1.096,1.1796489065530709,5897.623525623266
1.1,1.2687259945012601,5901.123381725011
1.104,1.3550815065728226,5899.000093687151
1.108,1.4273737063520235,5902.462216138373
1.112,1.4752878092169694,5899.403046371677
1.116,1.4911119159231256,5896.680601072671
1.12,1.4712680416032036,5902.234637899567
1.124,1.4174345514716942,5910.93582548758
1.128,1.3367547883204547,5900.296493419864
1.132,1.2407844050753245,5901.035752641849
1.136,1.143259268751201,5896.226857765359
1.14,1.0572642266262195,5894.257162201339
1.144,0.9926816637117156,5904.630754791064
1.148,0.954669917449994,5905.74027395453
1.152,0.9434364208904906,5899.350369011258
1.156,0.9550957637784355,5903.101405315897
1.16,0.9831767963290405,5898.059225812179
1.164,1.0202996116736798,5897.862099779816
1.168,1.0596098881298033,5901.060922954285
1.172,1.095763845954553,5902.751784777621
1.176,1.125494371551376,5896.001074023189
1.18,1.1478412170458365,5907.518860755752
1.184,1.1640040937196419,5896.223523914258
1.188,1.176705476439815,5902.645761374498
1.192,1.1890511246508306,5908.246726126804
1.196,1.2030946619202902,5906.39100500291
1.2,1.2185453793160537,5903.370020582893
1.204,1.2321531559616008,5897.704987002926
1.208,1.238118579718792,5894.924666401139
1.212,1.22949667578789,5898.852676605209
1.216,1.200257958079452,5909.770210407912
1.22,1.1475305906970559,5906.719495827772
1.224,1.0734315927041311,5910.277748617992
1.228,0.9858042442864241,5899.181813365813
1.232,0.8973475596194344,5899.373322569924
1.236,0.8231506736387573,5898.384848188152
1.24,0.7772721906823368,5899.770797848359
1.244,0.7693546881038029,5900.979887598457
1.248,0.8022223976266359,5902.943241268328
1.252,0.8711413123448631,5904.940814500857
1.256,0.9650195712654502,5903.235067942219
1.26,1.0692462109100842,5895.130371911146
1.264,1.1692740722714932,5897.23405649627
1.268,1.2538245533023196,5903.505685062682
1.272,1.3168428943125186,5904.061831720277
1.276,1.3578059404832656,5912.680234383218
1.28,1.3804535955429138,5906.989651254112
1.284,1.3904687283120445,5902.542452164205
1.288,1.3930191936882474,5902.728395984455
1.292,1.391147646813836,5909.357302675346
1.296,1.3855518320098703,5895.255438655743
1.3,1.37555230543211,5901.717153724643
1.304,1.360507965327696,5900.793595703804
1.308,1.3409096153146292,5904.297807982441
1.312,1.3187211262201057,5899.959489117681
1.316,1.2969604728995534,5903.0576785893445
1.32,1.2788379089872683,5906.781958381961
1.324,1.2668921577069252,5894.317103250048
1.328,1.262434135769529,5903.586506126923
1.332,1.265317284794751,5906.546139536388
1.336,1.2738759812624219,5906.580778252978
1.34,1.285003712159185,5900.861472450035
1.344,1.294576462282034,5911.540835034077
1.348,1.2983556323398966,5903.833638725162
1.352,1.29312254583153,5892.910122409029
1.356,1.2775457284265452,5896.518825994035
1.36,1.252420372936184,5898.246584267855
1.364,1.220248946795729,5901.083187199026
1.368,1.1843932076705967,5905.656239685226
1.372,1.1481670532115573,5904.470662081143
1.376,1.1142405558203987,5899.048091001135
1.38,1.084531728707365,5899.505147519033
1.384,1.0604775576747711,5899.691244264013
1.388,1.0434287971695346,5905.181010728276
1.392,1.034931229201356,5907.892606655957
1.396,1.036698952023306,5896.153944495598
1.4,1.0501736711284244,5903.938958033692
1.404,1.0757902609483492,5894.052120998776
1.408,1.1122841415325957,5899.791864886622
1.412,1.1563424580373947,5896.241851096788
1.416,1.2026720543747265,5907.540063561261
1.42,1.244411206840945,5906.921861445711
1.424,1.2738571976554094,5898.257551503069
1.428,1.2835620042671032,5906.990357230799
1.432,1.267799179686059,5903.484308215874
1.436,1.2241940214232288,5904.210351594812
1.44,1.1550181787267557,5898.798209446342
1.444,1.0675096133929023,5908.77872298425
1.448,0.972828901142025,5901.978811544924
1.452,0.883820927229089,5909.785727860329
1.456,0.8122592316100093,5899.600050183513
1.46,0.7664518059061114,5896.049303089231
1.464,0.749920085464571,5900.8998048185085
1.468,0.7613948322809876,5891.850110108074
1.472,0.795854620436638,5906.536529755805
1.476,0.8460452276532386,5902.041228628965
1.48,0.9039167430879905,5898.037159822609
1.484,0.9616275873429342,5901.465390016372
1.488,1.0121204798030758,5899.586537862002
1.492,1.0495587179611752,5906.4661531948095
1.496,1.0698394342792357,5906.696662972038
1.5,1.0710382870296395,5894.938828218026
1.504,1.053435776078884,5903.95278162764
1.508,1.0190207388855577,5898.860703321238
1.512,0.9708116057785501,5888.037238578744
1.516,0.9124997168253242,5908.1344670752815
1.52,0.8486385593509971,5895.619457112908
1.524,0.7851139405086364,5894.140845041847
1.528,0.7292927869076424,5912.829380929192
1.532,0.6893281074850459,5908.037659088342
1.536,0.6725835328471284,5901.037103967211
1.54,0.6836983401221095,5901.176297919342
1.544,0.7230546791745593,5904.233424967545
1.548,0.7861971043718171,5898.732326974491
1.552,0.8642996546016498,5909.756217522574
1.556,0.9454689437054224,5908.592620443184
1.56,1.016666165298286,5905.631506746348
1.564,1.0660556343574146,5896.662240901283
1.568,1.0853944711051935,5895.931229502311
1.572,1.071832803711835,5904.487710321692
1.576,1.0285074841221076,5905.22631985817
1.58,0.9636601947476345,5912.451496482429
1.584,0.8885280549466461,5904.146280810806
1.588,0.8146931566808118,5905.745264965921
1.592,0.751738560028037,5902.152205344868
1.596,0.7058860785057459,5895.9683123445975
1.6,0.6798697595553607,5907.799702014839
1.604,0.6737836594243509,5902.455655240213
1.608,0.6862313469804204,5898.015869692184
1.612,0.715040915322641,5900.991826211265
1.616,0.7572213578871457,5907.573740239149
1.62,0.8084739308488962,5899.567810386027
1.624,0.8629168970068603,5900.594692021517
1.628,0.9134643601838793,5912.276566634122
1.632,0.9527869156047674,5903.018199690379
1.636,0.974470520710916,5900.649672982996
1.64,0.9740605416917926,5903.819699867716
1.644,0.9498627469564397,5894.377900090108
1.648,0.9033952446952093,5902.871128963684
1.652,0.8393025828565391,5901.276958431921
1.656,0.7645716428831577,5901.728790189783
1.66,0.6871229418538425,5908.849068169663
1.664,0.6141905229103223,5898.685956024023
1.668,0.5511010853784366,5904.124142371121
1.672,0.5009011471495102,5909.791642697271
1.676,0.46481596767081157,5904.771890710823
1.68,0.44309915947122613,5894.30508553218
1.684,0.4357601351928226,5900.643183846888
1.688,0.44289999795814017,5905.434803901617
1.692,0.4646534271782502,5901.755577833047
1.696,0.5008488684569754,5897.950042650983
1.7,0.5505210533184859,5912.489563548649
1.704,0.611448923647962,5911.67198717311
1.708,0.6799497225117616,5898.183403806699
1.712,0.7511206057555921,5899.300218061983
1.716,0.8195004031202145,5901.406118890705
1.72,0.8798577856331012,5903.0853342654445
1.724,0.9277589061615145,5900.572029935604
1.728,0.9598055257220435,5894.812540107171
1.732,0.9737291338212564,5906.9407317216255
1.736,0.9685766442512893,5902.666548180474
1.74,0.9450071094479269,5899.779411523612
1.744,0.9054924371258253,5899.243544004051
1.748,0.8541760240460815,5903.350376849147
1.752,0.7962679311885088,5896.79921942551
1.756,0.737058592965163,5906.211898019212
1.76,0.680866282329769,5897.923120443055
1.764,0.6303748238108327,5911.186296821945
1.768,0.5866873163857745,5901.551384811204
1.772,0.5500427832846418,5897.424683274873
1.776,0.5208030085028915,5906.587212501905
1.78,0.5002297733175801,5904.662766778161
1.784,0.4906881465208839,5906.109488723397
1.788,0.49512247414768645,5902.8417720715815
1.792,0.5159222634971475,5901.069403681567
1.796,0.5535462700085592,5901.524949013196
1.8,0.6053849698595277,5904.309192706317
1.804,0.6652919848180057,5909.57391205711
1.808,0.7240668674823268,5904.813282863533
1.812,0.7709583641637032,5906.661167803744
1.816,0.7959764676748201,5907.113532256475
1.82,0.7924883590178904,5898.854802632309
1.824,0.7593541874324427,5905.957861064562
1.828,0.7019014436819487,5911.096777341061
1.832,0.6313580350490152,5899.998323507357
1.836,0.5627688275504619,5899.549881329463
1.84,0.511761523427001,5895.391580417456
1.844,0.4908518737674618,5900.812027583736
1.848,0.5062590409978425,5906.121297559236
1.852,0.5561908702602526,5906.308989105536
1.856,0.6311196239647913,5901.602808928008
