时间(s),电压(V),幅值(高频80K)
0.0,1.2765071703885549,5904.248979108232
0.004,1.251618577888257,5900.414952084239
0.008,1.2196661259454613,5896.599286901756
0.012,1.176695322847776,5902.766733105962
0.016,1.123171902696332,5903.571756036227
0.02,1.0636689432367195,5895.650480417106
0.024,1.0054606917398399,5902.80376304258
0.028,0.9568153214784771,5899.916325132633
0.032,0.9254206450505773,5890.624635467585
0.036,0.917085051061584,5900.399930264148
0.04,0.9348346512936085,5893.674267750649
0.044,0.9785074418803528,5904.70074970955
0.048,1.0447712550719084,5907.514579295576
0.052,1.1274091894228615,5907.556881733767
0.056,1.217896401672737,5893.491054249218
0.06,1.3064564161275056,5910.057479835915
0.064,1.3836051144877404,5898.265206436542
0.068,1.4418002766621676,5902.963917378753
0.072,1.4766546288347564,5901.7941376514245
0.076,1.4874407988430254,5906.147025330908
0.08,1.477040125479309,5900.227787041295
0.084,1.4516044934698362,5899.404575812381
0.088,1.419883385079309,5904.016567953799
0.092,1.391858879953368,5902.226085072645
0.096,1.376592941229083,5891.393604723137
0.1,1.3799118416618046,5905.138929601951
0.104,1.402933387222622,5907.672398696419
0.108,1.4419868470089787,5885.935078474095
0.112,1.4896381330124469,5898.417292104278
0.116,1.53616273744089,5904.990391164578
0.12,1.5711401209312863,5906.694524192878
0.124,1.5852711330097138,5900.935620896121
0.128,1.572410338518045,5906.364615987312
0.132,1.5312811023188009,5905.757403784223
0.136,1.4660864806849132,5908.883744724166
0.14,1.385663210662924,5897.799634755118
0.144,1.3016100529795893,5896.469937821658
0.148,1.2262010674157982,5895.503064786623
0.152,1.1705742821959815,5897.949196820025
0.156,1.1431797028700401,5897.474535815726
0.16,1.1483903713501131,5904.967292209385
0.164,1.1854774835085058,5902.607720829956
0.168,1.2483579616246518,5900.648922427865
0.172,1.3264199476595995,5898.043367010449
0.176,1.4064201213465068,5901.741680313509
0.18,1.4750763396494613,5909.5115675860725
0.184,1.5216967088114925,5896.183904917146
0.188,1.5401373365343958,5902.437135457766
0.192,1.5296022847092696,5899.784234593445
0.196,1.494186159242814,5898.4257367372775
0.2,1.4414386593955912,5904.536837142334
0.204,1.3804529601901763,5906.369927128529
0.208,1.3200009598623903,5890.085833149956
0.212,1.2671173989272977,5898.645665679658
0.216,1.226365672134428,5905.144436865262
0.22,1.199855031169593,5902.334747110119
0.224,1.1878941062596668,5893.881009836334
0.228,1.189918772712537,5897.512830722586
0.232,1.2051489743373796,5893.775179379369
0.236,1.232568900822995,5897.124913862918
0.24,1.2702973880588757,5907.492442376061
0.244,1.3148309191891052,5902.775546672673
0.248,1.3606777625335331,5893.640843192383
0.252,1.400686069632652,5896.077326097956
0.256,1.4271680293016222,5895.745934471151
0.26,1.433708230425376,5898.119320061647
0.264,1.417168520037499,5900.127837958415
0.268,1.3790462034321036,5902.29112491302
0.272,1.3254273897949702,5893.581124439145
0.276,1.2653920027681953,5891.694015331002
0.28,1.2084569210575213,5899.339692462569
0.284,1.1620143510898893,5898.685459943297
0.288,1.1296110115275648,5897.1832238104535
0.292,1.1105279211132524,5905.5029812331495
0.296,1.1007120593832351,5896.897008503409
0.3,1.0947564763661528,5906.139276495591
0.304,1.0882981325767318,5898.4809771670825
0.308,1.0799922673383788,5906.622020020239
0.312,1.0723279658734117,5898.671692108784
0.316,1.0709978051610316,5901.107605641362
0.32,1.0830608313727819,5901.022637726315
0.324,1.1144870315534785,5900.366569175182
0.328,1.1678277749698862,5900.089127399789
0.332,1.2407615108903882,5904.801106723071
0.336,1.3260396358234223,5907.943384486773
0.34,1.4128811250219255,5900.412850643615
0.344,1.4893486741239992,5903.200031849761
0.348,1.5449466757737065,5903.160863563444
0.352,1.5726800935319565,5901.314859701714
0.356,1.5700675021368768,5891.493848155021
0.36,1.5390441088571516,5896.582956902099
0.364,1.4850768518399464,5906.740423602
0.368,1.4159080730218867,5899.146181119926
0.372,1.3402553146144345,5903.1855550693535
0.376,1.266719187165246,5900.164674716886
0.38,1.2030248968034671,5906.4556816088125
0.384,1.155483639051722,5899.111423156475
0.388,1.128411539964963,5899.836998012925
0.392,1.1233973613887758,5900.925229909272
0.396,1.1386671599416447,5901.014242237864
0.4,1.1690133880719071,5901.063656042062
0.404,1.2066121463730457,5893.345558356899
0.408,1.2426544892077716,5902.337884058501
0.412,1.2693513000544947,5908.218669033531
0.416,1.2817432936645732,5901.442304305831
0.42,1.2788816926964233,5898.605384950461
0.424,1.2641991482743415,5904.6140853431325
0.428,1.2450746250503595,5905.08916644087
0.432,1.23161157164505,5905.530331780419
0.436,1.2345802848157628,5896.276578025862
0.44,1.2625917649674343,5896.543299594596
0.444,1.3190520750395944,5897.874556040569
0.448,1.4000029173229582,5901.322970634518
0.452,1.493984481277454,5892.35274242686
0.456,1.5843403284930269,5897.772621137542
0.46,1.6533628332758168,5902.506117868002
0.464,1.6869599887032618,5895.8148542958825
0.468,1.6783723800069485,5906.73252139937
0.472,1.629831413122679,5902.621941126239
0.476,1.5517731341411438,5893.490965801806
0.48,1.4600270900830743,5893.102941217824
0.484,1.371906635067016,5910.513706737165
0.488,1.302183788993967,5901.731059828183
0.492,1.259778173281086,5903.100326601939
0.496,1.245887810015796,5893.555115806013
0.5,1.2541305248816494,5903.54869900101
0.504,1.2727896521793483,5892.56098358623
0.508,1.2885691219932245,5901.874920784713
0.512,1.2907621006704983,5896.523881267
0.516,1.2746200483192114,5898.741449696295
0.52,1.2429111859136415,5898.937157336984
0.524,1.205140712261089,5896.347422190634
0.528,1.174597392162111,5898.951757790541
0.532,1.164055234712624,5900.907068622961
0.536,1.1813966163721716,5901.468696676748
0.54,1.2265725749719951,5903.005488056638
0.544,1.2910802510126105,5903.416055753831
0.548,1.3604095993469767,5898.590098599358
0.552,1.4187991529268547,5893.415640366075
0.556,1.4545577092128414,5898.259466878998
0.56,1.4637780263411801,5899.372664366453
0.5640000000000001,1.4509343820054115,5895.607356106537
0.5680000000000001,1.426355502207142,5900.201316662151
0.5720000000000001,1.4019815841709748,5902.078307176251
0.5760000000000001,1.3873401889995456,5900.013419951836
0.58,1.3871962210183097,5902.750022090075
0.584,1.4013222626139525,5892.7008917583535
0.588,1.42590991971155,5902.604185057051
0.592,1.455675709993796,5893.539788585277
0.596,1.4857383010375231,5902.0505561104565
0.6,1.5126667455863123,5902.687668817237
0.604,1.5345121444906016,5896.332566986342
0.608,1.5500629751956276,5903.067793013933
0.612,1.557954024030863,5904.080073806799
0.616,1.5563646597834293,5892.20252402571
0.62,1.5436432305277077,5897.277245073576
0.624,1.5195079457874126,5896.8134888031545
0.628,1.4860284248922504,5895.318853518626
0.632,1.4476936117256547,5897.887422136901
0.636,1.4103723909637478,5905.280897073966
0.64,1.3795063291369705,5900.799912614652
0.644,1.3581994148369418,5903.252373849405
0.648,1.3459481112043705,5894.03568687651
0.652,1.338597187518109,5898.608613004079
0.656,1.3297271722901742,5903.084025518295
0.66,1.313166257281968,5896.486674323043
0.664,1.2858140622319678,5897.793985644216
0.668,1.2496434792711624,5900.959924196028
0.672,1.2118618244764483,5897.373435514493
0.676,1.182904687488186,5901.10180338428
0.68,1.1729237765331246,5900.151489810821
0.684,1.1881196230225084,5907.2995040465785
0.6880000000000001,1.2282718671278428,5889.189839309341
0.6920000000000001,1.2862523734787277,5892.391930627395
0.6960000000000001,1.349590230681266,5897.806533451355
0.7000000000000001,1.4035959860925402,5895.249572142046
0.704,1.4351789664378465,5897.733467718436
0.708,1.4363046966317574,5905.671566787045
0.712,1.4061310779619691,5895.20775318373
0.716,1.351229864415386,5896.035185477359
0.72,1.2838257581016586,5906.541096811767
0.724,1.218569993788544,5906.082147406817
0.728,1.1688278341604992,5898.265865333874
0.732,1.1435399697995483,5902.368491393208
0.736,1.1454037799342094,5904.655676424239
0.74,1.170695740795193,5901.825099908815
0.744,1.2107141268938444,5903.551019466733
0.748,1.254487910266097,5892.455214848078
0.752,1.29201260183945,5904.760754268366
0.756,1.317009083287717,5893.058742671727
0.76,1.328292765813219,5903.281937703212
0.764,1.3293357628884628,5896.69479158468
0.768,1.3263178649062368,5891.689611776289
0.772,1.3255475768257372,5901.455642011907
0.776,1.3312676134582906,5900.54978892617
0.78,1.3445036321267483,5896.8085161322815
0.784,1.3630709306164897,5898.46153192622
0.788,1.3824617734734497,5908.613431501439
0.792,1.3971992392735462,5903.806124549433
0.796,1.402274123963258,5893.646731478925
0.8,1.394404979724376,5901.613680270543
0.804,1.3730308158288729,5907.062105551815
0.808,1.3410077326355596,5905.074616432768
0.812,1.304812293882008,5901.354188724503
0.8160000000000001,1.2738600499493151,5894.122968889517
0.8200000000000001,1.2586835671456136,5900.672198281975
0.8240000000000001,1.2682099581620265,5910.859635337664
0.8280000000000001,1.3069073170073813,5894.703776882301
0.8320000000000001,1.3728083170241372,5898.880903092486
0.836,1.4572300641896279,5890.008138569092
0.84,1.5464472969508443,5900.820214154306
0.844,1.6248857974062725,5900.736980741934
0.848,1.678885628836394,5894.0570011877535
0.852,1.6999082439000626,5897.974467864411
0.856,1.6862620991722523,5903.363249476419
0.86,1.6429318689508636,5902.218832715224
0.864,1.579716634440848,5901.260911263821
0.868,1.5084047992479452,5899.655768051791
0.872,1.4400054226480818,5904.817433219395
0.876,1.3829366369995812,5900.296350167778
0.88,1.342473819488685,5903.462476473997
0.884,1.3210406980024325,5902.860161712068
0.888,1.3186175676282736,5903.3471319952505
0.892,1.3328204512869977,5898.834159228691
0.896,1.3587903410290092,5901.173222787743
0.9,1.389445612172014,5898.455090555376
0.904,1.416567979357856,5895.285739517174
0.908,1.4326628424035293,5900.226477289324
0.912,1.432942321093497,5897.301924361464
0.916,1.4165728983670105,5894.966418784332
0.92,1.3866705581786452,5893.4494926153375
0.924,1.3491356215407504,5898.436951692291
0.928,1.310842728782192,5901.597575794506
0.932,1.2777338187458713,5904.197816593299
0.936,1.2531950584964324,5903.688652780453
0.94,1.2370399468587028,5907.378826737131
0.944,1.225488993002347,5909.21115865094
0.948,1.2124426720945018,5899.776110686536
0.952,1.1918903296540886,5902.645355839172
0.956,1.1606717535100075,5901.649474887357
0.96,1.1204427242777002,5890.538528695073
0.964,1.0778848048339857,5901.187342335913
0.968,1.042890672303886,5903.423205663728
0.972,1.0253354669878023,5897.726810950196
0.976,1.0317048173807783,5899.022956040339
0.98,1.0629528278346452,5891.727817110526
0.984,1.114418184873999,5902.517884079425
0.988,1.1776859377618596,5901.681141546413
0.992,1.2434411716080442,5900.016750176088
0.996,1.3040569658625458,5902.201384166376
1.0,1.3549628610969773,5901.257151188319
1.004,1.3944854641851911,5904.410136960189
1.008,1.4225506847623317,5902.466918919208
1.012,1.4391576695968376,5902.0455051981935
1.016,1.4435992745100164,5911.403486065137
1.02,1.4348844756100876,5898.66942208504
1.024,1.4130297245302144,5901.0391992700615
1.028,1.380388323946489,5902.257787037341
1.032,1.3422568033409423,5890.788450593195
1.036,1.3064141228215418,5901.263371227465
1.04,1.2816249355247302,5899.653636878436
1.044,1.2753780592309087,5903.82247837559
1.048,1.2913961747034524,5897.249022135442
1.052,1.3277240363694895,5904.353060014913
1.056,1.3762300894122028,5902.759940292911
1.06,1.424018883717044,5897.673630085724
1.064,1.4566438646034658,5895.648325067522
1.068,1.4622902832877485,5903.522838188212
1.072,1.4355367863045507,5893.523404754276
1.076,1.3792823186030154,5902.765334038907
1.08,1.3041006270615783,5902.821030336055
1.084,1.2253357053983929,5898.832879334204
1.088,1.1590739571851125,5894.315735265425
1.092,1.1183143853373887,5901.005756024857
1.096,1.1102703184501288,5897.039447053587
1.1,1.1351511789401167,5905.95370357849
1.104,1.1863450985365815,5905.424825531624
1.108,1.2517799914381789,5899.491068554798
1.112,1.3162494540553675,5904.091375233288
1.116,1.3644159110274185,5900.208100863067
1.12,1.3839756641714014,5901.723969464093
1.124,1.368265339179024,5894.351445274849
1.128,1.3176384126991372,5897.989539185654
1.132,1.2392967284201426,5899.955885403179
1.136,1.1457330161877388,5911.006497052537
1.14,1.05225553366274,5891.023996566355
1.144,0.9741405881528384,5895.833699234335
1.148,0.9239178727281495,5908.43158935199
1.152,0.9092293515665493,5897.204307421496
1.156,0.9315953596858735,5903.0431574807335
1.16,0.9862782995462265,5900.038406837399
1.164,1.0632757966105941,5896.576136219056
1.168,1.1492611503829049,5905.131321610126
1.172,1.2300519106213872,5907.739587116226
1.176,1.2930952573698828,5907.397255365103
1.18,1.3295688507976584,5891.013088147328
1.184,1.3358398649278918,5892.799695964109
1.188,1.3140800504695238,5904.64623718901
1.192,1.2718771075770114,5904.259307574267
1.196,1.2208068421966083,5901.882269778964
1.2,1.1741413313557905,5897.370574524999
1.204,1.1441120862503935,5909.273488471458
1.208,1.1393153494645587,5897.424607400159
1.212,1.1628561282740306,5901.472708470591
1.216,1.2116926907020664,5909.286969261158
1.22,1.2773915853905846,5899.978980980606
1.224,1.3481484654586613,5894.563156378101
1.228,1.411553123791621,5896.385148884711
1.232,1.4573234671264454,5899.31643884404
1.236,1.4792472233842417,5905.17539754956
1.24,1.4758990179232458,5902.115246282651
1.244,1.4501816703107338,5906.510983672695
1.248,1.4080954526309097,5893.731704127528
1.252,1.3572243007594076,5900.283211551294
1.256,1.3053069054566735,5889.936914684565
1.26,1.2590770172938097,5893.4718512204645
1.264,1.2234184946120816,5905.505661635773
1.268,1.2008257285286725,5904.602909305765
1.272,1.191187129074536,5895.838221456867
1.276,1.1919774389112543,5900.291865267414
1.28,1.1989374005304958,5890.896413034035
1.284,1.2071248371943548,5901.339596798749
1.288,1.211947192160317,5902.381941634943
1.292,1.2097487242062188,5892.513974474074
1.296,1.1978632505333684,5897.150132174224
1.3,1.174484153304894,5898.275851786882
1.304,1.138843749475396,5904.072752639765
1.308,1.0918745374991068,5901.225303542155
1.312,1.0369705712167439,5904.31848983487
1.316,0.980169660311611,5894.932397890028
1.32,0.9293579916842227,5905.502675332176
1.324,0.8927146880426746,5897.272434236011
1.328,0.8770170764934223,5904.498430983028
1.332,0.8863821301466777,5894.942633202814
1.336,0.9216955254606415,5910.637435195511
1.34,0.9806206888373249,5901.20905152352
1.344,1.0578969370349687,5897.069130361972
1.348,1.1457593484403605,5904.22426863614
1.352,1.234584032752118,5906.599579132658
1.356,1.3139528766474138,5906.886963996408
1.36,1.3741600661658029,5910.296319677019
1.364,1.4079377882893434,5906.248578190355
1.368,1.4120132008950503,5897.635326829536
1.372,1.388045745774107,5903.669795712683
1.376,1.3425588242189384,5903.120925155163
1.38,1.2857369358165789,5899.314829080179
1.384,1.2293419412540965,5899.241821040684
1.388,1.184255033048552,5902.648313763645
1.392,1.158145180333679,5898.095788583985
1.396,1.1536952386365293,5910.081277082087
1.4,1.1678353955766159,5896.379717915052
1.404,1.1923535038456883,5901.724024042223
1.408,1.2158974650516654,5898.331398305652
1.412,1.2269199076933317,5894.489645658967
1.416,1.2167898889988327,5899.777032137562
1.42,1.1821954010859514,5902.719706769515
1.424,1.1261289021392384,5892.376032959358
1.428,1.0572099136303539,5897.641353249147
1.432,0.9876676365224115,5905.76479726784
1.436,0.9306426260104583,5909.059196878092
1.44,0.8974164861227281,5900.679354743467
1.444,0.8949597303513076,5898.841721168781
1.448,0.924133002008442,5910.801050156975
1.452,0.9790152642355973,5898.93354848769
1.456,1.0478522859531014,5895.755542265147
1.46,1.1157398992041676,5895.603766225882
1.464,1.1684545023098594,5897.1938557517005
1.468,1.196224553649593,5899.706550760632
1.472,1.1961264098384,5912.044455752711
1.476,1.172295387002371,5905.461939402569
1.48,1.133984918625145,5904.342907232815
1.484,1.0922545082968256,5904.735398904466
1.488,1.0564734999775864,5901.553423109
1.492,1.0318489729827574,5906.156117229503
1.496,1.0187798815483358,5899.952345445567
1.5,1.0140476700090826,5912.763534185593
1.504,1.0130522172219143,5900.32223615755
1.508,1.0119787839373044,5900.202363236586
1.512,1.0090419286086227,5908.9152505489565
1.516,1.0045054506337712,5894.901633070287
1.52,0.9997174001897081,5894.539422286666
1.524,0.9957846258035068,5906.980353996651
1.528,0.992660693455981,5895.440106574529
1.532,0.9892055424553574,5906.568203300192
1.536,0.9841670634549052,5908.697314802167
1.54,0.9773986830902123,5897.395260064734
1.544,0.9705095495555982,5902.547507570647
1.548,0.966589765123325,5910.601141598045
1.552,0.9691569282459751,5906.315430193203
1.556,0.9806961297854311,5903.204998785102
1.56,1.0012247939778873,5907.258270173002
1.564,1.0273438199347413,5896.554159658787
1.568,1.0521872301387993,5892.45305607334
1.572,1.0664965984726964,5905.9615681724645
1.576,1.0607383743730285,5905.187296906404
1.58,1.0278087837104508,5893.680457430535
1.584,0.965552342501483,5906.54646747841
1.588,0.8782047023048976,5910.484342744631
1.592,0.7760712152619483,5911.42295623139
1.596,0.6732960895320069,5912.949603319245
1.6,0.5843174967571303,5902.947658021849
1.604,0.520212990844934,5904.761389571636
1.608,0.48626749380100065,5905.065345159252
1.612,0.48161223797810515,5910.937578247948
1.616,0.5009043186858234,5899.848190306825
1.62,0.5371699260394197,5909.114083422847
1.624,0.5844900009643692,5905.558776453889
1.628,0.6393542662054735,5904.894172506043
1.632,0.7002285101702179,5904.885975102348
1.636,0.7658421334110296,5907.107048134058
1.64,0.8333350400378059,5905.291708400776
1.644,0.8973388945118356,5909.129272547958
1.648,0.9504784872322161,5900.776539700031
1.652,0.985100326028239,5903.824371803206
1.656,0.9955549542617866,5910.944599473275
1.66,0.9801589191664101,5914.179335076429
1.664,0.9420595853765308,5893.61088436936
1.668,0.8886369490474788,5909.222952538601
1.672,0.829688942340862,5902.371544275337
1.676,0.7751337442099397,5905.991485228682
1.68,0.7330443382014559,5908.790330431458
1.684,0.7085425899825143,5896.908825906864
1.688,0.7036506183106039,5897.674288748094
1.692,0.7178281569401073,5907.902650107052
1.696,0.7487374907034827,5904.769971525513
1.7,0.7928026229058913,5905.253279208383
1.704,0.8453377212532884,5902.30136517484
1.708,0.9003665516459658,5905.149511763173
1.712,0.9505878309801064,5905.365525333783
1.716,0.9879950585658731,5906.935090281292
1.72,1.0053260943134759,5904.677085997415
1.724,0.9980177880468963,5908.96823019518
1.728,0.965990548339072,5900.8154783890095
1.732,0.9145089231913776,5907.915222689723
1.736,0.8535257304508327,5907.259378064807
1.74,0.79535369664673,5900.854939752207
1.744,0.7512373138320154,5898.526193983124
1.748,0.7280851476732603,5901.858882222211
1.752,0.7267149746859768,5900.389844066416
1.756,0.742295187062645,5911.06852574917
1.76,0.766644487459705,5908.417404340846
1.764,0.7912618319396959,5906.220521762204
1.768,0.8097897178393603,5905.962007606526
1.772,0.819090806032176,5905.209594389003
1.776,0.8189078337517562,5912.800160453062
1.78,0.8107320531444966,5908.009282576268
1.784,0.7966987440636047,5899.362102798839
1.788,0.7789844715637162,5900.976078556396
1.792,0.7596041740226243,5902.865284396471
1.796,0.7402205036571701,5907.341504285966
1.8,0.7217860516021296,5903.230889582104
1.804,0.704204911492987,5899.750140735167
1.808,0.6863121749090513,5902.063338453337
1.812,0.666290039510625,5906.227028632377
1.816,0.642400001557917,5902.343800752097
1.82,0.6137961212471842,5905.0084104648095
1.824,0.5811860606358036,5900.683328642162
1.828,0.547114712094373,5906.016248625277
1.832,0.5156570023233629,5897.531793665699
1.836,0.49145923091091503,5896.134944909565
1.84,0.47838383801716855,5904.450797382731
1.844,0.4782548123900617,5911.261930415042
1.848,0.49015534439836944,5906.173017567773
1.852,0.5104862075239972,5901.688541697228
1.856,0.5337737663643921,5907.904939975716
