时间(s),电压(V),幅值(高频80K)
0.0,1.4728868694131725,5896.321314947836
0.004,1.3749962077460343,5900.588826079948
0.008,1.2848284798044782,5899.08059246718
0.012,1.20955427942134,5897.412585426885
0.016,1.155680375428111,5899.167563127586
0.02,1.127907666643872,5901.464002104701
0.024,1.127592148530416,5902.278195930772
0.028,1.1515563480299573,5896.626692266808
0.032,1.192035324071705,5891.661568873625
0.036,1.2380884050733625,5899.804802928328
0.04,1.2781934311100116,5898.561021952691
0.044,1.3032975305093708,5898.407859998437
0.048,1.3093698764108972,5894.068634221848
0.052,1.298487447753416,5894.426552375029
0.056,1.2779026779008218,5901.18729140549
0.06,1.2574125132041358,5897.540806778437
0.064,1.2461140681522171,5896.759374337814
0.068,1.2497164098436253,5895.135849711548
0.072,1.2690816709806594,5894.1815893424255
0.076,1.3001369838204864,5900.8216192540085
0.08,1.3350419962999878,5899.283702149055
0.084,1.3643747275987463,5898.372390511687
0.088,1.379848772258886,5892.707654606241
0.092,1.376738431844432,5900.49201498503
0.096,1.3551399994378892,5898.134318116389
0.1,1.3196767861614338,5901.447350941102
0.104,1.2779637491574571,5903.620108613795
0.108,1.238531588314534,5894.10865132793
0.112,1.208853899744015,5906.054728412528
0.116,1.193992604966909,5900.5014315639655
0.12,1.1962768417636813,5898.408639192879
0.124,1.216005622944524,5903.883815852858
0.128,1.252464623651965,5901.334208296887
0.132,1.3043152141249132,5896.0341927625495
0.136,1.3690740380275364,5900.689526615999
0.14,1.4423528346873307,5896.441700588664
0.144,1.5178058894086341,5898.083102912497
0.148,1.58808779377001,5903.147110132075
0.152,1.6462888304609127,5903.350058766345
0.156,1.687164528283851,5901.029152127682
0.16,1.7079743037192212,5903.021458979442
0.164,1.709062005149103,5893.608304806317
0.168,1.694036498754938,5906.115127039735
0.172,1.6691129592333476,5897.638563125676
0.176,1.6415042722776259,5901.427880917036
0.18,1.6174449057614608,5906.963717418364
0.184,1.6006975924328153,5908.131878144647
0.188,1.5920016332936346,5903.748111031696
0.192,1.5893748101993181,5902.859780830365
0.196,1.5889791890883218,5896.914771339732
0.2,1.586367850851246,5899.362226928383
0.204,1.5779600395217528,5901.558647689081
0.208,1.5623794764923564,5891.762331186363
0.212,1.5411310685100126,5904.781265752426
0.216,1.5183154217725168,5894.419198003655
0.22,1.499550634725096,5900.537755633202
0.224,1.4905486022315693,5898.863872348008
0.228,1.49572129561526,5898.46074591904
0.232,1.517031278344817,5914.12894403349
0.236,1.5532557205037647,5899.492382816329
0.24,1.599803298726281,5896.782402983062
0.244,1.6491360615553734,5899.042234319761
0.248,1.6918168257280564,5896.823108590156
0.252,1.718222451362216,5895.815835739122
0.256,1.7208430478638248,5907.704086411959
0.26,1.6967538346567261,5901.576668811961
0.264,1.6494830249951593,5894.896748123668
0.268,1.5893754562479026,5898.559650503842
0.272,1.5318265527386405,5895.51556258394
0.276,1.4934331969404782,5901.426605849809
0.28,1.487010775222575,5897.062128325201
0.284,1.5171638999039132,5904.767469141947
0.288,1.5781773057034643,5906.72420999565
0.292,1.6552243858683575,5902.898799173766
0.296,1.7286131261976163,5903.877535817462
0.3,1.779639871176126,5897.127308564041
0.304,1.796095519277817,5896.576364003181
0.308,1.7756517044307882,5895.349765809232
0.312,1.726054950392686,5903.678602106429
0.316,1.6620923447934588,5890.21295068293
0.32,1.6004435178774203,5900.73681825819
0.324,1.5543165655146998,5901.544640704513
0.328,1.5297010045081743,5908.255132325216
0.332,1.5242887778949552,5903.7464614203245
0.336,1.5292056189008305,5904.544503183183
0.34,1.5329035518179732,5900.355544614725
0.344,1.5257772624197232,5901.888949837553
0.348,1.5035947895220658,5896.077652843374
0.352,1.4683349660795737,5905.595206382044
0.356,1.4264412176658587,5899.456348177724
0.36,1.3857942455207621,5908.681181820399
0.364,1.3529710374855894,5890.313337477492
0.368,1.3317282752470723,5898.790417532234
0.372,1.3228462055625707,5907.3088722955
0.376,1.3249453063161438,5902.579363112272
0.38,1.3356938269621002,5903.399960985028
0.384,1.3528767399866637,5903.174459729909
0.388,1.3749626340240015,5891.7517980731245
0.392,1.4009892200488632,5906.938660902593
0.396,1.4298425265474297,5897.878428861221
0.4,1.4593590717985463,5898.646603852704
0.404,1.4859250238423467,5902.510338732724
0.408,1.5050842221579275,5896.8043474924725
0.412,1.5130726007501023,5902.068606549082
0.416,1.5085416802388043,5895.289939401284
0.42,1.4935148080952572,5899.764796061595
0.424,1.4730371458468146,5898.476160846272
0.428,1.4537354276824892,5902.491786079261
0.432,1.4420195596040895,5896.385941490899
0.436,1.4426094885135288,5897.488250781734
0.44,1.4576625003820292,5903.57557941473
0.444,1.4864254192650954,5898.984745245063
0.448,1.5252355835408389,5904.230284645677
0.452,1.5677676714469877,5899.279085054596
0.456,1.6055251672785356,5896.908309632447
0.46,1.6286463885478113,5899.368848914361
0.464,1.627164309515015,5897.821785990594
0.468,1.5928730073395385,5889.976662447743
0.472,1.521706094848575,5892.736038436215
0.476,1.4159899346275413,5893.83735760293
0.48,1.2855228182832916,5897.622999390309
0.484,1.146656634377973,5901.515657605051
0.488,1.0193573427411387,5895.335702176368
0.492,0.9230206605447185,5896.010692366419
0.496,0.8722004373312424,5894.2191008549125
0.5,0.8733863496937764,5897.437942596453
0.504,0.9236967968226714,5897.323750055947
0.508,1.0118782669363715,5906.457785214329
0.512,1.121326205266173,5902.265147592351
0.516,1.2341277454932427,5906.07169278651
0.52,1.3347862079290589,5898.432483476262
0.524,1.4126069568841557,5905.824677014163
0.528,1.462434247194067,5892.421629528524
0.532,1.4840311103190453,5897.53260168414
0.536,1.4807228697713202,5903.72231996092
0.54,1.4579964408261354,5900.0293885284445
0.544,1.4224807145943035,5904.985580314462
0.548,1.3812378963028322,5898.794875917706
0.552,1.3410225109690113,5895.886327461459
0.556,1.3073860018719614,5904.19234912741
0.56,1.2839065379482784,5893.8106013837005
0.5640000000000001,1.2718886038205877,5898.708969573512
0.5680000000000001,1.2705370273000969,5906.730549567068
0.5720000000000001,1.2772947066508278,5896.570233933915
0.5760000000000001,1.288115914118445,5907.480976888976
0.58,1.2978271502566419,5896.129946221387
0.584,1.3009673896482907,5897.44494653526
0.588,1.2932854321044056,5900.358341285204
0.592,1.273529062235455,5901.0599873705305
0.596,1.244717909548348,5902.323785945685
0.6,1.2140865346428744,5907.088911456985
0.604,1.1913541504963425,5896.126748458347
0.608,1.1857174860674158,5889.929605285298
0.612,1.2026428965908162,5899.637535889328
0.616,1.2418098276688885,5907.392401868342
0.62,1.297186424535662,5910.289917029253
0.624,1.3592218303199872,5899.207461486707
0.628,1.4180233564620996,5903.788342151654
0.632,1.465958734886262,5901.726531953558
0.636,1.4987439748600355,5894.384251846869
0.64,1.5152002726738831,5898.812747944603
0.644,1.5165527815804525,5897.881646183709
0.648,1.5059604587846822,5907.626208161832
0.652,1.488279264451198,5900.515723463146
0.656,1.4695711389203845,5901.133330443709
0.66,1.4559649873600193,5894.339805278365
0.664,1.4520349146916822,5894.170963640977
0.668,1.45941019893498,5887.158784968173
0.672,1.4763515699937957,5907.895748068875
0.676,1.498457840335568,5906.483226122145
0.68,1.5200496382143212,5898.605727117199
0.684,1.535636165469253,5902.20179914318
0.6880000000000001,1.5411283963780715,5907.696411460192
0.6920000000000001,1.5347094420685399,5906.136971717803
0.6960000000000001,1.517313971529821,5902.62865188126
0.7000000000000001,1.4925792958484652,5902.120602640992
0.704,1.4660896665713767,5903.2170918647225
0.708,1.4439101616268348,5895.6987312987785
0.712,1.430758061677761,5902.239739628702
0.716,1.4284109949558557,5901.989249102372
0.72,1.434903786318205,5896.9212727169925
0.724,1.4448045251649313,5899.628825807171
0.728,1.4505831262670932,5901.782886088157
0.732,1.4448333198896242,5894.516761942427
0.736,1.4227794409050731,5901.013663415808
0.74,1.3841980302639334,5896.821234455868
0.744,1.3339659542217255,5901.868358394886
0.748,1.2809911820030606,5907.444920147417
0.752,1.2359093788215747,5889.561375787767
0.756,1.2082802774520305,5899.59909979946
0.76,1.2040573530922687,5897.808343163126
0.764,1.2239605825246145,5895.020893269868
0.768,1.263153062647276,5896.57463845738
0.772,1.3123228322989595,5899.307608033307
0.776,1.3599055692973405,5894.335991913219
0.78,1.394840546609778,5909.427121562517
0.784,1.4090639740214186,5901.468251115436
0.788,1.399013137199608,5900.424762590921
0.792,1.365790590031721,5907.379944788771
0.796,1.31422095454024,5895.538472779963
0.8,1.2515008564946846,5900.856836526906
0.804,1.1861354412269451,5893.199166343372
0.808,1.1273407373747273,5898.231190177124
0.812,1.0844845074463196,5897.668692857708
0.8160000000000001,1.0659628247857036,5906.129190489193
0.8200000000000001,1.07734721271033,5893.983573457866
0.8240000000000001,1.1193833943149325,5898.924124967968
0.8280000000000001,1.1869072739632651,5901.614915174654
0.8320000000000001,1.2695381656332008,5896.679937076691
0.836,1.354151945472206,5896.099097922249
0.84,1.4281715064724243,5899.882123671612
0.844,1.482343706528687,5898.088731160178
0.848,1.512141568476552,5901.012647431471
0.852,1.517738749582214,5912.546610321416
0.856,1.502978672806914,5906.337341226362
0.86,1.4737957028652002,5895.273301224357
0.864,1.436512915478705,5890.268414009316
0.868,1.3964966028078731,5899.652013571895
0.872,1.3575342472934302,5902.751151707675
0.876,1.3219178138047074,5902.059088732974
0.88,1.2908887838617074,5901.031596599277
0.884,1.2651041363191617,5898.777966578838
0.888,1.2449823630043788,5892.877298459447
0.892,1.2309434306021148,5903.94129533477
0.896,1.2235810646144332,5903.088520342819
0.9,1.2237408973136437,5900.595320928347
0.904,1.2324231703499477,5898.139722859162
0.908,1.2504746221678804,5900.706356049279
0.912,1.2781848940760896,5900.865663104822
0.916,1.3150358035393,5900.373027702644
0.92,1.3597771960906375,5889.468198568952
0.924,1.4106995258617525,5898.845295145899
0.928,1.4657348657214275,5902.587818705283
0.932,1.5221613663543543,5902.459485609248
0.936,1.5761225253666709,5898.995548728306
0.94,1.622460805379698,5894.959057395935
0.944,1.6552254704902558,5895.614757501185
0.948,1.6688251439683324,5899.092434318073
0.952,1.6595037568239082,5899.741267966078
0.956,1.6267164938489276,5895.984586674575
0.96,1.573923139662066,5905.137698546143
0.964,1.508276148559465,5897.028945987696
0.968,1.4388977790070772,5897.418399798025
0.972,1.3740874854489764,5896.490689011106
0.976,1.318587926632669,5901.870793642218
0.98,1.2723131733309112,5903.963962831623
0.984,1.23131087529341,5904.483393604796
0.988,1.190513521282865,5905.674895788408
0.992,1.1468508448777048,5901.302633932368
0.996,1.1012054324122713,5900.558688209908
1.0,1.0584656810311293,5900.562662531809
1.004,1.0259036950859106,5898.265517286322
1.008,1.0106734270491398,5894.657205806431
1.012,1.0173463811777141,5898.534721151493
1.016,1.0463058197252404,5911.132870993576
1.02,1.0935226999592742,5901.7269963412
1.024,1.1516922330327113,5900.500422456444
1.028,1.212158942125174,5897.28128714505
1.032,1.2668611901446205,5901.511012107681
1.036,1.3097417992857485,5901.899108314863
1.04,1.3374162042695201,5900.920539024487
1.044,1.349108241447706,5895.399409038415
1.048,1.3459771540818517,5895.93540095596
1.052,1.3301075638788054,5898.21276240162
1.056,1.3036032427896604,5901.207189841382
1.06,1.2682204109054207,5908.997060706143
1.064,1.2256750354428594,5903.782756311561
1.068,1.1783362271667384,5900.000981758471
1.072,1.1297909711418364,5894.484596778728
1.076,1.084852538004719,5895.10289923404
1.08,1.04884594046139,5897.3619870052
1.084,1.0262661030366027,5896.0896971371485
1.088,1.0191518529633936,5911.7298845905125
1.092,1.0257905144581378,5894.291903323266
1.096,1.040495529044566,5895.643217466426
1.1,1.0548984960423817,5895.429346540512
1.104,1.0605018435495146,5905.364350939459
1.108,1.0515769365418939,5897.335661125248
1.112,1.0272697506225716,5902.358710837494
1.116,0.9920896977304711,5903.338665847688
1.12,0.95463725844241,5910.53893640968
1.124,0.9251084390024966,5895.125864753476
1.128,0.9124164765543213,5903.609156277726
1.132,0.9216569788774952,5900.197805240506
1.136,0.952439692002176,5904.998343714753
1.14,0.9985321269775482,5902.715885800619
1.144,1.0491495336336487,5900.02852587239
1.148,1.0918249048470585,5901.418777103337
1.152,1.1161184429739346,5900.510664107428
1.156,1.116870964888968,5900.30200264703
1.16,1.0957348850365918,5904.6148547170405
1.164,1.0604129195754406,5912.0316891777575
1.168,1.022010723470121,5893.08207665846
1.172,0.9916259232544051,5904.0722815438585
1.176,0.9774185272846556,5906.823201718144
1.18,0.9829698065592762,5896.242084945658
1.184,1.007086709017342,5901.177782920716
1.188,1.044764184675723,5903.452235571314
1.192,1.0889024626015915,5895.3638595672965
1.196,1.132338185906184,5899.482785622451
1.2,1.1696122144641483,5902.21463360682
1.204,1.1978884681523005,5907.544699683489
1.208,1.2167881967196426,5892.044684232323
1.212,1.2274183879268656,5889.897267430008
1.216,1.231182394235251,5899.499859679416
1.22,1.2289494246216675,5897.492780383311
1.224,1.2209376189740937,5909.175898195559
1.228,1.2073314126895054,5901.884792066078
1.232,1.1892760092039099,5908.01990641337
1.236,1.1696289751355535,5898.136084888757
1.24,1.152920668146157,5900.444919153221
1.244,1.1444163738295927,5894.982556193486
1.248,1.148680650533787,5911.293836242241
1.252,1.1682497334088353,5900.234721440014
1.256,1.2028630606021864,5909.783036515254
1.26,1.249387812326598,5903.307606391281
1.264,1.302293742565352,5902.342722101583
1.268,1.3544355269438189,5904.644774019419
1.272,1.397988949991406,5895.109261649607
1.276,1.4255124308613594,5902.518407315133
1.28,1.4311000247116268,5903.059058944202
1.284,1.4114673581551929,5903.276597400082
1.288,1.3667410835273668,5903.893157443863
1.292,1.3007928349124307,5906.378190390267
1.296,1.2210178526118054,5893.384223146429
1.3,1.1373844276586162,5900.530741328457
1.304,1.060597905506939,5901.093372988124
1.308,0.9996340847019737,5899.368589613931
1.312,0.9595098181556123,5904.760716446672
1.316,0.9403330689054922,5894.318671257643
1.32,0.9380706711214836,5897.098676381113
1.324,0.9465226452579926,5901.053529947975
1.328,0.9594670379329344,5900.75322988361
1.332,0.9721506042016359,5893.933429920875
1.336,0.9818800467792453,5906.5538534798125
1.34,0.9878866559501751,5905.025127048163
1.344,0.9907327668878931,5902.516878235571
1.348,0.9914710633600274,5904.142801545079
1.352,0.9907345773531984,5909.29758706842
1.356,0.9879806965689821,5902.051704298744
1.36,0.9812104873809604,5900.9128542369845
1.364,0.9675051947012716,5909.016564421085
1.368,0.944436471556328,5910.185165645658
1.372,0.9117919516445577,5901.084509381163
1.376,0.8725914784983113,5898.191357762061
1.38,0.8326585434550473,5900.792312691584
1.384,0.7989999283659778,5898.443399730754
1.388,0.7780800941573977,5902.082660220814
1.392,0.7749508052616576,5891.835026072389
1.396,0.7932644055329992,5897.103125914561
1.4,0.8354254360702138,5905.344236517719
1.404,0.902176356332362,5909.702293596648
1.408,0.9914903088909875,5902.634641103057
1.412,1.097191173030051,5905.004391320456
1.416,1.2080920796934427,5896.7893534439045
1.42,1.3085990098190408,5902.6392937503615
1.424,1.381344126355255,5893.665397510682
1.428,1.411405996424933,5910.682204175759
1.432,1.3906641449519903,5899.0971889855655
1.436,1.3205924281880916,5902.884219096638
1.44,1.2124240486192885,5895.190487906453
1.444,1.084595196125278,5904.504990323757
1.448,0.9581978971950297,5896.507647244453
1.452,0.851739679356444,5903.190124491999
1.456,0.7768100658658599,5903.131385403609
1.46,0.7360697077827739,5900.9641962704045
1.464,0.724149908291609,5909.873021207077
1.468,0.7308944210888099,5902.404885326545
1.472,0.7455138723309602,5907.831236427467
1.476,0.7600799887867331,5902.855304153612
1.48,0.7713385670451484,5906.827312221387
1.484,0.7806645944166096,5901.027492505105
1.488,0.7926132891317884,5899.109090328819
1.492,0.8127141644277147,5904.371404323099
1.496,0.8451152455334018,5912.2602870600185
1.5,0.8907014184786994,5906.442561347208
1.504,0.9463337720066205,5903.391925566047
1.508,1.0055807247620596,5912.0473379694495
1.512,1.0606811012446655,5904.58424800937
1.516,1.1048779694268782,5901.520123168478
1.52,1.1341320647604936,5910.485373295469
1.524,1.1476421424672174,5903.87826373135
1.528,1.1472716565639447,5907.756709204194
1.532,1.1364896736967791,5903.425315727426
1.536,1.119464608577237,5903.229253837847
1.54,1.1005204911058977,5903.64065740832
1.544,1.0837059810208598,5909.389207120212
1.548,1.0721893811091696,5902.897082861919
1.552,1.067547278509037,5898.954988393552
1.556,1.069305174547361,5908.956279436825
1.56,1.0750301124795263,5906.296348487825
1.564,1.0810420864782295,5910.667281095564
1.568,1.0836299512794445,5900.549684479977
1.572,1.080477020690758,5902.533109536736
1.576,1.0717663114600944,5901.475282635016
1.58,1.060342634070653,5903.395089735588
1.584,1.0506036476607628,5905.550084486465
1.588,1.0464382027729757,5905.677839675152
1.592,1.049132816395621,5895.081597252633
1.596,1.0562791028462601,5900.378684588235
1.6,1.0622424368939634,5898.353889153498
1.604,1.0599941211058022,5900.064811886607
1.608,1.0434858426912574,5900.728316544843
1.612,1.009565859964357,5907.451131582894
1.616,0.9587843317011385,5905.850370387606
1.62,0.8950889412134087,5907.355941611904
1.624,0.8249120228062469,5903.084344942491
1.628,0.7561563957226672,5906.599522897852
1.632,0.697226519349416,5913.239066163467
1.636,0.6559605700936683,5910.584902968863
1.64,0.6383493040643474,5905.646749063489
1.644,0.647177868396352,5904.993974753196
1.648,0.6809895191965512,5902.619711730227
1.652,0.7338971755158044,5899.288936660166
1.656,0.7966135855792662,5900.287229037211
1.66,0.8585804574985275,5900.960749470042
1.664,0.9105161087846801,5893.013536299503
1.668,0.9464833299282652,5907.419551036823
1.672,0.9648093987640569,5895.046599280767
1.676,0.9676578881087535,5899.423039871338
1.68,0.9595679521081767,5905.218899578978
1.684,0.945669717645948,5900.398547887046
1.688,0.9302882410669977,5910.865003660489
1.692,0.91619970213608,5897.656389604222
1.696,0.9043001567945983,5899.061633701158
1.7,0.8934057571181332,5899.984447925221
1.704,0.880348323047152,5896.181476909504
1.708,0.8608626273418459,5909.355365530082
1.712,0.8313940372735255,5903.688934127448
1.716,0.7910950934512665,5902.759222013674
1.72,0.742819944876194,5901.935906211953
1.724,0.6924095858330889,5909.980207832895
1.728,0.6465806101542219,5908.523141123395
1.732,0.610500603233907,5904.729691688301
1.736,0.5862292603914154,5909.163667366171
1.74,0.5726509798912456,5902.085423995507
1.744,0.5666907376186849,5903.8576461399625
1.748,0.5650403919017195,5915.070822769265
1.752,0.5656077139266983,5901.78177446748
1.756,0.5682339496363552,5898.985845872638
1.76,0.5745735931002068,5906.973932825166
1.764,0.5872486424222899,5906.223584898974
1.768,0.6085184953940713,5897.208201655863
1.772,0.638849001956362,5907.04706943184
1.776,0.6759209941262888,5907.947871077274
1.78,0.7146148796786039,5912.3578942907225
1.784,0.7481787325476542,5909.61958231597
1.788,0.7702094573244892,5912.381978190704
1.792,0.776607859485621,5907.738614283951
1.796,0.7667007666332022,5904.201386972215
1.8,0.7432449371507586,5896.067303387724
1.804,0.7115738146502537,5907.6957316523385
1.808,0.6783324824950443,5912.96590459862
1.812,0.650118560189765,5904.782074750688
1.816,0.6321900891909752,5897.501227493637
1.82,0.6273917020215096,5902.062018530621
1.824,0.6355269621855759,5902.948952131671
1.828,0.6533926050428509,5907.235916570387
1.832,0.6755206501695041,5908.516043407604
1.836,0.6954388619228773,5904.117127001803
1.84,0.7071004195129027,5911.092762500955
1.844,0.706128240117659,5910.316191489892
1.848,0.6906248112747154,5895.864738848876
1.852,0.6614217727703561,5910.469351184642
1.856,0.6217671471899023,5907.594600181349
1.86,0.5765737065613779,5901.877101453929
