时间(s),电压(V),幅值(高频80K)
0.0,1.2002123362041686,5897.99708568606
0.004,1.2469936557101764,5891.740113624544
0.008,1.2886110815249747,5896.992464504529
0.012,1.3207685521559491,5899.129139984309
0.016,1.3410760939600628,5899.153875334867
0.02,1.3486234195191282,5898.403527584345
0.024,1.3433592194086732,5897.21714033793
0.028,1.3260401709957585,5898.687014896663
0.032,1.2987396017579946,5896.109572881711
0.036,1.2652540060432365,5906.622115058937
0.04,1.2308693127995884,5899.619575425116
0.044,1.2015218208937342,5898.79401080368
0.048,1.1827020954813119,5891.990588021515
0.052,1.1783766614538196,5903.243955258061
0.056,1.190118060830134,5902.057549722877
0.06,1.2166648438510794,5904.398926049603
0.064,1.2540710008655855,5907.979699155611
0.068,1.2964132574325615,5898.766439659162
0.072,1.3368994031265518,5906.286307699852
0.076,1.3692233678391652,5909.230302056838
0.08,1.3889892842747282,5887.424324137975
0.084,1.3948703845543462,5894.324048367731
0.088,1.3890342795905164,5901.833744406209
0.092,1.3765366306999458,5896.523292182357
0.096,1.3638771288047122,5897.11067965605
0.1,1.3573452671115838,5890.6830422605935
0.104,1.3617616220030713,5904.445433787183
0.108,1.3797727413287955,5896.599029750316
0.112,1.411442344065034,5896.437014653462
0.116,1.4539289521503258,5903.333706963079
0.12,1.5014666724800996,5906.440099607459
0.124,1.546118771605824,5900.677265456966
0.128,1.5794687908841674,5891.153525219923
0.132,1.5948102668808708,5896.676923730017
0.136,1.5890646988546897,5899.675919193304
0.14,1.5638059265605906,5897.544313000585
0.144,1.525124641385877,5900.4908689368585
0.148,1.4823506650877525,5897.849866381295
0.152,1.4458919549377276,5899.062020394162
0.156,1.4247595741019066,5905.929289268062
0.16,1.4245860007240243,5902.925213235463
0.164,1.446808925541584,5908.706873797068
0.168,1.4891409432515725,5901.6918610730845
0.172,1.5468362432651537,5902.55743110123
0.176,1.6140119692051393,5898.84231652472
0.18,1.6844723164548987,5912.673419584625
0.184,1.7518951182916869,5896.627165780013
0.188,1.8096244750007195,5905.787302611868
0.192,1.8505472117880557,5889.988677437139
0.196,1.8675524205489469,5901.9381197149805
0.2,1.8548314569779965,5903.683207523883
0.204,1.8098020571463005,5891.716481477049
0.208,1.7349244986169874,5903.842558976344
0.212,1.638443382891964,5905.494092013823
0.216,1.5333761328895428,5897.137885777749
0.22,1.434786137574238,5902.842743232256
0.224,1.3561453460667017,5910.373290722056
0.228,1.306034713745434,5898.455465488236
0.232,1.2863608937578492,5906.626533017
0.236,1.2926653401613821,5885.289756007452
0.24,1.316179052684907,5896.39826911847
0.244,1.3465541349000625,5902.991550049182
0.248,1.3741894083272996,5904.009295927051
0.252,1.3916919708802296,5897.646223604337
0.256,1.3946625613706383,5899.714729642522
0.26,1.3821685079434192,5901.66211294978
0.264,1.3570035394149762,5903.006046645374
0.268,1.3254552443563763,5903.708325841863
0.272,1.296148315775341,5902.445995391385
0.276,1.2778413298540952,5898.558884709995
0.28,1.2767394852766403,5893.577001390615
0.284,1.2944159748161443,5898.315739837028
0.288,1.327284616780187,5899.356985737159
0.292,1.3678101117291595,5897.303200635789
0.296,1.4068624773364682,5902.265507800968
0.3,1.4362923494378932,5910.354313457292
0.304,1.4509496092656193,5899.976598823967
0.308,1.4497188298782113,5904.849306001463
0.312,1.4354632288796414,5908.301112836219
0.316,1.4140233729644267,5896.900910519228
0.32,1.3926416548090996,5897.226576571413
0.324,1.3782916518143074,5900.326270358102
0.328,1.3763003476613789,5900.531639710674
0.332,1.389455638908691,5900.745331972699
0.336,1.4176256750772414,5897.649814023219
0.34,1.4578014235764445,5897.539212698844
0.344,1.5044292387093836,5903.676918217239
0.348,1.5499853960671113,5898.174687382943
0.352,1.5858926866485419,5902.079315201527
0.356,1.6039052619402727,5903.790764865423
0.36,1.5978995151096549,5902.999340263787
0.364,1.5656828276653485,5903.650223240111
0.368,1.5101510305451424,5895.927512163348
0.372,1.4391242564374054,5905.583020370142
0.376,1.3636261534133687,5906.081589610967
0.38,1.2950913685208463,5896.468510828733
0.384,1.2425316751721627,5892.998512985146
0.388,1.2106933932273425,5904.828887774698
0.392,1.1997368523141394,5890.775166278232
0.396,1.2062679403354697,5898.11054728182
0.4,1.224989038130805,5902.007337327992
0.404,1.2501215822281304,5900.319677811367
0.408,1.2761875186637126,5898.490620165157
0.412,1.298380171430507,5888.827057613916
0.416,1.313051600731029,5895.705587220986
0.42,1.3185775052679718,5899.134241353121
0.424,1.3163070088670372,5902.679146190647
0.428,1.3109099268808273,5901.636495549944
0.432,1.309517714589945,5897.21917312297
0.436,1.3196367708780674,5907.06436206169
0.44,1.3465335993654637,5890.7713539439055
0.444,1.3911394843617035,5900.916467965419
0.448,1.4492684393066553,5903.368129864992
0.452,1.5122973772303712,5897.0636688074255
0.456,1.5688774951490396,5894.201223238862
0.46,1.6071134303812602,5898.83292674778
0.464,1.6169359656711004,5909.229688820561
0.468,1.5925942154480994,5902.586377934811
0.472,1.534857780911159,5904.1889013772
0.476,1.45195432091658,5900.073606646923
0.48,1.358302848516347,5902.657127014095
0.484,1.2710490313939347,5904.758660125544
0.488,1.2055929154400726,5902.271753124862
0.492,1.171792768931249,5911.484508059249
0.496,1.1720733539606913,5899.828700878948
0.5,1.2017430255259105,5899.530182619237
0.504,1.251035709048638,5902.346515484436
0.508,1.3080207992361121,5898.913685242607
0.512,1.3615355824425792,5905.183329759062
0.516,1.4035143369182026,5900.772860689287
0.52,1.430333603649918,5909.348681217281
0.524,1.4429885552807533,5902.691074997211
0.528,1.4460975760399584,5898.688404114342
0.532,1.4459594339066157,5893.79534111526
0.536,1.448158707869104,5901.2236168248455
0.54,1.4554478085725426,5900.057410759091
0.544,1.4666803827065797,5895.866525581954
0.548,1.4772850776197197,5892.311289414435
0.552,1.481168958395407,5906.624903924283
0.556,1.4733047646816946,5898.801358765468
0.56,1.451939300910026,5895.579850671977
0.5640000000000001,1.419528227040845,5895.319680180764
0.5680000000000001,1.3820779974270072,5896.6527201088265
0.5720000000000001,1.347281120472204,5903.901627928019
0.5760000000000001,1.3222730485364023,5891.485004433856
0.58,1.3117825627197077,5906.595473286696
0.584,1.3170628010003904,5891.486462645503
0.588,1.335663514748734,5890.515429593332
0.592,1.362010938436752,5897.060424928643
0.596,1.388754200965592,5895.82354255526
0.6,1.408704674506098,5900.699217798069
0.604,1.4169081791894067,5907.117300034223
0.608,1.4121517378950688,5901.429222301515
0.612,1.3972823332649067,5894.1725018848265
0.616,1.378161524041248,5901.491513693139
0.62,1.3616549637389952,5897.16497162117
0.624,1.3534430467763696,5893.211394077085
0.628,1.3564774053807431,5897.837370327604
0.632,1.370593944745656,5898.792583361592
0.636,1.3932518548809054,5898.665133394866
0.64,1.420875426234621,5908.028610268277
0.644,1.4501082341187532,5908.543023802258
0.648,1.4784793577540283,5905.529704162185
0.652,1.504323597208833,5896.617812344234
0.656,1.5261203985184564,5899.487367081431
0.66,1.5416958358731276,5897.946040238609
0.664,1.547897443152204,5899.6320439785295
0.668,1.5412192733708496,5898.921305663948
0.672,1.519377607168121,5904.376689968517
0.676,1.483229199242595,5904.476191785444
0.68,1.4380055991148255,5900.191473679857
0.684,1.3929024029014505,5893.74592223948
0.6880000000000001,1.3587433809315415,5913.867649985428
0.6920000000000001,1.3444824469291392,5900.138261369287
0.6960000000000001,1.3540741715374647,5899.875538803665
0.7000000000000001,1.3851730908925335,5904.246977213195
0.704,1.4302177181863762,5900.051663189988
0.708,1.479279824666568,5907.717754453543
0.712,1.5232976471605246,5895.061401788316
0.716,1.5563355991542978,5899.054720713741
0.72,1.5762022348405371,5891.153848690168
0.724,1.5836168845598104,5899.805295404211
0.728,1.58063628643224,5903.543269325447
0.732,1.5690935763457754,5894.076109073672
0.736,1.5495952239579505,5898.405093738458
0.74,1.52138842774349,5903.940975493044
0.744,1.483135870364957,5909.3251971513055
0.748,1.4342829614191615,5900.313475214777
0.752,1.3764327831437067,5900.169075435186
0.756,1.314129136970045,5900.357829648201
0.76,1.2546581645274224,5896.827802693314
0.764,1.206793222386563,5886.403043608962
0.768,1.1787596001039382,5904.520792836235
0.772,1.1759940322853668,5889.751337316437
0.776,1.1994012276247186,5906.266408999006
0.78,1.2447173715337403,5893.233944689328
0.784,1.3032583799811368,5900.413338672332
0.788,1.3638117377017467,5896.529866159303
0.792,1.4149972541789215,5895.869652404967
0.796,1.4473707970913527,5895.363948722204
0.8,1.4548478793244692,5901.643947253985
0.804,1.4353937902081824,5900.60474297654
0.808,1.391138822465447,5900.679596481145
0.812,1.3280867033572255,5903.530056391066
0.8160000000000001,1.2554677199968889,5906.890243877188
0.8200000000000001,1.1846721215414213,5896.547013231773
0.8240000000000001,1.127692177849745,5895.123123956357
0.8280000000000001,1.0951430976257117,5902.028047056574
0.8320000000000001,1.0941904334770802,5896.652371362479
0.836,1.1269569026796122,5893.07160630637
0.84,1.1899941622282504,5902.47272698138
0.844,1.2750512429119318,5913.589120830327
0.848,1.370832421821566,5900.843038576003
0.852,1.4651044863113885,5902.390584295121
0.856,1.5465967743278721,5911.415291453964
0.86,1.606471352908838,5904.5290825017255
0.864,1.639385505159249,5905.478235424444
0.868,1.6441491465847875,5903.952517122074
0.872,1.6238258083573374,5900.959621035279
0.876,1.5850993490798386,5895.894186531683
0.88,1.5369230160778198,5906.018200044755
0.884,1.4887257288370783,5889.274037350648
0.888,1.44858364905387,5898.69833479806
0.892,1.4217372737514848,5898.093862844118
0.896,1.4097101284514457,5898.329168746472
0.9,1.4101426740805938,5900.946062537526
0.904,1.4173673910381166,5892.990341455729
0.908,1.4237267557309816,5898.502879976549
0.912,1.4215557339744147,5893.991331264547
0.916,1.405479143629794,5902.146444304709
0.92,1.3743203706566751,5904.59704427937
0.924,1.3318381128712138,5902.341529797489
0.928,1.2858909646239838,5894.1933634054985
0.932,1.246238024232184,5907.272011266356
0.936,1.2216510983539726,5902.612837153936
0.94,1.217214194798623,5894.9804578899375
0.944,1.232662833208552,5898.218145014102
0.948,1.2623528134121653,5911.525955824457
0.952,1.2969414199743914,5899.545155058043
0.956,1.3262883945307102,5901.488928035107
0.96,1.3426724584876826,5898.816752657821
0.964,1.3432771678655133,5905.501117864476
0.968,1.3310556108474594,5900.949638295783
0.972,1.3135880321776663,5906.3022793153095
0.976,1.3003296433495002,5895.14328079261
0.98,1.2993234906173863,5900.467603943154
0.984,1.3145860062081478,5900.260146768675
0.988,1.344951307800914,5904.408319134743
0.992,1.3845534023221797,5896.305357430557
0.996,1.424629977016799,5901.450568032235
1.0,1.4560308923568228,5898.506241243736
1.004,1.4717094802654698,5898.545822118157
1.008,1.4685302366825403,5899.749785200447
1.012,1.447895915139159,5897.477802074545
1.016,1.4149765431279009,5908.121003843828
1.02,1.3767257112665805,5901.46886752473
1.024,1.3393435239974827,5898.548871200662
1.028,1.306210301535681,5904.217467461014
1.032,1.277280282389494,5896.192736196614
1.036,1.2502912004947797,5903.2665809352975
1.04,1.2231310790901682,5900.261630903025
1.044,1.1959830238880544,5905.286277930507
1.048,1.1720168343890311,5904.255054589425
1.052,1.1562872536835427,5894.2630848940025
1.056,1.1534739140105705,5906.568246595741
1.06,1.1655928148533037,5903.538175232248
1.064,1.1906709602407406,5903.781440135264
1.068,1.2228424042004413,5912.858924497453
1.072,1.2537945933014476,5897.8377454052525
1.076,1.2751458908401996,5896.2540640819225
1.08,1.2810713098048656,5897.02736111891
1.084,1.2703092374159217,5895.306547025193
1.088,1.246756122941451,5903.210759968024
1.092,1.2182759362831106,5887.727124847393
1.096,1.1940164889805198,5902.450913291767
1.1,1.1811869690067751,5908.311610191202
1.104,1.1825491186585566,5905.555630394575
1.108,1.1955829011044146,5901.003509655525
1.112,1.21355486693443,5897.631816135086
1.116,1.2279492563947314,5899.710487382635
1.12,1.231279636578211,5902.801694791666
1.124,1.219300976819568,5906.811317234625
1.128,1.1919927924465858,5892.323156570672
1.132,1.1532215173608968,5898.007679230715
1.136,1.109507639478574,5896.418788542428
1.14,1.0685531340689753,5902.971143226947
1.144,1.037995363286038,5900.09246068386
1.148,1.0244461477336955,5894.089887264716
1.152,1.0326125589005153,5893.788699070828
1.156,1.064353731702249,5906.550621170962
1.16,1.117810842155869,5901.91625334972
1.164,1.1870266697788645,5905.712854215156
1.168,1.262501477201085,5903.396933457843
1.172,1.3328201979052092,5892.2582065900815
1.176,1.3870048619306046,5896.181340793159
1.18,1.4168677203765687,5896.221314509299
1.184,1.4185638012884807,5896.653717285383
1.188,1.3928799583255838,5908.500259158863
1.192,1.3444141365064208,5908.088465734041
1.196,1.280236942652189,5891.410996797353
1.2,1.2085853622808165,5898.050643042167
1.204,1.1378338818425973,5896.860792688404
1.208,1.0757629971950313,5900.453902569304
1.212,1.0290237298409088,5899.73933955874
1.216,1.0025993227088295,5901.736063889289
1.22,0.9991083327092741,5902.112025493799
1.224,1.0180750145141035,5900.8442936578185
1.228,1.0555928396540548,5902.698940308953
1.232,1.1047986962083003,5898.250192013725
1.236,1.1572377365132134,5897.730760580667
1.24,1.20479077382325,5893.904741086156
1.244,1.2415696219077965,5904.835327624007
1.248,1.2651305151150734,5898.440038535827
1.252,1.2765534403722463,5918.869618710398
1.256,1.2793798741237215,5890.748204878546
1.26,1.2779104031146606,5894.353864141483
1.264,1.27561618992877,5904.769079889592
1.268,1.2742295832593804,5904.8492470381525
1.272,1.2736356158279758,5898.765967089516
1.276,1.2723673869799665,5897.760128048419
1.28,1.268449611527893,5901.251021322501
1.284,1.2603605443959802,5904.489766275967
1.288,1.247853043268924,5900.908488910745
1.292,1.2323448415799632,5895.906328656723
1.296,1.2166631249873932,5892.423781186156
1.3,1.2041535295882175,5902.5996261836
1.304,1.1974596997177145,5905.859027669784
1.308,1.1974445709536496,5901.456079801088
1.312,1.2026384823067864,5910.985740261385
1.316,1.209381490193408,5902.338510574805
1.32,1.2126349124917866,5900.564562996257
1.324,1.2072541919458453,5902.586961276529
1.328,1.1893225878171847,5899.77415020183
1.332,1.1571011637471862,5915.912020327347
1.336,1.1113696366316705,5909.337730010566
1.34,1.0552467785572917,5897.443888791122
1.344,0.9937314614695927,5903.310768500202
1.348,0.933137567247595,5906.049357988257
1.352,0.8804234489642223,5900.474935147174
1.356,0.8422994537627936,5899.797258980953
1.36,0.8240571831875245,5907.273254496842
1.364,0.8282879948111161,5899.087412680024
1.368,0.8539032136857454,5893.848795577869
1.372,0.895954956648657,5899.624752686878
1.376,0.9465404244801691,5900.564780565723
1.38,0.9966030774173508,5911.783988080186
1.384,1.0380188133804678,5898.715670717742
1.388,1.065245959020507,5903.107110793276
1.392,1.0760471265255238,5898.4536588013
1.396,1.0712035257419419,5908.814294749038
1.4,1.0535262075798684,5905.866399327733
1.404,1.0266652019659437,5900.963126959236
1.408,0.9941917641695743,5898.628615111589
1.412,0.959208156078473,5902.791676939948
1.416,0.9244154964368264,5907.464947963781
1.42,0.8923518390445223,5895.885922171097
1.424,0.8655338946255011,5903.306505516448
1.428,0.8463774529918423,5900.488035087994
1.432,0.8368784537019041,5902.3879821514665
1.436,0.8381319275267867,5907.114978905191
1.44,0.8498755120582774,5900.415750217948
1.444,0.870271606939607,5900.60928742316
1.448,0.8960548543249642,5906.204609584732
1.452,0.9230608186039415,5909.060224368507
1.456,0.947051677233703,5902.314285625167
1.46,0.9646243115911927,5898.867268389841
1.464,0.9738935172537482,5895.734912958982
1.468,0.9747350012521934,5900.699271720239
1.472,0.9686099473363678,5894.462738397085
1.476,0.9581504256900081,5908.597753592544
1.48,0.9466589515991877,5905.872409129392
1.484,0.9375804112170691,5905.35437071114
1.488,0.933963743198528,5898.87877848044
1.492,0.9379419246522007,5909.9803444896725
1.496,0.9502869987689724,5901.077927643668
1.5,0.9701554791345537,5906.552004571723
1.504,0.995197158326172,5902.776968049929
1.508,1.0221266372669158,5900.740660345504
1.512,1.0475878645060768,5903.877557321929
1.516,1.0688689253257266,5907.307407929938
1.52,1.084075391354263,5906.293410502661
1.524,1.0917954996442634,5902.061915820991
1.528,1.0907105168059892,5906.898252180391
1.532,1.0796419026598405,5915.607574778113
1.536,1.0581843916815636,5908.705780297211
1.54,1.0275940873134164,5906.816501651376
1.544,0.9912716188716474,5907.804394769155
1.548,0.9542688241688176,5915.30319162312
1.552,0.921797708414919,5903.826367704362
1.556,0.8974044683818021,5898.51079303016
1.56,0.8817838630110734,5902.875614793768
1.564,0.872888501672324,5905.958202040135
1.568,0.8672753730944389,5904.089225056142
1.572,0.8620234636420274,5905.502853759003
1.576,0.8563333297363974,5905.626266312984
1.58,0.852088823179518,5910.565374996714
1.584,0.853135207626838,5907.230504740327
1.588,0.8635987283799336,5909.733155829767
1.592,0.8859366087445558,5910.479718948104
1.596,0.9194296168127997,5910.470420976057
1.6,0.9596205616436129,5910.194138009823
1.604,0.9988824903900863,5905.166746474262
1.608,1.027939606574545,5899.289789642101
1.612,1.0379137257599955,5906.884726612744
1.616,1.0224409120251967,5911.015167892952
1.62,0.9794643595592979,5899.387602239573
1.624,0.9123033384848608,5901.687856146093
1.628,0.8296168778498645,5908.547120454942
1.632,0.7440810500367183,5896.905159915815
1.636,0.6699438287644385,5909.756775089081
1.64,0.6199624453624747,5916.720199863535
1.644,0.602463208347582,5911.4093614558615
1.648,0.6193385635586288,5903.763800524838
1.652,0.6656444237285767,5903.872153625043
1.656,0.7310275769796851,5913.391842766313
1.66,0.8025665658287393,5901.563055621502
1.664,0.8680221081969597,5901.208626119027
1.668,0.9183492116354309,5900.683759789834
1.672,0.9488015066789295,5917.301402389275
1.676,0.9587363274801081,5908.792640336202
1.68,0.9507064136129011,5912.174689066028
1.684,0.9293713570397439,5910.056688135026
1.688,0.900481551216066,5892.455951887677
1.692,0.8699727486710208,5909.433368555319
1.696,0.8430767826564859,5910.944386925615
1.7,0.8233471688222709,5910.100838817584
1.704,0.8117262805633793,5906.0474890341775
1.708,0.8060859093396827,5906.286260133206
1.712,0.8016967100275827,5917.493638022269
1.716,0.7927139041914238,5902.923743362129
1.72,0.774263100710804,5903.034060042099
1.724,0.7443828248500131,5906.83273452175
1.728,0.7050653422205114,5913.161047456685
1.732,0.6619312312492919,5911.98524250981
1.736,0.6225714239387867,5903.986746613099
1.74,0.5940820702539625,5908.83741570098
1.744,0.5806105157125198,5917.601223884425
1.748,0.5817704202096927,5901.134370756451
1.752,0.5925701878407041,5908.524590308275
1.756,0.6049965780673313,5910.188566023499
1.76,0.6106946447075939,5907.155686302826
1.764,0.603679910629097,5901.448059777033
1.768,0.582102939847644,5902.886362147383
1.772,0.548628020222984,5913.285385046012
1.776,0.5094987114132254,5916.096231654268
1.78,0.47265458976001196,5892.46875444859
1.784,0.4454674868341353,5912.015047571493
1.788,0.4327805570449925,5909.167720807042
1.792,0.4358166408880319,5903.120966325228
1.796,0.45218532116335614,5908.594232514982
1.8,0.47684906852337144,5910.33721309783
1.804,0.5036681460912068,5904.375991381378
1.808,0.5270434553596732,5904.054891095442
1.812,0.5431750298448456,5901.356447068561
1.816,0.5505919331118959,5907.081857511509
1.82,0.5499108844476773,5910.638977769904
1.824,0.5430901130445869,5899.195383601185
1.828,0.5325460465412138,5912.944523515528
1.832,0.5203714572625786,5911.712841136378
1.836,0.5077343740581772,5904.857632483609
1.84,0.49454595980435284,5896.409532436749
1.844,0.4796168059909087,5910.476819293926
1.848,0.46148711191088165,5914.98090347923
1.852,0.4397181707988063,5909.525848060006
1.856,0.41591636467373483,5910.809530023439
