时间(s),电压(V),幅值(高频80K)
0.0,1.029858456759691,5898.378399924762
0.004,1.1120573603259531,5907.260378169182
0.008,1.1838538594876462,5900.161369150168
0.012,1.2386706929840803,5893.282604529137
0.016,1.273567963452994,5895.022698594178
0.02,1.2894600375253993,5901.824984766447
0.024,1.2906070952771826,5897.455837301109
0.028,1.2837536294497294,5903.623805555788
0.032,1.276999031512204,5899.076531440803
0.036,1.2783394733519438,5904.519555988329
0.04,1.293960250530622,5898.357562136474
0.044,1.3265826455688796,5898.535132902515
0.048,1.3742963350468933,5893.133178460787
0.052,1.4303360708040955,5896.601902927695
0.056,1.4841824786025946,5900.155710338023
0.06,1.5240490913155926,5900.310655553079
0.064,1.5402272938028934,5899.671107413624
0.068,1.5281761039313444,5898.536754924013
0.072,1.4901047809136183,5895.924821555559
0.076,1.4343400202836272,5908.016232880396
0.08,1.372771110983194,5903.433298966505
0.084,1.3175121631793358,5901.539727381967
0.088,1.2780625127692933,5899.813316546439
0.092,1.2596913810111272,5909.291468959285
0.096,1.2630604127027008,5900.762792322704
0.1,1.2847383519829734,5895.986122482263
0.104,1.3182806619197975,5896.244974114788
0.108,1.3556459563174776,5890.896420796526
0.112,1.3887358986267198,5895.258269904175
0.116,1.4108338243989091,5910.765701171202
0.12,1.4177240185094833,5899.3534081141615
0.124,1.4082753338042298,5902.279748888042
0.128,1.384321511000507,5900.309142604642
0.132,1.3498586292202355,5898.10592540166
0.136,1.3098519072856338,5899.100672638636
0.14,1.2691014650218961,5893.54641687041
0.144,1.2315395380537113,5893.597765972203
0.148,1.2000805757235025,5897.801708937889
0.152,1.1768657644416025,5891.281231337325
0.156,1.1635855487962559,5903.883139590716
0.16,1.1616200730530486,5900.619020699206
0.164,1.1719242295348489,5899.760117030492
0.168,1.194708289067982,5901.943160627399
0.172,1.2289935767849764,5895.193275109179
0.176,1.2721922920143705,5905.462239769508
0.18,1.3199802339627862,5895.020542889454
0.184,1.3667162051392945,5896.17328803467
0.188,1.4064288925416273,5894.2390689767335
0.192,1.4341094963745995,5906.367946783507
0.196,1.4469071670309117,5897.127478082731
0.2,1.4448343563788273,5895.15045887919
0.204,1.4307043988855022,5904.835700110429
0.208,1.4092698830192343,5897.910568815336
0.212,1.3858681157076571,5900.9206152993565
0.216,1.3651166911800723,5904.22935085474
0.22,1.3501644395366057,5896.471401915131
0.224,1.3426843278197749,5898.938045768822
0.228,1.3433487448003065,5902.743455098994
0.232,1.352255728472481,5898.274760135336
0.236,1.3689511305647277,5908.862479411102
0.24,1.3921619338453164,5891.07512003756
0.244,1.4195924485739806,5901.70720728397
0.248,1.4479445491159086,5898.3555064263055
0.252,1.4730979781921738,5891.161652283373
0.256,1.4904504262527603,5908.801711602348
0.26,1.4955729031014455,5900.16343791216
0.264,1.4852401045096997,5893.748089645641
0.268,1.4585584107404759,5893.008259472065
0.272,1.4176788201903143,5899.277175315266
0.276,1.3676984224330417,5894.671655353833
0.28,1.3157125910502707,5901.192681444289
0.284,1.2693039668275004,5897.142035480459
0.288,1.2348944087359026,5902.049031625349
0.292,1.2163664127302758,5902.543511100891
0.296,1.2142830154760806,5893.7124210199845
0.3,1.225964035504801,5903.589135221559
0.304,1.2465272023183693,5908.0228492030665
0.308,1.2706405291951168,5895.04733418666
0.312,1.2942869658687566,5905.935919061126
0.316,1.3157260562081683,5900.572649897907
0.32,1.3352572384232892,5902.16092948763
0.324,1.3540422733910746,5904.8540771899625
0.328,1.3726595659178682,5896.815808383328
0.332,1.3900610707337002,5907.713364199676
0.336,1.403333675144711,5902.078578577541
0.34,1.408361727611624,5900.217637714328
0.344,1.4012318210484245,5899.043455066494
0.348,1.3799662890712012,5904.406472568048
0.352,1.3459394518067913,5901.075531973377
0.356,1.304296764350302,5903.275452306548
0.36,1.2630130233772427,5892.639611341572
0.364,1.2308150111164642,5899.627328196467
0.368,1.2147477847026122,5900.478430969991
0.372,1.2183276659765707,5897.073113019471
0.376,1.2408817715078477,5901.910992809694
0.38,1.2780844627284558,5909.719339248769
0.384,1.3232623053852206,5903.6778181275895
0.388,1.368924325847412,5908.011188105245
0.392,1.4080991635462126,5901.709782508807
0.396,1.4352782136329423,5903.678670777515
0.4,1.4469686654955936,5908.498678910445
0.404,1.441984220529956,5890.313982109024
0.408,1.4215908785039395,5907.152234525571
0.412,1.3894747017700857,5895.018831241207
0.416,1.3513486696275119,5902.112669743002
0.42,1.3140697831293975,5903.318005505527
0.424,1.2843743073474256,5903.525570129867
0.428,1.2675332490836506,5904.705113691547
0.432,1.2662869013831888,5898.474120195738
0.436,1.2803901582317583,5898.38831055012
0.44,1.306950924680746,5900.08978935468
0.444,1.3414242906208274,5905.380981493754
0.448,1.3788187909119207,5895.268949617999
0.452,1.4146436966094778,5902.159291607477
0.456,1.4453725187604103,5896.268266792043
0.46,1.4684666289386883,5898.000853690277
0.464,1.4821367990648096,5899.819643024478
0.468,1.4850686049578505,5898.443121453686
0.472,1.4763474464252262,5896.386381345162
0.476,1.4557182281480814,5901.239139159445
0.48,1.4240748486485244,5899.665386450663
0.484,1.3838549708424615,5900.547141177744
0.488,1.3390177553754221,5898.713202072827
0.492,1.2945076082013975,5899.0595755158765
0.496,1.255364051586181,5909.548488276517
0.5,1.2257671534235732,5893.758027264742
0.504,1.2082894974686966,5909.13582209934
0.508,1.203505015938392,5913.151339939005
0.512,1.2099698141287065,5897.979646288594
0.516,1.2245479905777763,5898.7482453217335
0.52,1.2430759297467684,5902.056640858273
0.524,1.2612817422757236,5898.76634492492
0.528,1.2756936997168544,5897.783929497546
0.532,1.2841844682082493,5896.451644102948
0.536,1.2859454907512655,5900.362486397775
0.54,1.2809895585018627,5894.571631467977
0.544,1.2695318968551488,5896.561638030062
0.548,1.251634649492725,5897.339149145342
0.552,1.2273323983037816,5896.968898081567
0.556,1.197225517969527,5903.27295233687
0.56,1.1633105515129818,5901.1798350386725
0.5640000000000001,1.1296217757624158,5896.621066196606
0.5680000000000001,1.1021667217617375,5896.173789570182
0.5720000000000001,1.0878184543239868,5895.349911139621
0.5760000000000001,1.0923363282354621,5895.633234094891
0.58,1.1182699140202514,5904.286226270022
0.584,1.1637174461050344,5901.872269017398
0.588,1.2225532946510602,5903.289370602045
0.592,1.2860475592896825,5895.91890178906
0.596,1.345219895804919,5901.210349439134
0.6,1.3930882932332738,5892.504678101378
0.604,1.4261832072503366,5895.596994676566
0.608,1.4450673535914145,5892.221858635846
0.612,1.4538651013457273,5897.905762253024
0.616,1.458882561429274,5908.373501019116
0.62,1.4664767891026762,5905.179904450615
0.624,1.4806245518407894,5905.520844125648
0.628,1.501034709683918,5898.807423492244
0.632,1.5227223922978401,5894.871010238156
0.636,1.537452018323442,5895.261895330632
0.64,1.5365992780793538,5898.769188282459
0.644,1.5143232685825658,5899.230760214126
0.648,1.4698382663448342,5897.588943354261
0.652,1.4079883365276498,5897.152348359202
0.656,1.3379924143014288,5894.247680101061
0.66,1.2708739238841973,5899.437477500799
0.664,1.2164848611484926,5905.295170746581
0.668,1.181040048601615,5899.845617319389
0.672,1.1657835559285092,5899.278662686277
0.676,1.1670507162119104,5905.238795437593
0.68,1.1776728766075064,5897.941866401879
0.684,1.1893514764775304,5904.043443156496
0.6880000000000001,1.1953091883703504,5899.5253803816295
0.6920000000000001,1.1923401271680363,5903.985952802107
0.6960000000000001,1.1814898555329276,5895.905502039402
0.7000000000000001,1.1670660660324297,5898.674572761082
0.704,1.1543731549838658,5889.531499256067
0.708,1.1471468622310335,5897.040186465768
0.712,1.1458123141323804,5894.958175384485
0.716,1.1472994991861358,5903.029177368351
0.72,1.1464296169776522,5883.212260331966
0.724,1.1382181211268803,5902.039479851145
0.728,1.1201345547040824,5901.319154650932
0.732,1.0934836974410684,5898.560239433996
0.736,1.0634732981321722,5894.140475390956
0.74,1.0379861469133702,5903.739753533405
0.744,1.0254382386125935,5891.386648851315
0.748,1.032316624088562,5899.759015504102
0.752,1.0610151105265144,5893.430897946345
0.756,1.1085005889567907,5899.037555964608
0.76,1.1662660482869853,5892.388335765881
0.764,1.2218583212338008,5893.990484755833
0.768,1.261819682204865,5908.0969959844615
0.772,1.2753047996471714,5902.261776786297
0.776,1.2573277684126818,5900.943948176378
0.78,1.2106839718128164,5894.207251357078
0.784,1.1458989245156819,5904.211392464841
0.788,1.0790121107229884,5899.949776029226
0.792,1.0276673711432966,5902.378592045595
0.796,1.0066549410694825,5900.655989937567
0.8,1.0242789567573651,5904.05900442441
0.804,1.0805124993190331,5895.097050299897
0.808,1.1671933771885805,5897.004788931246
0.812,1.2699932056298509,5896.840160810686
0.8160000000000001,1.3716531743862561,5897.396356424986
0.8200000000000001,1.4557824262189587,5904.275920177192
0.8240000000000001,1.5102966904463238,5898.4780575279365
0.8280000000000001,1.5296054811436905,5898.252950673348
0.8320000000000001,1.515103147368292,5899.685627587351
0.836,1.4741299820149374,5900.211556611878
0.84,1.4179487374883317,5896.490320488449
0.844,1.3593063556780518,5905.820164609426
0.848,1.3100107272879222,5884.061857881937
0.852,1.2788795031982056,5894.263936882546
0.856,1.2704208736339317,5901.878887515375
0.86,1.2845025392266585,5900.570218996349
0.864,1.3169885109434547,5898.181690064197
0.868,1.3610531888863917,5894.228341529051
0.872,1.40878624111614,5912.896336530926
0.876,1.4527274886375,5901.605133990704
0.88,1.4870146702536893,5898.833799626294
0.884,1.5079310054619128,5902.538958695168
0.888,1.5138549739034044,5903.463582568282
0.892,1.5048261377928036,5895.491001317172
0.896,1.4820073820666548,5902.459542999343
0.9,1.447274448524716,5897.962141468711
0.904,1.403092796009198,5897.6853864830055
0.908,1.3527173679637476,5902.111317164116
0.912,1.3005108124930378,5902.261945581457
0.916,1.2519608525406165,5900.441117033157
0.92,1.213044533648567,5888.389922154747
0.924,1.188974436414781,5901.02505280499
0.928,1.1827885812773675,5891.260721384521
0.932,1.194370542340863,5894.511390415028
0.936,1.220251921787777,5902.853646574899
0.94,1.2542311871129883,5889.859008699276
0.944,1.2886745261096129,5902.601156728011
0.948,1.316254770052383,5901.702892418628
0.952,1.3316914815089982,5901.378719226709
0.956,1.3329199035272208,5898.447393550337
0.96,1.3212814278117027,5898.101704097812
0.964,1.3007662531372557,5900.830634370763
0.968,1.2767203665007536,5897.812365577995
0.972,1.2544735403332103,5898.641987552486
0.976,1.2381491211347793,5888.434555014013
0.98,1.2297929138284946,5890.519234786082
0.984,1.2290010658542792,5897.748286659974
0.988,1.2332459290328746,5898.220167044541
0.992,1.2389323461238797,5890.254387896161
0.996,1.2428949276271846,5892.095616477066
1.0,1.2437270273921748,5894.206283254459
1.004,1.2422610251230721,5899.49364328336
1.008,1.2409036351375171,5904.071549647877
1.012,1.2422136156616994,5903.954217945404
1.016,1.2475592590800628,5895.745727643845
1.02,1.256523311118319,5894.735995043937
1.024,1.2671316495802196,5901.569374970755
1.028,1.276530344488376,5914.838580449665
1.032,1.2817302490695959,5902.012167254321
1.036,1.2802702705321802,5901.617015854051
1.04,1.2707701338855155,5905.160640661864
1.044,1.2532920997609265,5904.506132290017
1.048,1.229395504205895,5892.54883453765
1.052,1.2018670187398626,5895.735005429863
1.056,1.174247226579301,5898.621496134279
1.06,1.150287089670765,5907.011651586758
1.064,1.1333828144065383,5897.379861499485
1.068,1.1260368011024264,5887.443965406324
1.072,1.1294815198963106,5904.751235261901
1.076,1.1435988642993709,5894.399026942445
1.08,1.1671407265101656,5893.894250149301
1.084,1.1981482129718375,5895.022599803527
1.088,1.2344295975874202,5891.234579561648
1.092,1.2739598682685056,5902.139797845651
1.096,1.3151062066826409,5891.323711311225
1.1,1.3566424899813632,5893.115315836593
1.104,1.3975486235460715,5905.95117329072
1.108,1.4366262827743694,5908.250892255627
1.112,1.472063076231616,5896.001211803388
1.116,1.5012017072912114,5901.8997572653725
1.12,1.520778764886269,5899.846033689163
1.124,1.5276992293282285,5890.7541201046415
1.128,1.5200879734087014,5902.657196576227
1.132,1.4981305483471468,5893.777644427433
1.136,1.4642816506310377,5904.134357289898
1.14,1.4227633974234102,5891.995211498615
1.144,1.378638425042149,5892.425323965327
1.148,1.3368591427841212,5898.019778756212
1.152,1.301538329101877,5903.239182133571
1.156,1.2754634868505828,5901.064974861797
1.16,1.2598004692767213,5895.670890564598
1.164,1.2540004306180508,5902.73601292531
1.168,1.2559657684301484,5891.773024975001
1.172,1.262475862816572,5897.634020438405
1.176,1.2698197464830616,5897.315020905837
1.18,1.2745650582948749,5899.858113429621
1.184,1.274335790845249,5894.3855571641325
1.188,1.2683693693880975,5899.536058175188
1.192,1.257579294721616,5887.918136536156
1.196,1.2439853212271395,5893.238970668063
1.2,1.2297091907280042,5896.024276357555
1.204,1.2160576926596172,5898.023538972886
1.208,1.2032102192500251,5891.136202918548
1.212,1.1906528869995476,5898.788902536765
1.216,1.1780704993791808,5898.3782040000015
1.22,1.1662250018855154,5894.412111458563
1.224,1.1574137140260126,5902.322093104528
1.228,1.1552368177422447,5897.270145945224
1.232,1.1635498134028397,5903.339488181134
1.236,1.184739724253822,5899.046197014824
1.24,1.2178928728229523,5897.4953911956745
1.244,1.2577809347276714,5905.123099843481
1.248,1.2954667769202801,5899.575263004084
1.252,1.3205889130872266,5900.152786678304
1.256,1.3244687983142975,5897.076340500627
1.26,1.3027768045647594,5899.925400402864
1.264,1.2568353597479096,5904.747963659544
1.268,1.193355877141143,5903.656547919993
1.272,1.1229586946011751,5907.731812741425
1.276,1.0579921112712336,5900.564612619091
1.28,1.0100870050192516,5899.571129232754
1.284,0.9877924154072398,5908.354249206349
1.288,0.9946705199377794,5909.211628337634
1.292,1.0283558178446752,5899.6193172057465
1.296,1.0810765842246128,5896.255858162201
1.3,1.1417404702358787,5908.220882135255
1.304,1.1989781059421378,5909.876269118176
1.308,1.244000848520901,5901.540896940544
1.312,1.2722021187673491,5904.939438576947
1.316,1.2830764887451351,5901.014527968278
1.32,1.2788110408148166,5897.300256804158
1.324,1.2624057626752772,5900.973329104002
1.328,1.2362322942233877,5906.987365397209
1.332,1.201567614770849,5905.408422583808
1.336,1.1590571856179546,5911.339621851167
1.34,1.1096360960147058,5905.835570150969
1.344,1.055391131692577,5903.352744608833
1.348,1.0000467761065923,5895.277787531933
1.352,0.9489229986173178,5901.315910261064
1.356,0.9082773892869371,5910.80300439659
1.36,0.8840550672402445,5898.407799287877
1.364,0.8802943922182791,5899.233777698133
1.368,0.8976846805888558,5905.493966147103
1.372,0.9329043522785807,5903.425864697599
1.376,0.9792178734473996,5896.693182453578
1.38,1.028299229216125,5904.65508904503
1.384,1.0726113309125602,5900.686836546667
1.388,1.107346767496854,5909.246658682055
1.392,1.1311648508995942,5910.725074047986
1.396,1.1455818657888919,5907.651859537016
1.4,1.1534960350116696,5909.599009640619
1.404,1.1576195074900248,5900.555539516386
1.408,1.1594687977650724,5900.385233009783
1.412,1.1592068076327724,5901.33861570374
1.416,1.156244523775871,5899.299528815628
1.42,1.1502095139962334,5907.723129713284
1.424,1.1417489050602332,5899.427296816861
1.428,1.1327329632096335,5890.942175051489
1.432,1.1257315216858983,5900.808215485906
1.436,1.122980202890322,5892.98203982044
1.44,1.1252726656783791,5908.625376098602
1.444,1.1312673993535687,5912.659473663728
1.448,1.1375952183731508,5904.894684126547
1.452,1.1398648237582991,5895.770964194406
1.456,1.1342175978998632,5902.538391187071
1.46,1.1187352959944254,5900.585728077821
1.464,1.09406569372059,5904.71558613491
1.468,1.0630742303421672,5902.981058771571
1.472,1.0297988189928564,5902.338244094245
1.476,0.9982097513450245,5903.309885427319
1.48,0.971246347082909,5913.124966447443
1.484,0.9504063226044434,5904.1656000292
1.488,0.9359068474759874,5893.082422929661
1.492,0.9272359416690087,5894.742014354414
1.496,0.92382830987899,5906.162678422058
1.5,0.9256000558461199,5902.9376547338725
1.504,0.9331175665000725,5901.951477514568
1.508,0.947271580913933,5887.446088987673
1.512,0.9685289070126,5896.695056179701
1.516,0.996117709305546,5905.43016623353
1.52,1.0276791181676266,5903.909718660528
1.524,1.0597350248836237,5902.926162769976
1.528,1.088779587615279,5893.189039806109
1.532,1.1123159045496593,5899.0595392778005
1.536,1.1291965278631722,5905.688637698995
1.54,1.1391753119339638,5905.81195226498
1.544,1.1421404871589738,5904.017260521962
1.548,1.1376205881998742,5904.967759967486
1.552,1.1248461868479052,5902.557832150572
1.556,1.1032488681595676,5908.298594009943
1.56,1.073052812798258,5897.127121936108
1.564,1.035637317120934,5903.084881939865
1.568,0.9935730343541395,5891.871672991941
1.572,0.9504630794726916,5903.8427586056605
1.576,0.9107020089095754,5909.41552374396
1.58,0.8790350687184016,5915.211926516527
1.584,0.8597051807196749,5907.865412876333
1.588,0.8552394224888029,5912.037372568181
1.592,0.8653555870084245,5901.877605998412
1.596,0.8866424735231252,5907.144746734492
1.6,0.9133635569762282,5900.134357888221
1.604,0.9391635354148883,5900.771735149179
1.608,0.9590272493014286,5901.822779517132
1.612,0.9707427175542379,5907.604605650585
1.616,0.9753048970760249,5896.433014233303
1.62,0.9760869074858447,5906.5008871792
1.624,0.9770899071942339,5891.765685468255
1.628,0.9809558690514467,5910.052209905633
1.632,0.9875286690188648,5905.253335251621
1.636,0.9935539815881066,5910.316960494041
1.64,0.9936750746484133,5908.299026677193
1.644,0.9823542849127267,5899.495972973748
1.648,0.9559673086629603,5894.088646766771
1.652,0.9142828267594557,5909.102449194777
1.656,0.8608725553305613,5902.348028889588
1.66,0.8024920740769674,5911.221598665031
1.664,0.7478182740427364,5901.120746776312
1.668,0.7059551084241036,5906.523720231024
1.672,0.6849370029799099,5903.631865019304
1.676,0.6903052172030464,5908.157485328794
1.68,0.7238410947586483,5901.760797846276
1.684,0.7826734996445562,5901.386811006699
1.688,0.8590832615360722,5905.450621826362
1.692,0.9412779510005137,5900.293830824907
1.696,1.0152032355572205,5910.810987497863
1.7,1.0671520570664967,5905.320012617749
1.704,1.0866079394402473,5903.969493203375
1.708,1.0685786653037046,5912.202251774681
1.712,1.014800512673294,5912.011423010485
1.716,0.9335515580326313,5914.12263792026
1.72,0.8381722840819321,5903.027006785224
1.724,0.7446370802832963,5906.326914131575
1.728,0.6686709567824255,5906.25461842771
1.732,0.6229473965244515,5916.357917099112
1.736,0.6148327843780477,5902.612109915197
1.74,0.6450632492345153,5909.464204314661
1.744,0.7076732774492932,5908.82698804913
1.748,0.7912768838514231,5909.952777177934
1.752,0.8813960025840677,5908.714103738368
1.756,0.9632141913171662,5910.811466947748
1.76,1.0241300542021774,5899.735142665578
1.764,1.0556879319623373,5907.844795110417
1.768,1.0546742562867977,5909.133648369327
1.772,1.0233092264686316,5908.7824103274215
1.776,0.9685294700590391,5911.185198757973
1.78,0.9004129498129307,5914.031259462345
1.784,0.8299562233394637,5915.920678610116
1.788,0.7666587032959071,5897.136456661677
1.792,0.7165257886862708,5908.193903441278
1.796,0.6810493559762638,5906.846152902679
1.8,0.6574872584390045,5903.169175716594
1.804,0.6404315516960744,5905.533358390586
1.808,0.6242753290743155,5911.792448980793
1.812,0.6057949732028572,5909.353961231256
1.816,0.5858256457683263,5906.181912202683
1.82,0.5692028792695099,5913.391670788411
1.824,0.562845827747835,5900.958142164909
1.828,0.5727228467559774,5898.408452504945
1.832,0.6009658915926995,5909.825846142841
1.836,0.6443493251664454,5901.091186494567
1.84,0.6947929064649578,5910.429379904522
1.844,0.7416955328212113,5903.044294929428
1.848,0.7751191988752214,5906.278384581855
1.852,0.7885591959164293,5907.464640677301
1.856,0.7803777608753395,5905.616530132101
