时间(s),电压(V),幅值(高频80K)
0.0,1.51052230294279,5899.665157248017
0.004,1.2875753601145132,5899.87939037645
0.008,1.087823280271866,5896.986931229101
0.012,0.9328964796069903,5893.115738816207
0.016,0.8384981687441383,5902.350825428276
0.02,0.8116340086486954,5906.137894854836
0.024,0.8491791807156643,5893.28869320357
0.028,0.9387008290901142,5903.955476645681
0.032,1.0614896117534172,5894.997455491354
0.036,1.1967384663936513,5891.160208916268
0.04,1.325486083659024,5898.034109380548
0.044,1.4332854612931143,5900.639015505692
0.048,1.51117917446622,5898.164232761056
0.052,1.555229449294154,5908.322959781604
0.056,1.5653445496345824,5901.470967034741
0.06,1.544184333063889,5910.508516379152
0.064,1.4964907996268075,5902.072091456432
0.068,1.4286341196642414,5895.49572419201
0.072,1.3479470572886405,5900.234071308881
0.076,1.261697928189163,5899.474160329132
0.08,1.1760070473798048,5889.857084290215
0.084,1.0951437169866047,5902.113149914525
0.088,1.0213567702889326,5890.2836452304045
0.092,0.9551018269443662,5895.627611785687
0.096,0.8955376697655697,5907.476291151627
0.1,0.8413024121495452,5897.767802683855
0.104,0.7915462444971675,5897.885107877458
0.108,0.7469481509899082,5902.310189737932
0.112,0.7102124849800494,5902.085983507595
0.116,0.6856378699006888,5904.022273540656
0.12,0.6778357481636136,5903.853214738872
0.124,0.6901933275508084,5902.802099815698
0.128,0.7237804655103048,5900.021442628567
0.132,0.7770534795668197,5898.918471342319
0.136,0.8462789493587775,5898.345830957404
0.14,0.9263656951916945,5898.301665284973
0.144,1.0117112160865693,5899.615736276183
0.148,1.0966987734772773,5905.042350371159
0.152,1.1757416547223103,5906.218511592986
0.156,1.2431890665774998,5903.940068047155
0.16,1.2936010930130788,5901.677836863296
0.164,1.322641220129915,5906.117962280844
0.168,1.3283245522773752,5906.587666616577
0.172,1.3119597801282357,5894.929734815665
0.176,1.2781073457777845,5896.222522766184
0.18,1.2333268024513935,5903.901232862225
0.184,1.1841551807566923,5904.062271471204
0.188,1.1351986095381272,5899.594651871536
0.192,1.0881960520621945,5898.3585016783245
0.196,1.0425204878242007,5900.399425415399
0.2,0.9969791327128278,5893.26812498701
0.204,0.9520961416428518,5898.073175649659
0.208,0.9116387731456936,5899.199989734446
0.212,0.8824094478005494,5897.922191804472
0.216,0.8722314565307,5895.899401323903
0.22,0.8869801790981725,5900.793480942631
0.224,0.9278910969165562,5906.737659032776
0.228,0.9901542011561045,5892.48736674721
0.232,1.0632602626958414,5902.005104224241
0.236,1.133021259018257,5900.477042169134
0.24,1.1848005235703791,5898.855318233831
0.244,1.2071907311106513,5898.257584156951
0.248,1.1951475523607267,5895.813793359892
0.252,1.1516217205860981,5909.721491489248
0.256,1.087153804772831,5901.832380312862
0.26,1.0175012571347584,5898.171441101933
0.264,0.9598788311397736,5898.46663857815
0.268,0.9287381909043182,5902.782044721984
0.272,0.9321983018850056,5903.287921025851
0.276,0.9701740132242246,5905.439641972474
0.28,1.0348354762050962,5895.4550533781885
0.284,1.1132866060181235,5911.805053382318
0.288,1.1914937531400338,5894.488232294876
0.292,1.2579944507393697,5902.962895409862
0.296,1.3061741817442756,5892.857337671483
0.3,1.3347216371540938,5900.845967903141
0.304,1.3466134326260684,5910.687003021433
0.308,1.347270615424954,5903.399375021665
0.312,1.34251089563683,5891.723793596162
0.316,1.3368261549002856,5904.657014873581
0.32,1.3323853412570952,5904.661228500834
0.324,1.3289445020937447,5900.567326928077
0.328,1.3245711251996926,5904.497166506508
0.332,1.3168690903233908,5898.937775633743
0.336,1.3042681818020787,5900.949356787742
0.34,1.2869146734238113,5902.839889936872
0.344,1.2668069357636593,5900.440742997052
0.348,1.2470509743216476,5890.4020322772985
0.352,1.2303970787220824,5907.823455905374
0.356,1.2175850243468607,5898.128122695286
0.36,1.2063936794186327,5898.096926461349
0.364,1.192238888653464,5899.922467928804
0.368,1.1703847680872173,5896.615354346614
0.372,1.1387537028808155,5897.127782928791
0.376,1.099809788509079,5900.437173706368
0.38,1.0604606437637851,5905.226928957378
0.384,1.0299757564712,5906.897896776716
0.388,1.0168677735927647,5901.887221113164
0.392,1.0260991933897032,5896.939159560997
0.396,1.0577362306133964,5899.365546819349
0.4,1.1073928113377751,5894.77177926728
0.404,1.1679161415125452,5907.208792558608
0.408,1.2313091211096854,5898.889538114185
0.412,1.2900924638181168,5897.955334284879
0.416,1.3379130600791191,5899.1969008222
0.42,1.3697360472178102,5899.486052939615
0.424,1.382110335112511,5899.786330312747
0.428,1.3737374838692087,5908.042007890012
0.432,1.346121911535025,5903.880985652098
0.436,1.3037983722315156,5904.912954618582
0.44,1.2537330631915082,5906.088304743116
0.444,1.20386391566,5889.72348750646
0.448,1.161115658747241,5901.068182324363
0.452,1.1294405339810478,5896.0030145916735
0.456,1.1085374937532433,5898.61923759491
0.46,1.0939269123284705,5905.668922513728
0.464,1.0787613186870573,5898.626960821104
0.468,1.0569077083057534,5900.038894519625
0.472,1.0259097018821095,5889.706978868819
0.476,0.9883462653129035,5890.041659108233
0.48,0.9510451546775314,5901.2426856264765
0.484,0.9227468698706394,5898.296748896363
0.488,0.9113162118599244,5897.524037455613
0.492,0.921438791393781,5896.505129597926
0.496,0.9533651800070445,5898.939564790928
0.5,1.0029219614292035,5890.026795530354
0.504,1.0626608548958834,5900.680958078588
0.508,1.1237079005812376,5897.970420036803
0.512,1.1777717679023427,5904.799403886017
0.516,1.218864084227705,5901.618468952612
0.52,1.2444263100975912,5895.720591463224
0.524,1.2557255981069395,5899.2805238603005
0.528,1.2575658615678786,5902.972178398925
0.532,1.2573991039326546,5897.343793925244
0.536,1.2637817594582017,5906.521453136467
0.54,1.2840900560817798,5909.490296729791
0.544,1.3217859556140035,5899.3715016675815
0.548,1.3741921382055915,5892.585397476814
0.552,1.4320902969556295,5898.599729805391
0.556,1.4819255916451886,5902.5103687392975
0.56,1.5101186263073572,5905.462021499402
0.5640000000000001,1.50778840844117,5903.206715774982
0.5680000000000001,1.4738695929311796,5904.886354273046
0.5720000000000001,1.4153602086819304,5903.363526114456
0.5760000000000001,1.3448036956628064,5903.782762093571
0.58,1.2762687420275198,5905.58673463799
0.584,1.2214314482744064,5895.638707192752
0.588,1.186939617515309,5898.970846357662
0.592,1.1735617597752528,5900.815074135448
0.596,1.1770588758633849,5911.38212632656
0.6,1.1902736624961956,5900.964005453231
0.604,1.2056207100400973,5903.868513854734
0.608,1.2171675482766495,5904.801245650678
0.612,1.2218384200122483,5900.805110360984
0.616,1.2196508771658063,5899.887295938031
0.62,1.2130807253588505,5900.631289981241
0.624,1.2057653074291108,5892.108676335119
0.628,1.200966496379508,5900.352244261623
0.632,1.2003764435612738,5899.175044094711
0.636,1.2037102680697984,5906.112443604069
0.64,1.2091269005518301,5901.580010324305
0.644,1.2141184659097133,5904.182318192455
0.648,1.2163338192331987,5897.487738850454
0.652,1.2139428504044745,5903.835401503589
0.656,1.2055350796727318,5899.045239834548
0.66,1.1899261646869679,5887.230123059704
0.664,1.1663081465407006,5902.195194245713
0.668,1.1348150086215467,5893.710105597231
0.672,1.097068764671017,5903.972386128764
0.676,1.0561289229439164,5898.806899566544
0.68,1.015693201400985,5895.362127867851
0.684,0.9790153485292098,5893.795990432602
0.6880000000000001,0.9482460402440798,5897.801212355559
0.6920000000000001,0.9245613723247247,5910.85090854562
0.6960000000000001,0.9088314040891298,5895.505961298397
0.7000000000000001,0.9022240206584311,5895.231312371953
0.704,0.90629418897997,5900.710553916861
0.708,0.922518302063329,5907.546928996355
0.712,0.9514807488307118,5898.285043912673
0.716,0.9919655560187962,5904.970007620926
0.72,1.0402728813051492,5891.941999719364
0.724,1.0901403690495357,5911.739155787012
0.728,1.1334860465291197,5892.405886439645
0.732,1.1618497749925574,5899.754131113808
0.736,1.1681692856372126,5897.909491492776
0.74,1.1485007526737476,5901.937339268176
0.744,1.1033459453256915,5905.047220891048
0.748,1.0382263914536307,5898.866677354307
0.752,0.9631343689839087,5912.972955114558
0.756,0.8907346364866066,5898.415591081314
0.76,0.8336964235704346,5898.217383571291
0.764,0.8019593790189528,5899.032733383448
0.768,0.8007588145410302,5903.226186538827
0.772,0.8298437767068773,5900.673110468297
0.776,0.8837875676408519,5907.5665514339
0.78,0.9530095111924424,5901.151372130037
0.784,1.0252992654640427,5895.076470329284
0.788,1.0879698849341342,5896.365821229736
0.792,1.130709849014308,5893.830463742976
0.796,1.1485974174965892,5908.259175146452
0.8,1.1440956051579825,5897.614230596215
0.804,1.126842306185003,5894.808681621862
0.808,1.110844838802114,5903.744848797355
0.812,1.1098354351026727,5913.985474135788
0.8160000000000001,1.1324307889962055,5901.547959013232
0.8200000000000001,1.1789307468209513,5903.3200045005005
0.8240000000000001,1.2409780364531375,5895.90293105266
0.8280000000000001,1.3041647039578188,5897.573296394417
0.8320000000000001,1.3525368710353047,5900.693654266175
0.836,1.373302584449867,5906.471860184521
0.84,1.360165646335051,5894.643100377959
0.844,1.3144960865489268,5893.315170726115
0.848,1.2444856900009431,5900.98936066341
0.852,1.1629972801023256,5900.777421752893
0.856,1.084896778354193,5896.601811428679
0.86,1.0244337675342463,5908.32510045546
0.864,0.9928991099197216,5901.653383936124
0.868,0.9965933876145061,5902.078926351487
0.872,1.035296429311619,5904.3380714596615
0.876,1.1017421406590002,5900.296842039643
0.88,1.182623404792542,5905.862035874697
0.884,1.2612469165717441,5895.110273954689
0.888,1.3214015688249003,5896.588710162238
0.892,1.3515480847090762,5897.459248214092
0.896,1.3481357899535331,5894.366521400319
0.9,1.3168019459116262,5909.35189001161
0.904,1.2706752822334857,5895.449979914699
0.908,1.2260700147535295,5898.447362356828
0.912,1.1970373808903907,5898.37782621559
0.916,1.1907878219381447,5897.859293028332
0.92,1.2055937578222762,5898.448700416785
0.924,1.231764117081921,5904.784369010284
0.928,1.2552047628422376,5894.592437995773
0.932,1.2623026367026593,5896.182291544038
0.936,1.2445280678014097,5898.060338133623
0.94,1.2013000991014853,5899.659045489854
0.944,1.1402826543853142,5900.3748211557495
0.948,1.075129372852732,5903.996962243503
0.952,1.0214225827414807,5910.625468903579
0.956,0.9920108785044598,5906.296633740297
0.96,0.9931236673111187,5899.733851010885
0.964,1.0224125813024552,5898.661631523537
0.968,1.0694347022193202,5903.428876046458
0.972,1.1183572986538888,5905.554737405443
0.976,1.1521146867632945,5893.562688372518
0.98,1.1569166169269929,5895.856124503349
0.984,1.125919028121558,5897.745375991486
0.988,1.0611329387064403,5900.025962789822
0.992,0.9731655127810136,5905.253540792947
0.996,0.8788592144895061,5899.843222980547
1.0,0.7972657306967935,5894.718782030634
1.004,0.7448569011314001,5896.776558573001
1.008,0.7313291541363401,5898.561920808365
1.012,0.7573304345335398,5895.079818178976
1.016,0.814761954665442,5892.7544082876
1.02,0.8894060755160813,5902.753879896532
1.024,0.9649723664085861,5896.598580387617
1.028,1.02733130282119,5899.0382319154405
1.032,1.0677227377037701,5895.923702597691
1.036,1.0841645654825072,5897.636135354483
1.04,1.0809839494123636,5904.465547966285
1.044,1.0669328825986037,5899.770490444522
1.048,1.0525333697165256,5897.908559698514
1.052,1.0472952821618635,5900.735327307371
1.056,1.057451137435918,5899.696299390307
1.06,1.0848136810590152,5893.390988738426
1.064,1.1271005052744185,5893.586987513895
1.068,1.17948934972936,5896.4310731267005
1.072,1.236507314717174,5899.162149917495
1.076,1.2932146852340702,5889.478017314889
1.08,1.345366807464043,5897.450641743459
1.084,1.3892297153161446,5897.98223971277
1.088,1.421938861887076,5904.510600029568
1.092,1.4425110681004842,5901.039141078468
1.096,1.452714958048573,5904.791970005392
1.1,1.4568780587879384,5904.337001622587
1.104,1.4604231883092613,5894.255526353516
1.108,1.4678089421685,5891.306811193515
1.112,1.480898585831689,5905.792300908698
1.116,1.4984476161499303,5899.7402007722685
1.12,1.5167363301953827,5897.934318937964
1.124,1.5308416939241565,5899.291293747077
1.128,1.5359398747065314,5902.615478548717
1.132,1.5283217382329262,5899.437910804877
1.136,1.5061212321350488,5899.437835873378
1.14,1.469789091267661,5906.861893605146
1.144,1.42219353748842,5901.876805176454
1.148,1.3682054590459398,5893.611421066185
1.152,1.3138063365498684,5884.981237959162
1.156,1.264943296110306,5900.333471783285
1.16,1.2263787057267281,5901.563410852998
1.164,1.2007036906551154,5901.9923121702095
1.168,1.187681619452229,5901.598570748067
1.172,1.184196228176787,5900.89043675459
1.176,1.1850912650689016,5903.473845734695
1.18,1.1848467353604797,5902.252798127121
1.184,1.1794404031939654,5910.6256702714045
1.188,1.1674690995786294,5895.893963544752
1.192,1.1500987195521009,5900.789415123309
1.196,1.1302654271631891,5899.693146540719
1.2,1.1118471042436975,5902.354918327383
1.204,1.0990381924079462,5897.657874406237
1.208,1.0956761825603092,5906.870127574758
1.212,1.104412965602253,5893.80997603005
1.216,1.1260161920789296,5895.749500475302
1.22,1.1591101777520942,5903.4486158657655
1.224,1.2003988828874552,5900.1185536986
1.228,1.2452205527538842,5903.633808650908
1.232,1.2882444024569588,5900.859388289439
1.236,1.3242101511370044,5902.559608273526
1.24,1.348771168800942,5906.3460000566
1.244,1.359480817133855,5890.2124348433845
1.248,1.3566355343507215,5912.545976269315
1.252,1.3433915456205956,5892.247944686177
1.256,1.3247439417693747,5897.492609978329
1.26,1.3055731358316474,5901.856869559581
1.264,1.2885576814698296,5896.110254800011
1.268,1.272921676522371,5903.770908252848
1.272,1.2546724219554062,5900.695128175488
1.276,1.2283733707461055,5908.878107366826
1.28,1.1898531403757011,5908.2704762543335
1.284,1.1388147744015886,5900.731426461478
1.288,1.08026009736105,5906.107957931118
1.292,1.0240541963726104,5890.017903606162
1.296,0.9826444189297422,5895.864113953056
1.3,0.967556273648076,5904.363429916117
1.304,0.9856434200551502,5899.3822613222765
1.308,1.0362394462615399,5900.416057207458
1.312,1.1103053861739816,5899.409057903444
1.316,1.1921831134660272,5897.787000830606
1.32,1.263639903852113,5894.084091728231
1.324,1.3089090691143632,5902.426437844305
1.328,1.318962370818058,5897.396455708897
1.332,1.2936100552164846,5897.2129469007305
1.336,1.2409626524893618,5903.969807551573
1.34,1.1746842010261533,5904.958313684213
1.344,1.1099660611154583,5893.283600931137
1.348,1.059371013379917,5901.016394879547
1.352,1.0297326083728915,5904.199770030769
1.356,1.0209875352771098,5905.461580790515
1.36,1.0271748520247694,5895.512978971986
1.364,1.039177292028219,5896.186287520596
1.368,1.0483162988532437,5895.041637352407
1.372,1.049616839298321,5904.441670579297
1.376,1.043562103536681,5895.430265522658
1.38,1.0357064472365263,5900.405027119449
1.384,1.0344236908884854,5903.647125962086
1.388,1.0477756806690535,5902.401007975423
1.392,1.0806639421194693,5905.752938668903
1.396,1.1331593479067021,5902.177089037871
1.4,1.2004069141412557,5891.9791365306055
1.404,1.273941448390783,5903.843528887722
1.408,1.3437547783454358,5901.071565366879
1.412,1.400219692674544,5909.307893898422
1.416,1.4352541875829627,5898.393531131051
1.42,1.4428594003974102,5900.39282577807
1.424,1.419747367880268,5897.488834995763
1.428,1.3665197999398153,5898.46489459554
1.432,1.2889509588735069,5909.598642868128
1.436,1.1982538759376822,5897.852737489216
1.44,1.1094098389823048,5896.944797323336
1.444,1.037636881937757,5901.881567264205
1.448,0.9942370897544517,5904.686277006389
1.452,0.9836165176521643,5898.969172163879
1.456,1.0027936448717691,5904.095040802196
1.46,1.0434641933593392,5909.528628767961
1.464,1.0954425184987573,5907.250287221688
1.468,1.1498027534801014,5900.63139037034
1.472,1.200517339696875,5903.4255249735215
1.476,1.24439358698182,5895.1545701091245
1.48,1.2799410372364108,5889.759755228934
1.484,1.3060906905352814,5901.547221557121
1.488,1.3214991991303704,5901.285088297069
1.492,1.3247225696028524,5892.795967066763
1.496,1.3150686998304082,5901.304769123872
1.5,1.293653966818628,5903.649059195455
1.504,1.2641404898311925,5903.006055130725
1.508,1.232716737559306,5898.481606681268
1.512,1.2070651295321235,5905.812716836616
1.516,1.1943874357116817,5901.843823187203
1.52,1.1990189273675758,5902.145160393545
1.524,1.2205413510467418,5908.44551113671
1.528,1.2532820725473706,5902.909839183955
1.532,1.287552745154126,5902.7782162885815
1.536,1.3122142502279859,5906.166797782369
1.54,1.3176169844977195,5901.955628206508
1.544,1.297917558694271,5901.461153596583
1.548,1.252122566480503,5905.422181589069
1.552,1.1837201095874998,5902.84219755479
1.556,1.099268516728491,5895.3148473274605
1.56,1.006679542510382,5901.699258839789
1.564,0.9139339865771636,5894.38506341668
1.568,0.8284950433018556,5903.682876234824
1.572,0.7570744139864917,5896.070897530092
1.576,0.7052138581130484,5905.289709891655
1.58,0.6765056059813561,5907.118424407664
1.584,0.6717705899416849,5902.069431043668
1.588,0.6886958170298425,5906.592531939199
1.592,0.7222384373520321,5910.291528758421
1.596,0.7657452702531234,5905.357251820855
1.6,0.8124075171544551,5898.598583536601
1.604,0.8565206059043545,5904.373265755536
1.608,0.8941885186390696,5895.947246025654
1.612,0.9235188992738906,5911.5504195051935
1.616,0.9446368395091326,5903.29815350195
1.62,0.9597315609977538,5904.853878125534
1.624,0.972967505924114,5907.493538208851
1.628,0.9898358052801548,5912.108038477794
1.632,1.015703777349302,5909.376430714781
1.636,1.053864306651611,5900.775372255734
1.64,1.10386523604931,5900.132561491128
1.644,1.1609324129533065,5895.694533427791
1.648,1.2168825819087132,5908.138190013174
1.652,1.2623170595954256,5894.813708873941
1.656,1.2893621032676155,5914.26594392144
1.66,1.2939621609753658,5900.228745152573
1.664,1.2768601835756719,5902.584138011541
1.668,1.2429099119923672,5896.814898946138
1.672,1.1990403686948838,5904.770994268366
1.676,1.1517071788226467,5910.144396202317
1.68,1.1048083946977556,5908.003098015565
1.684,1.0587911076774619,5898.190954709459
1.688,1.0111510540851123,5901.2577494755005
1.692,0.9579816361575734,5903.324103104361
1.696,0.8959327891124585,5897.824807328167
1.7,0.8239648849062201,5903.594767581376
1.704,0.7444632967194618,5914.321058387203
1.708,0.6634483276408375,5905.33233913028
1.712,0.5897697068684764,5898.428184816586
1.716,0.5333873920109818,5899.213382406127
1.72,0.5031142151537159,5904.821630961069
1.724,0.5044340544520117,5906.081771921236
1.728,0.5380751847592828,5909.120543400705
1.732,0.5998209243483238,5897.550602027379
1.736,0.6816180061579797,5904.142714919397
1.74,0.7735874588610848,5907.725565712478
1.744,0.8662502396762496,5900.965644435501
1.748,0.9522187343527941,5903.624824370039
1.752,1.0268014299565753,5904.34245795536
1.756,1.0874409176726074,5897.333289503448
1.76,1.1324801617908173,5896.799816318805
1.764,1.160076392538288,5899.013151752846
1.768,1.1679639405215627,5892.490374447342
1.772,1.154305141255552,5903.920935392097
1.776,1.1192673524387888,5898.809267194971
1.78,1.066486516248912,5911.890483158503
1.784,1.0035352420005068,5903.524989273691
1.788,0.9409592362084069,5895.383204339691
1.792,0.8900421849061875,5901.542489987076
1.796,0.8599006689102981,5911.744562178089
1.8,0.8547972307653064,5898.179089078267
1.804,0.8726782453187178,5906.73975779663
1.808,0.9056697493747062,5902.959749947223
1.812,0.9425240373667095,5905.172428341714
1.816,0.9721559329428471,5906.898261556693
1.82,0.9869525639117218,5902.857598501466
1.824,0.9847319365394466,5908.076247875165
1.828,0.9688714323542807,5912.501224297498
1.832,0.9467699589388953,5904.136459093139
1.836,0.9271704169363563,5907.290322622221
1.84,0.9170604846545414,5907.980895963367
1.844,0.9190372618569682,5912.524578909239
1.848,0.930038080448411,5900.078114596076
1.852,0.9419963466475525,5904.051233991555
1.856,0.9443094683390353,5902.032112735752
1.86,0.9273139881793689,5912.462681725629
