时间(s),电压(V),幅值(高频80K)
0.0,1.2490447845234292,5900.41511979436
0.004,1.0924095367917732,5905.397743267309
0.008,0.9572215014981154,5898.67024677952
0.012,0.8603738672356583,5899.030556552624
0.016,0.8115330805360872,5903.909438196978
0.02,0.8116529291802833,5904.981446675234
0.024,0.853387959581533,5900.040287480693
0.028,0.9231281935222508,5904.373770134882
0.032,1.0039344673233241,5905.451902864499
0.036,1.0786834667208534,5901.327368134643
0.04,1.1330290955056943,5897.280503487404
0.044,1.157913304905783,5897.492825584518
0.048,1.1512006390575515,5902.4109518001615
0.052,1.117873410725791,5911.371450325625
0.056,1.068455522421941,5891.842349846065
0.06,1.0159532861491531,5906.861480324442
0.064,0.9722561938517881,5898.299840344476
0.068,0.9451860852657399,5900.456549130015
0.072,0.9370704981952809,5902.811079870348
0.076,0.9450755029778969,5901.478058970937
0.08,0.9629176231368424,5915.716319557121
0.084,0.9832205743132252,5904.07972097524
0.088,0.999748209541466,5899.718262302143
0.092,1.0089302135716052,5895.06879242396
0.096,1.010374318868134,5895.6653452981645
0.1,1.0063793646242767,5904.669778952858
0.104,1.0007544606794119,5903.9690143401385
0.108,0.9973765570564003,5896.832888776391
0.112,0.9988794684421466,5903.017945350868
0.116,1.0058097840665807,5894.423469415666
0.12,1.01653651924217,5892.339636785907
0.124,1.0279964506884496,5908.910890632968
0.128,1.0369540309188665,5900.675816246706
0.132,1.0411487748689503,5902.876171719278
0.136,1.0398180045303884,5897.321997927932
0.14,1.0335313699245077,5901.609410180368
0.144,1.0236473758911346,5895.717088587049
0.148,1.0117559271014938,5906.10643847932
0.152,0.9993122161494322,5907.264483928127
0.156,0.987500528462299,5907.599365259743
0.16,0.9772557388111278,5898.362390663859
0.164,0.9693023604973855,5897.608001883465
0.168,0.9640836624681856,5892.383872950043
0.172,0.9615775260953041,5895.351013101576
0.176,0.9611486295282489,5899.750168815999
0.18,0.9616196921739931,5904.645658824125
0.184,0.9616053162615549,5899.794499474608
0.188,0.9599685022722613,5903.150616880355
0.192,0.9562008472759955,5886.703955198899
0.196,0.950595797691038,5898.645643509635
0.2,0.9441725918948578,5901.655472471609
0.204,0.9383891986449087,5896.030431120462
0.208,0.9347640417511276,5895.238644020056
0.212,0.9345448711436934,5905.48113354705
0.216,0.9384984469076484,5894.894491089686
0.22,0.9468259778554159,5896.986407830858
0.224,0.9591656182201292,5893.271904402897
0.228,0.9745967290528026,5904.430388136561
0.232,0.991554333232827,5910.007622702145
0.236,1.0076662365446116,5903.289643318198
0.24,1.01970128172655,5894.954456977999
0.244,1.023909895835553,5891.391094853071
0.248,1.0169071289310896,5900.071887731302
0.252,0.9969313168731233,5900.738655264711
0.256,0.9650222478496969,5899.397827670886
0.26,0.9255876626953191,5900.455739819157
0.264,0.885979724921945,5892.000647747347
0.268,0.8550074190579936,5899.38731578015
0.272,0.8407126145149227,5907.132840927603
0.276,0.8481245437342912,5905.949270442801
0.28,0.87781903501203,5896.977910399953
0.284,0.9257584850965963,5901.808396984446
0.288,0.9842910305739943,5895.481195714501
0.292,1.0438119656129727,5900.146669575716
0.296,1.0946227287406174,5901.040629582005
0.3,1.1287150298955602,5908.453075159456
0.304,1.1412839277151936,5894.079419346774
0.308,1.1317196599610584,5898.596535353479
0.312,1.1037890872745861,5900.372597887444
0.316,1.0648250316332666,5893.978784686074
0.32,1.0240167641060143,5899.570482463065
0.324,0.9902190216312907,5895.839914918547
0.328,0.9699049383204784,5899.441290107799
0.332,0.965881885171353,5898.645130868713
0.336,0.9771499938957138,5898.541167051368
0.34,0.9998786929084994,5892.607371940404
0.344,1.0290728913373615,5906.516076404275
0.348,1.0602627324134997,5902.023215157167
0.352,1.0905519861034212,5896.605644943065
0.356,1.118629148392879,5907.4837639226025
0.36,1.143854139753655,5896.686968459586
0.364,1.1650532415766865,5896.033147719458
0.368,1.1798119769347009,5903.883395247791
0.372,1.1847005020271948,5904.668842394543
0.376,1.1762967918823868,5898.206146575695
0.38,1.1525225325526698,5899.975764255858
0.384,1.1137819061993925,5896.753024170625
0.388,1.0635144862424375,5895.426360224641
0.392,1.0079424273322681,5900.84612964428
0.396,0.955039756966146,5898.363236169494
0.4,0.9130135626670752,5902.62241906384
0.404,0.8887182442872129,5893.823910541903
0.408,0.8863829348207962,5897.801978180564
0.412,0.9068762978247783,5897.666214050703
0.416,0.9475435187248646,5905.345726616597
0.42,1.0025444778075367,5899.314270205721
0.424,1.0636611118926378,5908.088585067342
0.428,1.1215980866407715,5907.821877586234
0.432,1.1676947376710887,5895.040586129568
0.436,1.1957125336125383,5897.027487110636
0.44,1.2031487054147834,5897.828614957107
0.444,1.1915301173064037,5903.243430778591
0.448,1.165444790119052,5905.004729721341
0.452,1.1306098308261132,5896.529697313169
0.456,1.0917753997438928,5907.063009054202
0.46,1.0513595453619753,5895.391202132377
0.464,1.0092909878531622,5895.820648298198
0.468,0.9639039462379693,5895.592312063804
0.472,0.9133173122204064,5902.707552557169
0.476,0.8567460774078611,5896.116363549932
0.48,0.7954845237176857,5910.816960949237
0.484,0.7335205615221705,5902.752311757685
0.488,0.6776727214930995,5893.142297789771
0.492,0.636936089886796,5898.82271437753
0.496,0.6207578746928595,5902.553995617857
0.5,0.6364177616667746,5896.625476877974
0.504,0.6863067635922202,5907.652300886789
0.508,0.7662053196809872,5905.674644615885
0.512,0.865390590113956,5901.05198752895
0.516,0.9687036788340784,5892.186418979732
0.52,1.0599804586879782,5900.460863557529
0.524,1.1258237853183775,5896.852225053851
0.528,1.1586520516023437,5895.923344962774
0.532,1.1582074203203794,5904.166267954002
0.536,1.1311428898780747,5896.920708290586
0.54,1.0888552468922958,5906.332797543952
0.544,1.0442544092123356,5897.895334634736
0.548,1.0084499999692569,5898.474597480193
0.552,0.9882720441359601,5901.466630264641
0.556,0.9851820155491553,5886.843113539107
0.56,0.9956259570269047,5904.45567847444
0.5640000000000001,1.0124374041478545,5904.561614147635
0.5680000000000001,1.0267265730132216,5897.951866157001
0.5720000000000001,1.0298271899886753,5895.310779765957
0.5760000000000001,1.015102480588935,5898.615469659922
0.58,0.9794910218737061,5895.7343485879765
0.584,0.9245500253654602,5905.548889384522
0.588,0.8566225863798489,5897.122309816446
0.592,0.7858675825371677,5905.574400014017
0.596,0.7242562622855535,5904.028051685974
0.6,0.6830079316738281,5898.548980176325
0.604,0.6700985886040187,5906.13885696228
0.608,0.6884285819371486,5902.439728744067
0.612,0.7350654757728021,5895.066290343262
0.616,0.8017495205036858,5895.744635845854
0.62,0.8765923668077231,5901.84767019518
0.624,0.9466218643002711,5896.002805510444
0.628,1.0005752516586481,5905.501451873684
0.632,1.0312454910720257,5904.813173397243
0.636,1.0368077697485616,5906.462189584956
0.64,1.0208261094193716,5898.2024096720925
0.644,0.9909741289248913,5903.560752255646
0.648,0.9568243584989278,5896.431933476783
0.652,0.9272810373635353,5889.163220508412
0.656,0.9083275854042321,5904.750691020382
0.66,0.9017237496158911,5897.7766215689735
0.664,0.9050347560216011,5902.1667224312005
0.668,0.9129156171287652,5897.334929799905
0.672,0.9191463385430894,5888.333862304487
0.676,0.9187608774869297,5900.389760602379
0.68,0.90972786490515,5892.493970004445
0.684,0.8938248398329252,5902.947117499791
0.6880000000000001,0.8764736544504692,5902.942190239719
0.6920000000000001,0.8654542713479899,5899.829642284955
0.6960000000000001,0.8686982936645872,5907.401246438655
0.7000000000000001,0.8917273501777913,5903.190582941949
0.704,0.935577825000317,5902.082748785398
0.708,0.9960454222516707,5896.355723960501
0.712,1.0646294470104145,5900.290415135046
0.716,1.1307917903314202,5906.626606583457
0.72,1.1845842406346847,5898.790604029344
0.724,1.2187368928159386,5909.074491989829
0.728,1.229766231809273,5899.402212387243
0.732,1.2181040042164826,5904.483789454981
0.736,1.18748003441531,5889.979026804702
0.74,1.143890959463995,5902.672731213677
0.744,1.0944887997643213,5898.575671479412
0.748,1.046609158983348,5901.115529742367
0.752,1.0070050413439042,5898.410780862923
0.756,0.9812630462721983,5904.736278880411
0.76,0.9733474305760388,5902.054984904471
0.764,0.9851810374465677,5898.482558963701
0.768,1.0161569528780907,5895.125791547305
0.772,1.0626039445892477,5895.475950129548
0.776,1.1175162178747098,5894.475350416488
0.78,1.1710556724746417,5898.270547357129
0.784,1.2121548482387936,5893.849482843152
0.788,1.231023872360839,5911.261327499763
0.792,1.221833093586496,5901.472896363006
0.796,1.1846182275615411,5901.114198281472
0.8,1.1256358964615343,5887.36816248466
0.804,1.0559025262384825,5891.367213853512
0.808,0.9882925319508018,5902.250826984049
0.812,0.9341337851294389,5900.221299682738
0.8160000000000001,0.900483814555182,5904.559639971159
0.8200000000000001,0.8889853907023005,5895.1923172688375
0.8240000000000001,0.8964498807165654,5903.977075842854
0.8280000000000001,0.9165809925564431,5907.065494711152
0.8320000000000001,0.9420021746748898,5898.77097087146
0.836,0.9659706712379311,5897.229422692539
0.84,0.9835008071175091,5898.916846820077
0.844,0.9918603118394962,5898.271164422378
0.848,0.9905488770260298,5901.555938438516
0.852,0.9809404390502797,5907.883556755974
0.856,0.965755260407581,5899.09805531495
0.86,0.9484531020684158,5905.364312542214
0.864,0.9325755598967805,5903.166653470132
0.868,0.9210625601207817,5904.828135586851
0.872,0.9156261896063548,5900.383266898394
0.876,0.9163470113913179,5899.407735885547
0.88,0.9217000592218987,5899.718387204826
0.884,0.929146192855775,5905.644340388611
0.888,0.9361988330770914,5890.026212467531
0.892,0.9415664978749698,5889.951629470058
0.896,0.9457900856642172,5896.603249001695
0.9,0.9509562952412867,5900.843457157361
0.904,0.9595457078963595,5911.717863583477
0.908,0.9729553776672951,5898.04681286634
0.912,0.9904235764722005,5895.114838723168
0.916,1.0089094865668253,5902.632569726812
0.92,1.0240261534463937,5902.371298064914
0.924,1.0315803436242488,5898.421077732118
0.928,1.0289595722390128,5897.985389628462
0.932,1.0157776971268064,5899.516305548043
0.936,0.9937263154397912,5913.545455086646
0.94,0.9660140408554251,5897.201076890809
0.944,0.936760939764107,5896.493315900083
0.948,0.9104141260156168,5903.273241876241
0.952,0.8910872073897941,5901.163669926104
0.956,0.88182495527387,5904.392261561403
0.96,0.8839408700899015,5902.623429731399
0.964,0.8966176499554878,5900.489297553555
0.968,0.9169376250304495,5898.922861889456
0.972,0.9404513047023451,5901.499673170672
0.976,0.96223454795974,5898.6428256844265
0.98,0.9781272664035542,5904.272289134297
0.984,0.9856729136731683,5897.529223871973
0.988,0.9844009955231612,5892.78078045521
0.992,0.9754669743424832,5901.790191456566
0.996,0.9609821351941983,5898.611437508114
1.0,0.9434107652348236,5899.368660183698
1.004,0.9252480700276785,5909.874012706461
1.008,0.9089937656419739,5905.315729710836
1.012,0.8972736293446071,5901.711123425884
1.016,0.8928415539976721,5899.101294751043
1.02,0.8981940736166198,5895.755551576939
1.024,0.9147458387047395,5904.782148902001
1.028,0.9418717928541849,5902.014595609026
1.032,0.9763415988516937,5892.812930879047
1.036,1.01255338523488,5899.49166034978
1.04,1.0436261452836195,5894.700670389549
1.044,1.0630872323901097,5901.37713541801
1.048,1.066695092028685,5904.449701600724
1.052,1.0538396036280726,5896.283661453698
1.056,1.0280027343105516,5901.005794086662
1.06,0.9960182681950795,5896.4936640986025
1.064,0.9662922141379082,5908.426553144887
1.068,0.9465428497487386,5902.587720218276
1.072,0.9417795477241963,5904.762996443372
1.076,0.9530897023304713,5890.1265812941865
1.08,0.9774803052852595,5899.655555317469
1.084,1.0087284193587438,5897.58751533194
1.088,1.0389932971248792,5901.556005008409
1.092,1.0607710060561393,5898.437590389529
1.096,1.0686512355093034,5898.108594853722
1.1,1.0604113641467132,5900.790831986671
1.104,1.0372920234310639,5899.361697787562
1.108,1.0036055099505259,5907.863868001822
1.112,0.9658882478403984,5898.548787666919
1.116,0.9317190099165337,5899.882359904032
1.12,0.9083343380770706,5891.977993398772
1.124,0.9012623577664743,5891.409028782625
1.128,0.9132027121647079,5903.668278618936
1.132,0.943331782884505,5895.318345664735
1.136,0.9872051158465152,5901.240002242147
1.14,1.0374158210506732,5911.453907183067
1.144,1.0850602119559627,5903.049026824735
1.148,1.1218203367728983,5901.344299807056
1.152,1.1421296283619842,5901.183861671791
1.156,1.144656530044789,5897.753520353383
1.16,1.13250566438477,5911.914644009456
1.164,1.1120879283511445,5899.540667502569
1.168,1.0911711319803554,5903.056509639888
1.172,1.0768182630756826,5899.879615792468
1.176,1.0737460810634065,5903.478097011317
1.18,1.0833729134643078,5906.571790460429
1.184,1.1036542393108089,5902.18709994037
1.188,1.1296768986725887,5906.280858864018
1.192,1.1548383555062802,5908.191723650136
1.196,1.1723261346342544,5903.302433812217
1.2,1.1765644359339578,5899.548478147757
1.204,1.1643019670358248,5902.2606925959935
1.208,1.135122265394366,5909.460357772218
1.212,1.0913751417332722,5896.928880255015
1.216,1.037710232534632,5898.909330260567
1.22,0.9803917639872911,5894.32668916013
1.224,0.9264630117552138,5896.13936649069
1.228,0.8828109249900709,5901.659686167875
1.232,0.8552667764042899,5891.86344667482
1.236,0.8478836014806045,5904.031141731735
1.24,0.8624064042934954,5898.307118247309
1.244,0.8978747672695315,5899.815917969227
1.248,0.9503978126740205,5908.071238358136
1.252,1.013311960567737,5897.998652841383
1.256,1.0779599040850496,5901.76218852923
1.26,1.1351259935081446,5902.5434804238175
1.264,1.176847155558982,5911.496041049582
1.268,1.1980824646999109,5900.302226443239
1.272,1.1976834434239603,5889.2549539635365
1.276,1.1783076431157917,5902.568130582616
1.28,1.1453274819625594,5902.828897731311
1.284,1.1051922656890965,5897.897466173011
1.288,1.063841966403309,5896.597636240515
1.292,1.0256197708119874,5899.586653770148
1.296,0.99286212656409,5898.511519529952
1.3,0.9660970840977954,5890.793347108549
1.304,0.9446232066705736,5906.734226852183
1.308,0.9272205580499137,5905.563578885364
1.312,0.9128104545522212,5898.456855503507
1.316,0.9009253787666196,5895.949985935925
1.32,0.8918836501425822,5899.078444752223
1.324,0.8866545577395218,5895.063719577741
1.328,0.8865144894686913,5911.457049178216
1.332,0.8926418728479479,5897.380578962965
1.336,0.9057559525512027,5893.704292449431
1.34,0.925832345147272,5899.492450259955
1.344,0.9519126015397644,5908.288649026537
1.348,0.982074737780895,5895.102599565345
1.352,1.0136470784783995,5898.847281060308
1.356,1.0436550093586168,5908.549308077348
1.36,1.0693525074417953,5903.898815904572
1.364,1.0886421210188726,5896.014085234606
1.368,1.1002897124725723,5902.345100900488
1.372,1.104000649952771,5894.662241742913
1.376,1.1004793749408144,5909.223395978666
1.38,1.0914821770860632,5902.731101916502
1.384,1.0796905509717702,5900.174207268215
1.388,1.0681669281987207,5905.518810799776
1.392,1.0593466050134013,5908.320946605493
1.396,1.0539051137777107,5906.729336990439
1.4,1.0501307256499355,5905.333686383639
1.404,1.0443275253719646,5890.030720292403
1.408,1.0322654335864434,5895.55940899766
1.412,1.011132516077722,5907.513917885792
1.416,0.9811953606840084,5904.250017735656
1.42,0.9464573795226098,5899.6093501700425
1.424,0.9139000309807198,5900.73325370729
1.428,0.8914220482351768,5905.375679407313
1.432,0.8852626052262815,5900.052731632863
1.436,0.8980360961649277,5909.011986700268
1.44,0.9281301784727319,5903.134551692135
1.444,0.9703900170017165,5902.12747037607
1.448,1.0174379023597504,5896.832179021813
1.452,1.0610479365376988,5900.970596277307
1.456,1.0934255446319103,5901.8416076073145
1.46,1.108504266722855,5894.07113547045
1.464,1.103275377527294,5898.40763688146
1.468,1.0788820561815553,5903.838807929604
1.472,1.040987857726658,5900.978560699245
1.476,0.9989601307682138,5902.068175333104
1.48,0.9637733899102487,5896.570661077719
1.484,0.9451167902746208,5901.677451862209
1.488,0.9486757094578212,5903.612590748187
1.492,0.9746124140913367,5897.804211521529
1.496,1.0177813632767692,5897.467266504143
1.5,1.069462170151898,5892.599940921137
1.504,1.1198480911938746,5903.639895160144
1.508,1.1604087841988842,5905.111476387121
1.512,1.185447062202415,5903.464896950432
1.516,1.1925599077527524,5893.526273494195
1.52,1.1821892541264853,5905.175933662701
1.524,1.156767827885634,5902.016673736173
1.528,1.119911017870876,5900.784989714278
1.532,1.0757909179724892,5900.830815926863
1.536,1.0286224400420498,5892.527572767383
1.54,0.9822823823858075,5902.525092217065
1.544,0.9402314441107128,5907.014115829616
1.548,0.9057641460097412,5893.439493495337
1.552,0.88223096299529,5901.4701235509065
1.556,0.8727205676202555,5905.785947823355
1.56,0.8790354167154623,5900.788805912756
1.564,0.9003857711031757,5900.154698223777
1.568,0.9325900373922639,5894.343240979205
1.572,0.968455228128288,5895.399448984858
1.576,0.9994736348951189,5904.904953960472
1.58,1.0182695533560635,5891.136024029714
1.584,1.0207776630806862,5900.96888617148
1.588,1.0072597449923673,5894.390944949278
1.592,0.9818708102409696,5905.437461612207
1.596,0.9511298306632852,5901.753950562991
1.6,0.9219848724075483,5895.405354503987
1.604,0.9001536063046109,5897.021206721995
1.608,0.8892109579787784,5907.332669525777
1.612,0.89056868102371,5899.73597541874
1.616,0.9040737307534917,5906.751374741078
1.62,0.9286453181930965,5890.842755675173
1.624,0.962472284695203,5905.179079684284
1.628,1.0027555919755766,5894.167506862731
1.632,1.0453873419552373,5900.079232706245
1.636,1.0850206802628977,5904.3322525443
1.64,1.1157547494735316,5905.686694536474
1.644,1.132306582949683,5904.524351502351
1.648,1.1312598980674418,5895.093029480467
1.652,1.1119493818088453,5899.445502544309
1.656,1.076752080277693,5910.715709093493
1.66,1.030805928750623,5910.485308398392
1.664,0.981271350398775,5900.592939644612
1.668,0.9361963781345722,5898.346150373929
1.672,0.9030189669467689,5890.518088213342
1.676,0.8869073398572668,5896.458360171458
1.68,0.8894009575935911,5900.872932429975
1.684,0.9078734424469258,5897.815740460289
1.688,0.9360766511239694,5901.201018208306
1.692,0.9656380093174208,5901.28131207807
1.696,0.9881029510277082,5896.523817202065
1.7,0.9969904025169564,5897.907271342588
1.704,0.9893254961569335,5891.571564113167
1.708,0.9662460628303278,5897.323899716583
1.712,0.9325602323084284,5897.630144089701
1.716,0.8954606967099155,5899.803162036822
1.72,0.862812839168674,5904.262653292258
1.724,0.8414626559518259,5898.78374229888
1.728,0.8359270795383417,5911.45892556775
1.732,0.8476947468282028,5898.522029431759
1.736,0.8751678738413794,5907.177645259304
1.74,0.9140843441485156,5899.40618551484
1.744,0.958233916904251,5900.171774813027
1.748,1.0004251277272136,5894.517537125627
1.752,1.0337459247642464,5896.004720080818
1.756,1.05301428918522,5896.401630665192
1.76,1.0560378066298344,5895.755433578832
1.764,1.0441990738410096,5903.109786082061
1.768,1.022125642095754,5905.313709681903
1.772,0.9965869576477757,5902.1649683930245
1.776,0.9749800771169388,5898.813684338137
1.78,0.9637955545405446,5897.1021780070105
1.784,0.967416993767695,5903.041784645555
1.788,0.9874775952814254,5902.394961122219
1.792,1.022750541172513,5904.312625458758
1.796,1.0693797771991114,5906.293071423797
1.8,1.1213398951508338,5897.720072779919
1.804,1.1712009857657186,5895.971573813258
1.808,1.21127859419801,5897.201951484389
1.812,1.2350434272273565,5898.3770186483225
1.816,1.2384693180514954,5891.140740103968
1.82,1.220949552138083,5891.904319249871
1.824,1.1854855244599605,5894.379213226333
1.828,1.1380189931677784,5904.535737997559
1.832,1.086043509629304,5904.531123158576
1.836,1.0369164125196417,5894.410401325513
1.84,0.9964190387805818,5902.308637268278
1.844,0.9679429535932274,5899.5953590090485
1.848,0.9523144621549242,5898.385316525265
1.852,0.9480113977377628,5896.958677644192
1.856,0.9515594735147402,5900.781283633192
