时间(s),电压(V),幅值(高频80K)
0.0,1.0144713596470167,5903.111392556588
0.004,1.0964923513429112,5908.549356679353
0.008,1.1720774898034303,5896.863875809431
0.012,1.2359800511083943,5894.310334448761
0.016,1.283697219547107,5905.480039413778
0.02,1.3117456114732677,5899.254019253397
0.024,1.318257181794416,5899.425156522168
0.028,1.303944339830981,5893.943571630628
0.032,1.2729327567605888,5902.855455123024
0.036,1.2326792295146947,5902.843000785188
0.04,1.192594165172286,5898.357182186161
0.044,1.1617302715962248,5904.117271268089
0.048,1.1463559089110502,5897.366354561758
0.052,1.1482349803172598,5908.762134460897
0.056,1.1641988422379952,5894.627073601993
0.06,1.1872360129695652,5900.777132999225
0.064,1.2088197664418423,5900.46409058763
0.068,1.221671794490969,5900.035083121574
0.072,1.2219429713752163,5902.392485002079
0.076,1.2100778496232965,5904.310729931456
0.08,1.1902461156895412,5901.914747507237
0.084,1.1687558726651337,5893.534134411189
0.088,1.1520370380251435,5898.565104802708
0.092,1.1447135002069875,5906.179840534626
0.096,1.1482307587875,5907.881893527326
0.1,1.160454942231051,5897.637088098073
0.104,1.1763925341552905,5899.942410292885
0.108,1.189730600996752,5890.596483589736
0.112,1.1946038548325468,5891.201098656662
0.116,1.1870731811977875,5898.846991511919
0.12,1.166076048127321,5899.079863548062
0.124,1.1337692105954866,5894.981594566824
0.128,1.0951666613939681,5899.058160849347
0.132,1.0569919410182524,5895.499153913404
0.136,1.0258903295098518,5901.23645897289
0.14,1.0065048016114668,5903.357508317348
0.144,1.000143779307595,5897.349242207221
0.148,1.0046378784093826,5896.178196288954
0.152,1.0155117713736934,5899.701413282727
0.156,1.0280237864355006,5899.470399969674
0.16,1.039216729178067,5900.1520984353
0.164,1.0490409471853503,5898.495523267407
0.168,1.0599419004272925,5893.9418347278415
0.172,1.075021514065441,5895.678706625056
0.176,1.0956837348827335,5907.19692022367
0.18,1.1200489535072367,5902.4158751519
0.184,1.1430362224529889,5901.354695700079
0.188,1.1580540290154624,5904.356294538991
0.192,1.159366925267817,5895.160289775529
0.196,1.1440384037807356,5904.202065795208
0.2,1.1128848762604655,5901.094824795265
0.204,1.0704936156083071,5897.128674946785
0.208,1.0245422166217513,5892.429614245517
0.212,0.9845132817391623,5904.773622629009
0.216,0.9598529061603212,5905.504515461547
0.22,0.9578349499040588,5904.542065657854
0.224,0.9816435482061523,5900.739874284089
0.228,1.0292213482042192,5900.940504381271
0.232,1.093251075076641,5902.340721005624
0.236,1.1623989783036148,5902.723814743857
0.24,1.2236926583455368,5904.566521216846
0.244,1.2655523691757489,5909.361872880661
0.248,1.2806142027962206,5905.385762339864
0.252,1.2673838454073376,5906.964305489674
0.256,1.2301586087823304,5900.010975325599
0.26,1.177361516244526,5892.825497366644
0.264,1.119004272070854,5890.492564057732
0.268,1.0641809534204565,5899.287999175958
0.272,1.0193437779828571,5896.294426416196
0.276,0.9877489244776129,5894.924393007615
0.28,0.9699732727855876,5896.078598326389
0.284,0.9649702830444714,5896.047835653298
0.288,0.970993104281505,5901.374285807147
0.292,0.9859559581577125,5909.335397138481
0.296,1.0072788129135288,5901.2512955421735
0.3,1.0316584865335607,5899.317409653889
0.304,1.0552489999326944,5890.529847276533
0.308,1.0743644432756903,5906.629654932307
0.312,1.0863373154454203,5895.171615948939
0.316,1.0900235854212732,5895.375895441291
0.32,1.0857660565112377,5900.42438230822
0.324,1.075035062882582,5901.961670447861
0.328,1.0600393925517517,5893.284698839248
0.332,1.0433533418889265,5890.305008649719
0.336,1.027403702123796,5892.089749632437
0.34,1.013783779961273,5898.942781468638
0.344,1.0027011014679668,5902.322378492814
0.348,0.9930338822994172,5905.399698820847
0.352,0.9832187788195492,5901.613981265928
0.356,0.9726633371488971,5899.634506339693
0.36,0.9629518744028858,5900.32304676601
0.364,0.9580863328194797,5900.965123139572
0.368,0.9634187471822431,5904.779389082554
0.372,0.9836010013751292,5908.079349889867
0.376,1.020430792392948,5899.584195663146
0.38,1.0715416720242772,5898.170869074549
0.384,1.130442793074052,5897.461132313257
0.388,1.187827478401681,5908.25132109316
0.392,1.2336924731777725,5899.745057408261
0.396,1.2596774427193749,5904.916958619413
0.4,1.261019604421577,5895.000508782301
0.404,1.2376092293002554,5903.442495477042
0.408,1.1939069405801301,5905.424119630011
0.412,1.1378587507939935,5895.818058632102
0.416,1.0791832494277465,5907.454916011636
0.42,1.0274443028262041,5891.708143676721
0.424,0.9903087134708447,5899.882522181552
0.428,0.9723569920977201,5902.724848077537
0.432,0.9746522135667992,5899.417898071757
0.436,0.9950062655480891,5899.614527900529
0.44,1.02872151181394,5897.852397355846
0.444,1.0696102553837272,5895.298389470283
0.448,1.111144233527842,5890.191525313939
0.452,1.147527839871953,5901.056064270481
0.456,1.1744314817316743,5892.985807293266
0.46,1.1892425311001478,5900.337464155182
0.464,1.1909571709830025,5895.713772099091
0.468,1.1800220760569753,5899.573783151677
0.472,1.158370588273583,5902.642400775252
0.476,1.129637955289875,5898.532534013577
0.48,1.0992885819710256,5904.929978298463
0.484,1.0742988454153028,5903.485557961903
0.488,1.062142346505916,5895.941337751812
0.492,1.0690946323494344,5896.184755684274
0.496,1.0982452907047013,5911.47721999782
0.5,1.1479274906144923,5906.0931107056485
0.504,1.2113406021039652,5896.446101636933
0.508,1.2778051520916827,5902.404022898576
0.512,1.3354217110920505,5900.1501335605735
0.516,1.374241400725826,5891.124173829563
0.52,1.388798616213973,5906.180486549093
0.524,1.379156845240553,5897.351547591574
0.528,1.350270209379223,5892.344386974122
0.532,1.3100996603755553,5902.3223145438005
0.536,1.2672573424002092,5901.357699593212
0.54,1.228907100028228,5898.826371792851
0.544,1.199368863124607,5891.431633206768
0.548,1.1795930984262375,5901.153353023322
0.552,1.1674979879597844,5893.204388852867
0.556,1.1590383822367196,5903.657961020249
0.56,1.1497322151709437,5902.012518354372
0.5640000000000001,1.1362396318247907,5907.571529985671
0.5680000000000001,1.1175545573253818,5896.538819331357
0.5720000000000001,1.0954635548495546,5903.316011153073
0.5760000000000001,1.0741276788899883,5898.849832939921
0.58,1.0588887751218228,5898.026966489873
0.584,1.0546219766349558,5899.265023886025
0.588,1.064106092467657,5897.942016551009
0.592,1.0869245986363678,5896.887748993307
0.596,1.1192855501432242,5902.623954677794
0.6,1.1548576170304399,5897.341414705069
0.604,1.1863703084625272,5905.568959253938
0.608,1.2074697293221892,5900.139823984434
0.612,1.2142507205453719,5898.707860676876
0.616,1.2060109198333255,5899.679730824534
0.62,1.185052787254576,5909.031750382238
0.624,1.1557143932005915,5892.342334423697
0.628,1.1230774903769671,5895.46939916659
0.632,1.0918165104055035,5901.103351873681
0.636,1.0654338940798602,5899.825142615053
0.64,1.0458962462305146,5899.1889338530045
0.644,1.033610967549872,5906.685992298359
0.648,1.027703972203153,5897.232363891751
0.652,1.0265334601920453,5900.46359647034
0.656,1.0282860997390242,5900.413791852603
0.66,1.0314449058237731,5893.6070970984565
0.664,1.0349801532062457,5905.5739394902575
0.668,1.0382998948662918,5901.959843540564
0.672,1.0411660743998448,5899.210039430092
0.676,1.0437502210760177,5896.36501753295
0.68,1.0468035728603218,5901.229781037786
0.684,1.0517839366267927,5889.73198877005
0.6880000000000001,1.06080046417763,5888.346959339728
0.6920000000000001,1.0762969408188203,5891.954430354223
0.6960000000000001,1.10044945656419,5905.042498124938
0.7000000000000001,1.1343431873893643,5900.357408191151
0.704,1.1771004778853738,5896.770014942892
0.708,1.2252225472270695,5906.380083714206
0.712,1.2724655630605812,5900.828559678116
0.716,1.310550019803942,5907.2338396690575
0.72,1.3308078017872038,5902.609150801375
0.724,1.3264831985060415,5890.21875697368
0.728,1.295002610555316,5905.385641170447
0.732,1.2393938190515603,5898.952320753654
0.736,1.1682671557305966,5904.142401622219
0.74,1.094218925185255,5897.079998146258
0.744,1.0310036402529916,5901.084088160126
0.748,0.9902368225051847,5900.0963001695945
0.752,0.9785923445902983,5892.023776030407
0.756,0.9963049472897202,5894.501368843168
0.76,1.0373305381277211,5907.041140765802
0.764,1.0910023165550773,5902.457545650399
0.768,1.1446643006113557,5904.751531603021
0.772,1.1866138248470928,5893.104443645214
0.776,1.2086904741956646,5895.890029892127
0.78,1.2079480780515228,5913.374584035012
0.784,1.1870213897953505,5899.288596064152
0.788,1.1531053278360692,5897.063683449512
0.792,1.1159015371101897,5893.366287007006
0.796,1.0852328210838198,5895.069735754765
0.8,1.0690111849539825,5895.713769402111
0.804,1.0719209767314677,5895.566132568864
0.808,1.094862974193147,5897.588493752166
0.812,1.1350648852838134,5899.143547976217
0.8160000000000001,1.1867180668324657,5898.827687499839
0.8200000000000001,1.2419716698418886,5900.208710412654
0.8240000000000001,1.2921070394985918,5902.466106185457
0.8280000000000001,1.3287339665214037,5895.861444909076
0.8320000000000001,1.3449086181364724,5899.710783461794
0.836,1.336142718451393,5903.753335155218
0.84,1.3012490717898897,5899.708364896324
0.844,1.2428431690823727,5893.670411060969
0.848,1.1672739810670327,5906.959857984039
0.852,1.0838952805918118,5899.216858601245
0.856,1.0037835448581516,5896.618229016951
0.86,0.9381153431490294,5915.238365777748
0.864,0.8964355967696006,5902.000297310348
0.868,0.8850237677283659,5895.662903344729
0.872,0.9055632266954076,5904.075848796923
0.876,0.9544190577861391,5893.325839509615
0.88,1.0229395705631696,5902.74997050157
0.884,1.099054131545977,5897.63161773396
0.888,1.1699507468928338,5893.244979566641
0.892,1.2250473159553805,5898.986284870193
0.896,1.258233064443303,5900.643474737291
0.9,1.268640063163511,5904.832669408524
0.904,1.259816611018491,5903.461649188147
0.908,1.2377616870231247,5898.467621509135
0.912,1.2086315211363696,5910.010623011363
0.916,1.1769874003227327,5894.935311764571
0.92,1.1451810592186102,5905.051842609052
0.924,1.1139200150253035,5903.055354893482
0.928,1.0834870157642587,5904.355213348019
0.932,1.0548412273645964,5903.120187854495
0.936,1.0300149170516464,5903.0458120967405
0.94,1.011672381230803,5906.894954936652
0.944,1.0021352187406873,5906.335892186464
0.948,1.0023637722299286,5898.50924254677
0.952,1.0112965818434791,5902.5269054548
0.956,1.0257890474529034,5892.770898666207
0.96,1.0412839088171544,5899.192567614711
0.964,1.0531688558440004,5897.837203840394
0.968,1.0584361848978203,5889.423150255941
0.972,1.056948229036858,5902.019712699172
0.976,1.051652469702448,5890.555469164102
0.98,1.04756062111684,5898.934744111619
0.984,1.0499051016959566,5896.057836872632
0.988,1.0622227138568567,5898.4825098841575
0.992,1.085068090109077,5901.119624745295
0.996,1.1157704051839976,5894.944802299416
1.0,1.1492756370238377,5901.709878695898
1.004,1.1797496816324315,5893.350736012118
1.008,1.2023537172678302,5897.238023625082
1.012,1.2145662161785507,5894.825452212433
1.016,1.2166370340650383,5904.223074847715
1.02,1.2110807577622438,5901.651118529552
1.024,1.2014160597314645,5902.772559103119
1.028,1.1906293933410785,5902.391458464489
1.032,1.1800275244254184,5895.449406496524
1.036,1.1690279357360291,5894.922852520536
1.04,1.1559531974247979,5892.896955008318
1.044,1.1393460872684915,5905.801491760492
1.048,1.1190881914453366,5895.799963630792
1.052,1.0967957666868497,5901.782852139869
1.056,1.0753917290077548,5906.961049486105
1.06,1.0581189634452974,5908.073793778398
1.064,1.0474129281883222,5893.238832102605
1.068,1.0440359406947162,5900.281251957697
1.072,1.0467719604677868,5898.28011875402
1.076,1.052799789350222,5902.195841269348
1.08,1.0586304938088973,5907.986447030508
1.084,1.0612987234129663,5907.965297652542
1.088,1.0594033988341491,5899.332489492838
1.092,1.0536190385924242,5899.348333064479
1.096,1.0464595709986162,5904.287324354921
1.1,1.0413515351508136,5899.645514769732
1.104,1.0413637707352237,5895.576281031163
1.108,1.0481112486272381,5907.419668259851
1.112,1.0612902357827445,5905.528976143681
1.116,1.0790050005534717,5911.499373109183
1.12,1.0986854505875128,5896.485228684173
1.124,1.1181776404500172,5895.53648336495
1.128,1.1365493443216519,5900.90032097184
1.132,1.1542442306873917,5907.805160868246
1.136,1.172474835960351,5902.903294286482
1.14,1.1921444862273018,5901.535893420919
1.144,1.2129000662884308,5886.610049909891
1.148,1.2328716613470332,5898.058598532397
1.152,1.24923716105935,5895.948067075588
1.156,1.2592670528957028,5906.247850350991
1.16,1.2613178080974967,5897.180633612541
1.164,1.2554005833325577,5905.262206976799
1.168,1.2431903996841092,5907.403843624341
1.172,1.2274732318090298,5895.309419487418
1.176,1.2111402175215757,5900.784278254298
1.18,1.196027336187574,5905.007743788023
1.184,1.1820614838094294,5907.473568388164
1.188,1.167144744448872,5907.417894958268
1.192,1.147958969892812,5902.6717527207065
1.196,1.121506600311835,5907.10729770905
1.2,1.0868528923397995,5898.335539182394
1.204,1.0463325942245159,5907.458390293712
1.208,1.0055791081579142,5906.55279400237
1.212,0.9721822593514965,5902.3315406054535
1.216,0.9534147943929439,5892.854164241788
1.22,0.953952595145555,5903.544182648383
1.224,0.9745394364913638,5896.032558327226
1.228,1.0120480211966538,5905.399766844439
1.232,1.0606667077467387,5907.194439787158
1.236,1.113483272706364,5905.526176036197
1.24,1.1638137157653403,5894.850371725937
1.244,1.2060729072165584,5891.926058622523
1.248,1.236372757382834,5901.2288167860615
1.252,1.2530346750962746,5900.782123613062
1.256,1.2568785340376736,5895.61646762296
1.26,1.2509072823977627,5911.701222723276
1.264,1.2392009399317139,5900.609062138889
1.268,1.225370076695622,5899.335193960445
1.272,1.2113148812722245,5893.753652102974
1.276,1.19691946320434,5895.855245511437
1.28,1.1807703021602733,5897.094210953598
1.284,1.1614457122538937,5893.024014102389
1.288,1.1387272982347878,5911.353330273892
1.292,1.1142223360769448,5881.243642710864
1.296,1.0911431645481655,5895.949447892574
1.3,1.0732842395933697,5901.879709408
1.304,1.0635822198535423,5904.443505715346
1.308,1.062898243430797,5908.0468214200655
1.312,1.0695990157540558,5894.1775973287295
1.316,1.080115554693529,5909.201300456721
1.32,1.090197419430881,5896.491966413104
1.324,1.0963618371213564,5898.557303753752
1.328,1.097088548718128,5895.031410886939
1.332,1.0934421910756076,5904.279685285308
1.336,1.0889114579283146,5903.510991035872
1.34,1.088387460610078,5899.131625092275
1.344,1.096438501425026,5895.676289660858
1.348,1.115384570241458,5891.611506779181
1.352,1.1439686390649533,5902.183412402107
1.356,1.177355081814305,5897.989115168156
1.36,1.2086250517968404,5903.175556845222
1.364,1.231174033089983,5893.677834126535
1.368,1.2409514390723595,5899.851419387096
1.372,1.2375960899500755,5898.535892576549
1.376,1.2241016141750223,5907.381073320068
1.38,1.2053323524575843,5896.4671052122285
1.384,1.1861199232866564,5902.069045006574
1.388,1.1696543047270238,5900.396429992271
1.392,1.1566358607388532,5891.801810230169
1.396,1.1454051386810062,5903.459587734347
1.4,1.1329864528485893,5907.42293641878
1.404,1.1166244339292666,5898.748126388045
1.408,1.0951651103668043,5895.02219584364
1.412,1.0697427327438525,5896.1178026571615
1.416,1.0435923056282912,5908.285379747573
1.42,1.0211509933284173,5901.984517216814
1.424,1.0067950129899639,5904.699027679896
1.428,1.0036217798432512,5895.158235622991
1.432,1.0126564886703728,5897.399320444549
1.436,1.03268170253093,5900.945506387701
1.44,1.0606120187439978,5906.919277726754
1.444,1.0921654906899625,5908.256167471631
1.448,1.122620606121792,5904.305573027735
1.452,1.1475797233642988,5902.696127777917
1.456,1.1637271423767168,5901.109020911734
1.46,1.1695225852669997,5890.0682337248645
1.464,1.1656597556653718,5905.887206687144
1.468,1.1550357695248978,5898.019273287645
1.472,1.1420330378000416,5903.995050553037
1.476,1.1311821644042428,5901.007144079166
1.48,1.1256483084436266,5899.093844824921
1.484,1.1261935002487182,5898.448222021831
1.488,1.1311104265709702,5905.475092298144
1.492,1.137150400954024,5890.826699310145
1.496,1.1409539505293684,5907.188370836461
1.5,1.1402665446449354,5900.45005975502
1.504,1.134431446958133,5895.427868345347
1.508,1.124121311860504,5898.371938861546
1.512,1.1106730437241394,5899.467700459951
1.516,1.0955129259939056,5895.982713598165
1.52,1.079964496274632,5896.054393271479
1.524,1.0653656457646616,5892.264051258505
1.528,1.053186696773812,5896.557694384806
1.532,1.0449338304947349,5899.746113106877
1.536,1.0419020593841073,5907.496470183463
1.54,1.0450055550323263,5892.983854463928
1.544,1.054809498984529,5896.332566945976
1.548,1.071629388534666,5903.610760807859
1.552,1.095418232177301,5909.65658723388
1.556,1.1252975443770723,5901.33360902622
1.56,1.158900884999715,5904.620179958301
1.564,1.1919306422035632,5896.3027785077575
1.568,1.2183174245130124,5891.752926471316
1.572,1.2311598673544082,5903.249065446636
1.576,1.2243480565871927,5903.15017786545
1.58,1.194505473357921,5897.459028225639
1.584,1.1426506844813176,5894.291644689492
1.588,1.0748902942626886,5906.396214466689
1.592,1.001655497670504,5906.304269820712
1.596,0.9354962554910742,5891.772273564934
1.6,0.8880351851568394,5893.117974405787
1.604,0.8670413556097061,5897.839517816608
1.608,0.8745412480910927,5896.229474611135
1.612,0.9065053273253451,5897.174376194782
1.616,0.9541123032731462,5892.062457441354
1.62,1.0060964404662258,5900.750937490765
1.624,1.0514107260264465,5895.996585895998
1.628,1.0814779570050632,5903.785829271837
1.632,1.0915878921012239,5893.725851673703
1.636,1.0813401827442937,5906.847620635045
1.64,1.054225318680805,5901.135885727628
1.644,1.016477894014383,5898.999270226622
1.648,0.9754425687855933,5898.042421943491
1.652,0.9379259545608863,5910.203019208887
1.656,0.9090855685696859,5896.273384652795
1.66,0.8920951103595078,5903.212832748435
1.664,0.888338535655542,5900.604401322094
1.668,0.8976548191585799,5905.421425890531
1.672,0.9183259421448886,5904.191192540576
1.676,0.946870351609623,5898.785635303639
1.68,0.9780017547412164,5894.5213366928365
1.684,1.0051549488579696,5903.740410483984
1.688,1.0217161952018676,5902.953999343442
1.692,1.0226718567152913,5902.151512709064
1.696,1.0060946873828696,5903.328672357609
1.7,0.9739126919041576,5894.645295274462
1.704,0.9316653390808344,5901.520929193826
1.708,0.8872497722165911,5903.424407751061
1.712,0.8489468210921408,5907.6912807572535
1.716,0.8232991675543626,5902.511638217452
1.72,0.8135570852281582,5900.991465299565
1.724,0.8192568153770481,5890.476151964958
1.728,0.8370568974436883,5904.934934480397
1.732,0.8623836365483563,5905.623687447387
1.736,0.8910288547924757,5896.857333887296
1.74,0.9199354030507908,5897.189330095742
1.744,0.9469997163404843,5903.803854499582
1.748,0.9703557586953631,5897.0340301388605
1.752,0.9878111542563479,5902.616792725919
1.756,0.9968593233598864,5913.857484442899
1.76,0.9952989031026237,5899.460852364886
1.764,0.9821951604345961,5899.927562514499
1.768,0.9587527445129161,5900.576393672801
1.772,0.9286342578996013,5904.341437354274
1.776,0.8974260301778251,5906.420972824497
1.78,0.8713174705636543,5909.876040239201
1.784,0.8554302967519695,5913.292853516855
1.788,0.8523897837079842,5903.154360077259
1.792,0.8616217890468624,5906.370084196163
1.796,0.87957729180372,5896.723912622641
1.8,0.9007622602309379,5901.656075213833
1.804,0.9192191411460687,5898.420247527383
1.808,0.9300417241978433,5899.859435064453
1.812,0.9305685435921545,5896.03109709888
1.816,0.9210031681019274,5899.296909358296
1.82,0.9043268645896403,5897.256833113294
1.824,0.8855286301487008,5902.070401872893
1.828,0.8703542184299321,5900.531693742291
1.832,0.8639070546284839,5909.612331446383
1.836,0.8695148246225815,5900.886384656953
1.84,0.8882547381348672,5905.303069270806
1.844,0.9192603855778892,5895.6959866517645
1.848,0.9604750521122383,5905.932133477652
1.852,1.0092432691544826,5904.213963801244
1.856,1.062305942472826,5905.768538649225
