时间(s),电压(V),幅值(高频80K)
0.0,0.9268048147779648,5895.454416501552
0.004,0.9174093291305293,5899.064995545001
0.008,0.9091706496074387,5901.276111729732
0.012,0.903962786720545,5903.337213405472
0.016,0.903167337333377,5898.233190773432
0.02,0.907238328188488,5905.987965364162
0.024,0.9155641863267073,5897.710908006094
0.028,0.9267338665764627,5903.461918146996
0.032,0.9390574342655156,5907.018536150934
0.036,0.9510363266303253,5894.179660136939
0.04,0.9615644559786748,5906.896825956437
0.044,0.9698452623960876,5896.567130234115
0.048,0.9751605241660268,5899.620704858059
0.052,0.9767018087399918,5900.472373081434
0.056,0.9736906428523442,5898.326641270733
0.06,0.9658838302139935,5903.58099341356
0.064,0.9542314561734049,5900.55813353618
0.068,0.941139249765479,5890.736360130954
0.072,0.9298688317805777,5900.148795629737
0.076,0.9231829375269507,5904.762750077891
0.08,0.9219742763014988,5897.4140194869
0.084,0.9247268824316459,5903.3011481081385
0.088,0.9281235229681792,5894.46116270837
0.092,0.9284130871045183,5897.362583318605
0.096,0.9228604049059056,5903.6287335821335
0.1,0.910783757998587,5900.760690550348
0.104,0.8939670719894648,5903.018489349326
0.108,0.8763489308173753,5905.866538229976
0.112,0.8629542694158595,5898.534740161338
0.116,0.8582791188365527,5897.893668380019
0.12,0.8647018846854114,5909.805422653085
0.124,0.881608983099219,5906.228259020596
0.128,0.9055805751134872,5904.848457785062
0.132,0.9314405280199515,5897.012285161163
0.136,0.9536618688978107,5903.6588889036775
0.14,0.9676756968663233,5898.44929833232
0.144,0.9708611916744386,5905.112849840852
0.148,0.9631512755090065,5905.036031505292
0.152,0.9471939741832847,5902.627338538884
0.156,0.9279651618042201,5900.821924125808
0.16,0.9117974766992747,5901.386503170894
0.164,0.9049933470326816,5901.111570384263
0.168,0.9123504794939316,5911.453038831394
0.172,0.9359277984937537,5897.917687503213
0.176,0.9743142925220556,5896.953400316042
0.18,1.0226158079542438,5901.564361741015
0.184,1.0732763196927826,5897.223874186313
0.188,1.1176553916784968,5898.484915513789
0.192,1.1480423946759708,5906.235708749974
0.196,1.1595685687649597,5897.047940842004
0.2,1.151409920270339,5897.422228496105
0.204,1.126890811955479,5904.791304082257
0.208,1.0925078137157362,5887.963814467557
0.212,1.0562323522985533,5898.16525909476
0.216,1.0255953729885832,5893.593353070726
0.22,1.0060725353548667,5904.59087728365
0.224,1.0002014830026857,5908.885174551423
0.228,1.0076082125282269,5899.897016303932
0.232,1.025749651180729,5906.893733715215
0.236,1.0509311789626656,5901.257166307581
0.24,1.079185189894828,5901.0210795410985
0.244,1.1067855611196948,5898.226429418369
0.248,1.1303503502529761,5906.117906120805
0.252,1.1466526900027552,5899.141384198226
0.256,1.1524535339036128,5897.368386875764
0.26,1.1447407511248993,5899.418705043361
0.264,1.1215244165865617,5903.763974386053
0.268,1.0828993345873643,5904.163078036229
0.272,1.0318035048287384,5897.5658359287945
0.276,0.9740257904904853,5896.282295467823
0.28,0.9174184785554181,5896.872574606895
0.284,0.8705882801655583,5897.715100281985
0.288,0.8413868652083059,5902.824320083616
0.292,0.83544411142651,5904.238479962327
0.296,0.8549639120123027,5896.940082056548
0.3,0.8980106791432625,5911.130306861203
0.304,0.9584748693885571,5893.896785989796
0.308,1.026824930253278,5893.823165245643
0.312,1.0916322155691178,5903.480718810178
0.316,1.1416612195620757,5909.170457157752
0.32,1.1680984671046661,5900.555061680392
0.324,1.166376531349547,5899.597458542762
0.328,1.1371122017374558,5892.11351413314
0.332,1.0859056753544036,5908.388895662581
0.336,1.0220725698324882,5901.561184265484
0.34,0.9566951353763268,5901.050177256826
0.344,0.9005490686130364,5900.114162583983
0.348,0.8623837668546153,5906.265635696699
0.352,0.8477477976376266,5907.872851904491
0.356,0.8582945178485542,5893.834455061021
0.36,0.8915034299205111,5898.225606694406
0.364,0.94094794573125,5898.732427223333
0.368,0.9973338301489416,5898.079939090748
0.372,1.0503376970720404,5894.436929812521
0.376,1.0908780546065988,5901.266995681717
0.38,1.1131048729081618,5899.069312950201
0.384,1.1153661978258071,5893.528395448602
0.388,1.0998184133473896,5895.951220785227
0.392,1.0709898975189276,5894.510993336825
0.396,1.0340642050705784,5907.987420853761
0.4,0.9936263131278945,5903.561042792058
0.404,0.9531855050789801,5896.761683514639
0.408,0.9152951791179958,5899.104430694475
0.412,0.8818513414258675,5894.782646663391
0.416,0.8542338966797706,5898.767414941357
0.42,0.8332098565437966,5900.759714010331
0.424,0.8187481519212327,5897.662661510589
0.428,0.8099646362352981,5890.208354583427
0.432,0.8053177466310345,5897.193180485696
0.436,0.803025387231631,5900.028267903543
0.44,0.8015757414374611,5898.957783861943
0.444,0.8001792701375736,5903.741797792807
0.448,0.7990387914514765,5897.761859570023
0.452,0.7993701631027843,5893.008472364192
0.456,0.8031545694161869,5897.852646300095
0.46,0.8126468298352104,5898.118958690933
0.464,0.8297275635949486,5897.354521127885
0.468,0.855258750936211,5898.445725945298
0.472,0.8886433752104527,5901.512654879087
0.476,0.9277690099397912,5895.258755278782
0.48,0.9693888391346147,5901.812043856229
0.484,1.0097653776663589,5908.519953336146
0.488,1.0452490089580047,5906.275711089929
0.492,1.0725963360221655,5887.061586370035
0.496,1.0891558817433276,5897.7386347176
0.5,1.0931975336021225,5903.166987081402
0.504,1.0844675760223195,5896.147619947299
0.508,1.064732896013598,5896.842301408772
0.512,1.0379343673572972,5894.351043417504
0.516,1.009682352651341,5897.2805666051645
0.52,0.9861090702174938,5888.6190465504205
0.524,0.9724025475674677,5896.054390046563
0.528,0.9715050057585801,5897.230812616143
0.532,0.983355216575882,5896.959131462173
0.536,1.004811006536246,5897.3140356953645
0.54,1.0302479419982506,5893.56539336915
0.544,1.0528380386282166,5904.57300338005
0.548,1.0664301795833009,5892.0900252829215
0.552,1.0676010710225317,5902.880604723901
0.556,1.0570502348301511,5901.431059976708
0.56,1.039541323635691,5901.126029862168
0.5640000000000001,1.0221978882306793,5906.729779943401
0.5680000000000001,1.0117760177607522,5908.020773177029
0.5720000000000001,1.0120424803123043,5907.677354260339
0.5760000000000001,1.0223252711127842,5899.758620474999
0.58,1.0377502989084835,5903.039735848608
0.584,1.0509542725932222,5900.427349650747
0.588,1.0545407405949878,5903.829784376049
0.592,1.0434032117612289,5900.276445016393
0.596,1.0162105258126422,5896.23614389404
0.6,0.9756769206410748,5900.492085984797
0.604,0.9276143649644458,5903.049713352447
0.608,0.8791385634022902,5905.508097110122
0.612,0.836691863846108,5906.126382564544
0.616,0.804607348690774,5903.594068567376
0.62,0.7846749192006882,5903.987777965423
0.624,0.7766824750118699,5893.800957224774
0.628,0.7794540379303307,5900.64491639772
0.632,0.7917377652045389,5906.489634894355
0.636,0.812483351262357,5896.147418792124
0.64,0.8404686234450184,5900.021775187716
0.644,0.8736655432487562,5903.541559271763
0.648,0.9089308705589042,5905.33935207364
0.652,0.9423987510016206,5894.567936410615
0.656,0.9704467489840211,5899.675005261309
0.66,0.9906899958271029,5890.603670887845
0.664,1.0024479262347534,5895.918166722677
0.668,1.00649021446526,5895.1722507559925
0.672,1.004312728753317,5900.813595054886
0.676,0.9974329352442902,5903.510131785282
0.68,0.9871113968201799,5907.939403665047
0.684,0.9745822663399599,5898.03502532908
0.6880000000000001,0.9615192376859304,5899.394417985355
0.6920000000000001,0.9502981019400032,5898.129633271694
0.6960000000000001,0.9437440341830758,5899.614374343065
0.7000000000000001,0.9443815196819108,5908.592895669856
0.704,0.9535203456863306,5896.394150924911
0.708,0.9706051163643455,5902.888035090972
0.712,0.9930941699751199,5900.934966933432
0.716,1.0168958786881779,5900.574961641624
0.72,1.037242180631892,5905.866114665286
0.724,1.049782248033564,5901.877117196601
0.728,1.0515749820659996,5898.355172486959
0.732,1.041665750480088,5892.310075353322
0.736,1.0211387147066826,5898.968155408788
0.74,0.9927866598021411,5903.519861858616
0.744,0.9606269212411593,5902.270715420863
0.748,0.9293961409971622,5896.213477879019
0.752,0.9040092828142458,5901.96444681356
0.756,0.8889091371733919,5902.757966825964
0.76,0.887323496005467,5895.14765470259
0.764,0.9006009175674372,5903.488999193865
0.768,0.9278312042000723,5900.982894112571
0.772,0.9658364372293716,5901.089728725562
0.776,1.0095143844725012,5900.829423911242
0.78,1.0525235502748764,5892.378240680639
0.784,1.0882882698123755,5888.793565094423
0.788,1.1111765929645905,5903.031812666342
0.792,1.1175761781509876,5903.821421497284
0.796,1.1065945950958485,5905.693720601439
0.8,1.080221406607429,5895.273886520316
0.804,1.0429281029862174,5893.938281628629
0.808,1.0008085789144816,5900.01203479388
0.812,0.9604676826077313,5896.659601575371
0.8160000000000001,0.9279199156679967,5901.334293648983
0.8200000000000001,0.9077156674230858,5902.784379363598
0.8240000000000001,0.9023723644559785,5904.289480306828
0.8280000000000001,0.9120569009083105,5901.155740248055
0.8320000000000001,0.934462909467606,5912.231178878568
0.836,0.964953675759374,5903.184940044441
0.84,0.9971467652845021,5902.844738594364
0.844,1.024019979011464,5899.944972906554
0.848,1.0393394614913067,5894.459631703558
0.852,1.038995785304367,5900.861633979775
0.856,1.021857832110266,5903.6476782015725
0.86,0.9899353685678828,5897.551741537295
0.864,0.9478348515113597,5903.687925579773
0.868,0.9016715786321416,5888.358732030911
0.872,0.8577641918647534,5907.635658129657
0.876,0.8215102300293691,5903.88402174242
0.88,0.7967357937895361,5892.970673834703
0.884,0.7855468291947386,5902.443394960974
0.888,0.7884486506162593,5889.512618149586
0.892,0.8044460496147572,5900.572175231534
0.896,0.8310492603544483,5894.2214980647805
0.9,0.8644117261629901,5902.223998597227
0.904,0.8998997856920933,5913.410346366197
0.908,0.9331151583800408,5905.486795601431
0.912,0.961006850148095,5897.833518117184
0.916,0.9825572340347059,5896.558510790332
0.92,0.9986824853080706,5903.240805193878
0.924,1.0113358908669512,5901.455433879966
0.928,1.0222015967984068,5898.0404477402935
0.932,1.0316040546154444,5898.365667668278
0.936,1.0381443743298766,5901.454638817552
0.94,1.0391765719453159,5908.972373859433
0.944,1.031842207491506,5890.402942289607
0.948,1.014216640223039,5894.110793482993
0.952,0.9861909691228975,5903.377487963875
0.956,0.9498834428594796,5888.57644446921
0.96,0.9095253394289138,5902.423259293883
0.964,0.8708803286897788,5895.641928829164
0.968,0.8403365190692866,5896.50050766304
0.972,0.8238271587673095,5897.611885677093
0.976,0.8257144240167245,5894.210153381466
0.98,0.8477981452322033,5900.290924740119
0.984,0.8886870073405398,5905.344306767825
0.988,0.9437820155418023,5904.205111945833
0.992,1.0059956349911996,5893.984508164438
0.996,1.0670931149486524,5903.229848519531
1.0,1.1192945904774203,5908.765495841359
1.004,1.1566651687225535,5898.991992019607
1.008,1.175946180602331,5910.038472200786
1.012,1.1767491747230379,5892.937274240791
1.016,1.161212627360815,5897.036107078741
1.02,1.1332258659183416,5900.760468060078
1.024,1.0973303578101798,5896.612074299408
1.028,1.057567578047662,5911.003693106272
1.032,1.0167070235652615,5907.150873344923
1.036,0.9761883577146828,5907.453028283911
1.04,0.9367455245567325,5900.7596982631685
1.044,0.8993116497843576,5893.653871074098
1.048,0.865643802513224,5911.52705751648
1.052,0.8382240386034814,5903.522067699746
1.056,0.8193949000681481,5896.409085176911
1.06,0.8102131331627322,5894.036255611172
1.064,0.8097701750333582,5902.115692809508
1.068,0.8154529916065609,5902.554794823319
1.072,0.8239832447637215,5903.58489348584
1.076,0.8325933513615044,5905.295207677118
1.08,0.83973830994091,5891.59597430963
1.084,0.8451823982953178,5898.64148041241
1.088,0.8497102675620519,5899.519720182962
1.092,0.8547885592416437,5893.734548132988
1.096,0.8622857864582242,5904.70712661158
1.1,0.87411112946015,5908.235679828662
1.104,0.8916068177075859,5895.331025738914
1.108,0.9147661580195934,5904.191029331929
1.112,0.9416468644869567,5897.710467706606
1.116,0.9684119787743909,5901.869770482324
1.12,0.9901478631774102,5901.583340690333
1.124,1.0021994356653174,5904.468100810066
1.128,1.0015466830144015,5894.868746203959
1.132,0.9877995747538515,5889.555678051783
1.136,0.9635568568112369,5901.099676333151
1.14,0.934031678174034,5896.260437262488
1.144,0.9059837746410031,5898.878252517925
1.148,0.8861515337580794,5899.062563855137
1.152,0.8795636981013393,5907.029366318502
1.156,0.8882505917562316,5901.419803498921
1.16,0.9108112425966777,5900.850394807661
1.164,0.9429682501833415,5899.2601421417085
1.168,0.9788209257341182,5898.173284830273
1.172,1.012248276634172,5895.814525440595
1.176,1.0379624922072306,5906.368620369871
1.18,1.052036300678417,5898.942986275451
1.184,1.0521158964959854,5897.78468168057
1.188,1.0376640383701812,5897.187986397928
1.192,1.0103101039848728,5894.742927550035
1.196,0.9740001497986346,5904.315446737697
1.2,0.9345647204837083,5903.813391669905
1.204,0.8986079122687525,5899.717456164681
1.208,0.8719840376724648,5900.446439115978
1.212,0.8583528173715153,5897.615340251832
1.216,0.8583326485706361,5901.33892794635
1.22,0.8695742547018959,5899.601421350077
1.224,0.8877106448974879,5902.643417614974
1.228,0.9078089647404312,5898.065362251784
1.232,0.9258297790634057,5898.929886997499
1.236,0.9396692708624176,5894.313434352975
1.24,0.9495070108599268,5903.6587566210455
1.244,0.9573727637174667,5893.732661145055
1.248,0.9660992944731118,5903.59263869089
1.252,0.9780774301389349,5903.441540861665
1.256,0.9943151935234316,5897.808826369415
1.26,1.0141397628029094,5895.293674520982
1.264,1.0355769666973194,5901.5431664114185
1.268,1.0561718264594118,5896.560770670617
1.272,1.0738490882295366,5899.561372206139
1.276,1.087389089597684,5897.468025342155
1.28,1.0962821756974448,5899.099839041262
1.284,1.1000896932491402,5897.29215566202
1.288,1.0977555936939907,5902.083356842495
1.292,1.087362658800711,5896.917072240201
1.296,1.0665979655298543,5909.653237037994
1.3,1.0338178215763145,5894.055191819022
1.304,0.989266080048989,5899.445960599797
1.308,0.9358821155275148,5907.799810492091
1.312,0.8792774149928878,5900.25107191237
1.316,0.8267387316699429,5902.361318668021
1.32,0.7854406350636506,5904.911449331713
1.324,0.7604045129885724,5900.525902734328
1.328,0.7529838694784007,5894.627839816319
1.332,0.7605473933075462,5900.761982941953
1.336,0.7775473365665219,5907.984197512514
1.34,0.7975765520522,5900.606733637969
1.344,0.8156214557394315,5902.259793556853
1.348,0.829630644406737,5901.4372607836685
1.352,0.8407810949383103,5905.27341958514
1.356,0.8524012233409081,5903.895940615142
1.36,0.8681395359027716,5901.689109891786
1.364,0.8902366482059522,5899.134431623448
1.368,0.9185244270590823,5889.394186419742
1.372,0.9503445612819063,5893.97538174097
1.376,0.9812842699897634,5901.953120203846
1.38,1.006472271937375,5901.37934699081
1.384,1.0220413978633827,5904.754693595217
1.388,1.0262676556233314,5900.818683190792
1.392,1.0199591256976273,5903.173981009799
1.396,1.005955701473596,5898.1112347649
1.4,0.9880084687044471,5897.072465998423
1.404,0.9695854992806278,5895.756256139194
1.408,0.9531154950169008,5909.618980761369
1.412,0.939876632831674,5899.667166809491
1.416,0.9303610774187221,5905.010498067772
1.42,0.9247057872321669,5901.857246392563
1.424,0.9228330145971458,5892.865949388495
1.428,0.9242731334164788,5901.100768318172
1.432,0.9279727014104373,5905.153341156515
1.436,0.9324059599491297,5901.257347763222
1.44,0.9360175947082157,5903.805695920926
1.444,0.9377559548980906,5907.738878111553
1.448,0.9374418921619898,5904.398629332265
1.452,0.9358654501870571,5896.811996021972
1.456,0.9346236625488488,5896.22256393188
1.46,0.9357676772471627,5897.629465040713
1.464,0.9413392624055866,5894.244338498167
1.468,0.9528454439966199,5897.84861028594
1.472,0.9707092492498502,5901.781141866043
1.476,0.9938259864970617,5905.911615516426
1.48,1.0194718159401817,5901.071688384303
1.484,1.043763045643307,5899.959289455655
1.488,1.0625957156667365,5891.820237179616
1.492,1.072701098652697,5894.258585499571
1.496,1.072389813757095,5898.268364682687
1.5,1.0617671509930917,5902.308284571784
1.504,1.042485996196391,5895.6337476247445
1.508,1.0172539622679244,5902.441646412937
1.512,0.9892983937068626,5899.792483137262
1.516,0.9619112016355454,5900.061019320008
1.52,0.9381140331220028,5898.863105902447
1.524,0.9204197733756977,5904.405553030089
1.528,0.9106381462402524,5890.687726422057
1.532,0.9096992602295755,5892.804391264056
1.536,0.9175195197527025,5902.598010421404
1.54,0.9329476928835072,5888.746727993451
1.544,0.9538030030210116,5903.471192754962
1.548,0.9770231406604437,5900.778546880723
1.552,0.9989925641531133,5906.195945114894
1.556,1.0161191850762759,5897.5851629595545
1.56,1.0255929769147556,5903.918115262404
1.564,1.026074428697587,5907.647037535578
1.568,1.018001671758193,5904.400274621373
1.572,1.0033594843777471,5895.001105608131
1.576,0.9850173907001533,5900.961149424234
1.58,0.9659274539239532,5900.179801777392
1.584,0.9484842579909396,5894.643568376984
1.588,0.9342365715506309,5893.160082837045
1.592,0.9239785690843486,5901.102751619475
1.596,0.9180868586675136,5895.557368385747
1.6,0.9168611783582578,5903.06339172237
1.604,0.9206413054214241,5894.599727836577
1.608,0.9296321267251858,5895.32547938843
1.612,0.9435642414687258,5896.306838936621
1.616,0.9613813501085409,5901.759244416403
1.62,0.981065446736077,5896.982882295832
1.624,0.9996463347432687,5907.152823266544
1.628,1.013468242923093,5903.66945946547
1.632,1.0187861090534776,5901.892953187216
1.636,1.012647882777498,5901.808097767727
1.64,0.9938714131537973,5899.673404363136
1.644,0.963840440712771,5896.960053171714
1.648,0.9268023066402422,5901.143519637056
1.652,0.8893626289295483,5903.530466537176
1.656,0.8590730661242079,5897.447167071324
1.66,0.8424214449872305,5908.139323445071
1.664,0.8429134697402748,5895.739150714183
1.668,0.8599986653592226,5895.811674223528
1.672,0.8892877052776363,5897.713587684304
1.676,0.9239879434573182,5897.88001577838
1.68,0.9569863437819038,5890.081987463421
1.684,0.982771996078841,5894.221708293972
1.688,0.9985348471824971,5896.261563207321
1.692,1.004226197982268,5899.705162651816
1.696,1.0018627732422296,5898.737414336636
1.7,0.9945875435770175,5899.833755495681
1.704,0.9858585561754066,5887.847819569743
1.708,0.9788380500998646,5901.08822438049
1.712,0.9758905452403936,5900.128941721114
1.716,0.9781518690358574,5900.931708134187
1.72,0.9852711338549631,5895.664595736735
1.724,0.995482031391455,5892.863273585245
1.728,1.006064099663294,5901.547943822699
1.732,1.014093528319267,5892.687178520128
1.736,1.0172871970611645,5900.343367928504
1.74,1.0147445184706654,5900.992948521208
1.744,1.0074108006190419,5891.2879897963785
1.748,0.9980809200241347,5910.103700944986
1.752,0.9908220059013687,5891.681283655603
1.756,0.9899023424486604,5903.607753773466
1.76,0.9985609468114363,5892.212625432336
1.764,1.0180371858151258,5905.7379522482925
1.768,1.047169427923084,5900.382488455274
1.772,1.082673592894983,5898.091642824056
1.776,1.1199861092049517,5898.889907217135
1.78,1.1543541507396204,5900.096134157219
1.784,1.1817955214682907,5901.628178385063
1.788,1.1996681819396062,5902.1232074410445
1.792,1.206782257048786,5902.842483144431
1.796,1.2031552997822517,5895.730346507494
1.8,1.1896126192416319,5902.591688720682
1.804,1.167444836419503,5899.934056178349
1.808,1.1382727848543097,5900.957345700673
1.812,1.1041609578494664,5896.041963577354
1.816,1.0678504692681314,5901.262698763984
1.82,1.0328178611845857,5901.786262269587
1.824,1.0028825930923462,5901.182786109281
1.828,0.9813451951863981,5901.549612279019
1.832,0.9699771249216669,5902.451796927387
1.836,0.9683623702280815,5895.833467429541
1.84,0.9739748854588042,5900.471033989939
1.844,0.9830205783072798,5912.572704316247
1.848,0.9916819459895949,5893.843456735036
1.852,0.9972019777888738,5902.827998761701
1.856,0.9983580907212691,5888.445261235803
