时间(s),电压(V),幅值(高频80K)
0.0,0.9995365898710318,5891.043934367484
0.004,1.0309488359843018,5899.53376277067
0.008,1.059520445349739,5899.518828704484
0.012,1.0850342129122064,5902.752921484456
0.016,1.1097783302226376,5894.326925421628
0.02,1.1377041277462676,5903.273468428161
0.024,1.1725363466142256,5905.894693116944
0.028,1.2158735804652525,5895.113120519516
0.032,1.2661614609929839,5900.985201546799
0.036,1.3189155671153148,5897.007432092553
0.04,1.368071778907678,5896.368302619695
0.044,1.4079362657513856,5898.709423865636
0.048,1.434897567190985,5907.252503657809
0.052,1.4480976032045534,5895.352583050841
0.056,1.4488498702383117,5907.759135051692
0.06,1.4393941368246213,5902.181522836847
0.064,1.421890956326316,5898.993977124567
0.068,1.3981221540851225,5908.696162798772
0.072,1.3696787660490264,5900.130887823714
0.076,1.338211680097835,5899.14531069181
0.08,1.3056812854543685,5888.163302563177
0.084,1.2748151655175366,5900.9025291902935
0.088,1.2496814531257339,5906.164633834089
0.092,1.2357814277171055,5891.940255459336
0.096,1.2390685460706843,5898.596532626545
0.1,1.263956237164938,5901.341005830761
0.104,1.3111234836012853,5907.063448396065
0.108,1.3761415613000083,5896.20407926675
0.112,1.4495823301013762,5895.831259553151
0.116,1.5187480674274354,5903.799561871736
0.12,1.5707064412480616,5899.41427817737
0.124,1.5958099144702507,5895.507312586802
0.128,1.5904403806735727,5904.105755534279
0.132,1.5578329120207512,5903.195986850561
0.136,1.5066787194899856,5900.13661028608
0.14,1.4482237023541475,5903.878081064352
0.144,1.3930271564578478,5898.392449345832
0.148,1.3483267528995533,5900.263995456102
0.152,1.316560309146631,5907.2328442285325
0.156,1.295346368102772,5896.371352755718
0.16,1.2789547981544975,5907.288376967751
0.164,1.2608234718594058,5902.672688590707
0.168,1.2362274164864235,5899.736930946626
0.172,1.2041457712955528,5903.261433729763
0.176,1.1677265299914699,5899.673652705163
0.18,1.1332560047941893,5910.597897333921
0.184,1.1080127604230323,5892.966703691349
0.188,1.0977649704465695,5901.419421403617
0.192,1.1048163564304048,5898.859767309745
0.196,1.1272749561092936,5913.083274525875
0.2,1.159707075677633,5894.7719817806565
0.204,1.1948197189544572,5895.161358249184
0.208,1.225506966376523,5894.898308543669
0.212,1.2465885587933814,5889.505311187844
0.216,1.2558129633208663,5904.82978629457
0.22,1.2540071044309267,5890.013479022993
0.224,1.2444573733768622,5906.055100415763
0.228,1.2317024415341797,5902.649256837626
0.232,1.2200351694709324,5901.656882764849
0.236,1.2121977302014662,5891.957384803044
0.24,1.2088223720506965,5893.70868190537
0.244,1.2088401980538852,5902.409417951856
0.248,1.210459278703593,5900.846848420604
0.252,1.2119932420812005,5904.61135614851
0.256,1.2121613257065549,5898.746712601464
0.26,1.21008884177373,5892.747742131376
0.264,1.2054758761377342,5897.518031970225
0.268,1.1990954830999838,5903.39521260568
0.272,1.1932747289143886,5904.707102229139
0.276,1.1918033414539704,5894.19367464677
0.28,1.1990253368901862,5901.090655093957
0.284,1.2184078950418415,5898.243441394587
0.288,1.2511647047293617,5899.961027081753
0.292,1.2954021274159713,5898.180569483857
0.296,1.3460146507684052,5898.561944240797
0.3,1.3953971160090428,5895.518618296779
0.304,1.434881523128811,5893.382400802995
0.308,1.4565342425762902,5890.690888127855
0.312,1.454762586718257,5902.992403011677
0.316,1.4273463429425997,5891.611646739503
0.32,1.3758778447200388,5901.43659036686
0.324,1.3057437091252935,5898.364244015876
0.328,1.2256373065846486,5893.414091518433
0.332,1.1464689478597472,5903.675032063573
0.336,1.0796431683131267,5902.4362330602125
0.34,1.0349287299755208,5903.723663261395
0.344,1.018439577259082,5904.013213578389
0.348,1.0314123775539137,5896.010325289203
0.352,1.0702532905102915,5901.982663234406
0.356,1.127737297380768,5905.079866780988
0.36,1.1947395758637613,5907.294751515189
0.364,1.261861504035378,5901.235786700996
0.368,1.3206522787158606,5905.272246803951
0.372,1.3644545985039949,5901.0466969947975
0.376,1.389062441090583,5901.297206250192
0.38,1.3933583838829888,5905.1314974181705
0.384,1.3798747676250205,5896.674374421236
0.388,1.3549114876953399,5897.477571729623
0.392,1.3277415292518753,5907.237476178
0.396,1.3087323820133365,5903.82351398174
0.4,1.3067611420246872,5891.663776910252
0.404,1.3267388973257517,5905.561178990567
0.408,1.368092194441048,5889.302497794478
0.412,1.424677828284717,5900.909345617315
0.416,1.4861138723253966,5903.513028229997
0.42,1.5401927876905053,5897.438559488565
0.424,1.5759332249065368,5900.056657355403
0.428,1.5866844597466547,5901.545617472598
0.432,1.5723847964591637,5901.891253475951
0.436,1.5399143060153617,5893.436557274428
0.44,1.50098073569065,5895.010944612584
0.444,1.4681332908024705,5897.574298439331
0.448,1.4505752860459062,5896.647686036517
0.452,1.4516033835001714,5900.789865541653
0.456,1.4686094361760684,5903.572445868146
0.46,1.4952822354992625,5900.748627444841
0.464,1.5247130642672067,5891.951100448638
0.468,1.5519262495841986,5902.653802800044
0.472,1.574850835659571,5899.4112270589285
0.476,1.593578638415803,5908.347368786493
0.48,1.6085422612527422,5908.656081356351
0.484,1.6186906453340342,5899.85812372068
0.488,1.6206640377970283,5905.643550279839
0.492,1.609459578694335,5904.585017667327
0.496,1.5804245595294215,5892.37469286509
0.5,1.5318583191640758,5892.966456588299
0.504,1.4671697773025763,5894.154115572155
0.508,1.3955371869997382,5900.66412643481
0.512,1.3304277516083602,5898.833574354914
0.516,1.286102626573065,5900.991661647553
0.52,1.2731192900233317,5903.361428665341
0.524,1.2944523546292659,5896.851951516054
0.528,1.3438242673742207,5896.272985662886
0.532,1.4070965997838172,5899.489497213415
0.536,1.4664023058719091,5901.839639794539
0.54,1.505610436257954,5897.606028184629
0.544,1.5152172169730143,5901.707891026519
0.548,1.4950590243808881,5896.193396710481
0.552,1.45411560681347,5898.754069630173
0.556,1.4076499444866848,5891.89606490468
0.56,1.3726352464382154,5895.559037950233
0.5640000000000001,1.362762265715884,5910.643827953581
0.5680000000000001,1.3844173082387006,5895.511001886625
0.5720000000000001,1.434856841745176,5901.523081397568
0.5760000000000001,1.5031835944688363,5900.965609174975
0.58,1.5737158226580683,5898.840589636896
0.584,1.6304586195128037,5908.384093704164
0.588,1.6611566330389482,5896.789580833859
0.592,1.6598602306160921,5898.442043202794
0.596,1.6276602014807737,5899.09673261199
0.6,1.5717795034967474,5895.944121343726
0.604,1.5033820621092207,5894.76235530986
0.608,1.434496255264505,5902.472235331416
0.612,1.3746872177302032,5898.867561337221
0.616,1.328477168090148,5898.630258656386
0.62,1.294546513739754,5900.423827563491
0.624,1.2671725457938432,5903.474549043185
0.628,1.239399993576053,5899.6964028912125
0.632,1.206626307460158,5899.498875338851
0.636,1.1691125631233865,5899.442092373535
0.64,1.1324680038694022,5894.519746397943
0.644,1.1059963231273693,5902.024073528653
0.648,1.099497146636494,5910.657456364634
0.652,1.1195793929197457,5896.351524464266
0.656,1.166785932103763,5902.483807723483
0.66,1.2347032163571667,5909.633220986058
0.664,1.3115610336839918,5898.913067718404
0.668,1.3837679579327191,5908.241323397037
0.672,1.4399159808761264,5896.502749914337
0.676,1.4736150644582673,5892.745063440373
0.68,1.484237558929704,5896.944238988792
0.684,1.4757543141664782,5903.40328238928
0.6880000000000001,1.4545814943756337,5890.405281833491
0.6920000000000001,1.4274311131441748,5904.700708739766
0.6960000000000001,1.3998121690366432,5901.709407031255
0.7000000000000001,1.37538915561954,5897.815894252703
0.704,1.356035917754907,5908.388358268408
0.708,1.3422273973319343,5900.322337240584
0.712,1.3334538953842616,5900.466558463067
0.716,1.3285427472881444,5905.858095555385
0.72,1.3259404818467166,5901.609838650616
0.724,1.324039536268457,5893.596130089206
0.728,1.321576140481773,5888.666513151137
0.732,1.3180392876524956,5906.063868404258
0.736,1.3139271557910852,5900.800414788528
0.74,1.310653850112818,5903.108555583038
0.744,1.3100673173181872,5897.671686449676
0.748,1.3138056423802196,5898.837428739937
0.752,1.3228322928452603,5900.862478713419
0.756,1.3373316696391153,5900.224909821527
0.76,1.3568604746046606,5897.179774022887
0.764,1.3804895234474288,5900.491905670105
0.768,1.4067868712033547,5901.390661024768
0.772,1.4337778514490476,5907.231642330299
0.776,1.4591553546455165,5900.660353871379
0.78,1.4808191218816784,5898.8735360287965
0.784,1.4974672024051028,5894.38303658743
0.788,1.5087976094540727,5908.112567386296
0.792,1.5151008157197674,5902.516147727802
0.796,1.5164912463962252,5903.040895237187
0.8,1.5123279055137657,5898.711468901743
0.804,1.5012225842694866,5905.109731053517
0.808,1.4816173176384821,5903.35259553084
0.812,1.4526258591761192,5897.90692398972
0.8160000000000001,1.4147777907784393,5896.179299606955
0.8200000000000001,1.3703721653578291,5889.459673409147
0.8240000000000001,1.3233156272653095,5904.122614791486
0.8280000000000001,1.2785360901666907,5904.379288327788
0.8320000000000001,1.2411763188801304,5904.436940054443
0.836,1.2157490139024867,5895.140712590164
0.84,1.2053978707057584,5886.405864962332
0.844,1.2114077928649962,5895.421106589609
0.848,1.233061763745485,5895.264978424211
0.852,1.267816271575721,5893.636136914866
0.856,1.3116541051001807,5901.208397497358
0.86,1.3595008170122551,5893.536174839917
0.864,1.4057628684010237,5899.2706833839175
0.868,1.4451375541982348,5899.684258205796
0.872,1.4736320811201726,5895.23058154778
0.876,1.489383321607095,5904.253958596127
0.88,1.4928285804235375,5904.048692264068
0.884,1.4861403282971886,5896.915248142134
0.888,1.4722259703499634,5900.9719032427965
0.892,1.4536851813868001,5899.298147891175
0.896,1.4320024944374496,5897.050504647036
0.9,1.407173844568704,5905.403995304374
0.904,1.3779426153954089,5894.406164473418
0.908,1.3426705163720651,5900.667267951701
0.912,1.3005419045431084,5903.121726531547
0.916,1.2525535212185819,5893.016814750848
0.92,1.2018437751943198,5910.139214638477
0.924,1.153292447716045,5900.474371320713
0.928,1.1126475593209355,5887.874615509201
0.932,1.0854896204222475,5897.357408743098
0.936,1.0762066983158693,5893.994248918007
0.94,1.0870833403651357,5901.305168609548
0.944,1.117690996865804,5887.778215224578
0.948,1.16482788552602,5906.468835516834
0.952,1.2231254972507366,5892.292579055868
0.956,1.286160197760867,5903.39147020635
0.96,1.3476776959489325,5899.6127292691735
0.964,1.402552281231465,5905.3014374240265
0.968,1.4473302413606517,5894.663435200897
0.972,1.4803837772368682,5895.431480413962
0.976,1.501715647261703,5892.765225168495
0.98,1.5124683963620815,5890.929504906694
0.984,1.5142961981792105,5892.404526674229
0.988,1.5088515292882918,5897.498143173049
0.992,1.4976146003627,5897.704690666848
0.996,1.4820919905055885,5902.929606869213
1.0,1.4641099127496375,5904.434273299281
1.004,1.4458241201347417,5900.344360548446
1.008,1.429341157087198,5903.415544252248
1.012,1.4162178578688964,5893.035829769374
1.016,1.4071740950461975,5890.6032351354415
1.02,1.4021014093863378,5895.18852439638
1.024,1.4001899201831038,5900.324735450994
1.028,1.39995761774119,5912.082474509101
1.032,1.3991313293605223,5900.40481931764
1.036,1.3945403940213403,5893.756405029696
1.04,1.382274021853744,5896.306174754072
1.044,1.3582642048084659,5898.631830991265
1.048,1.3192788834243208,5895.931397008454
1.052,1.2641240394822184,5902.592513086463
1.056,1.1946715762060256,5904.016765950506
1.06,1.116256583266351,5898.488039832452
1.064,1.037156912936601,5900.925812412993
1.068,0.9672110284423295,5906.140861812809
1.072,0.9159408484451618,5892.598242131883
1.076,0.8906968767420715,5901.180023726512
1.08,0.8952969941309493,5897.842095042755
1.084,0.9294135303203318,5900.506250424534
1.088,0.9887068433633618,5892.604702700996
1.092,1.065566968339829,5900.248292397356
1.096,1.1503300702723223,5897.761699045081
1.1,1.2328644357119358,5905.749553630242
1.104,1.3043582511768603,5899.609578957458
1.108,1.358983160730638,5900.768227693886
1.112,1.394962577215533,5901.277941700603
1.116,1.4146004265576295,5903.197455611511
1.12,1.4231103985380367,5903.31222155868
1.124,1.426549497345249,5896.711263995695
1.128,1.4295826701060952,5895.075782623471
1.132,1.4339528148507812,5897.825888266056
1.136,1.4382765856913806,5900.519073989724
1.14,1.4391640424044132,5899.684114195386
1.144,1.432948109331522,5901.711585887398
1.148,1.4170230457257347,5904.404147897251
1.152,1.3902376256408742,5909.68892664993
1.156,1.3526147069327654,5893.14433603158
1.16,1.3051401707485355,5904.643726677626
1.164,1.250097749202552,5902.490152165194
1.168,1.1917220541508524,5904.020261222933
1.172,1.1364642415091981,5900.649117778733
1.176,1.0923159118084182,5899.305561668608
1.18,1.0672068299588184,5900.265169774883
1.184,1.066960704636205,5900.567850474215
1.188,1.0934123109732556,5906.13148147285
1.192,1.1432151376355495,5900.009143893079
1.196,1.20778619528462,5898.767498703325
1.2,1.2746736705039976,5903.595195543058
1.204,1.3302414269915328,5897.567376901768
1.208,1.3630213219603844,5907.709789079365
1.212,1.3667033731370106,5897.760755602721
1.216,1.341772462822988,5906.757160167524
1.22,1.2952384450167815,5898.346082964097
1.224,1.238525432406646,5899.048728066012
1.228,1.1841766374304334,5898.1528588448255
1.232,1.1424252031651934,5897.040212176863
1.236,1.118710183900609,5898.729216199986
1.24,1.112831810230051,5903.874018271978
1.244,1.1198029897110027,5893.82256213079
1.248,1.1318355398374607,5903.293782207026
1.252,1.140576940954732,5899.016492802242
1.256,1.1388647026360021,5890.005222586669
1.26,1.1217840951528497,5892.025956093979
1.264,1.087297391288703,5900.876518869815
1.268,1.0367699864135047,5902.459403961801
1.272,0.9753389590802224,5887.292466515884
1.276,0.9116591354208889,5897.518992645346
1.28,0.8565698460485263,5908.356972997626
1.284,0.820729599443281,5898.317580466294
1.288,0.8119287758301775,5896.288440814255
1.292,0.8331313667149837,5905.054960584376
1.296,0.8820451380925143,5896.605253633197
1.3,0.9523296477150728,5901.0719890399705
1.304,1.0358313654803122,5896.451224001078
1.308,1.1248059902095817,5902.31523399525
1.312,1.213130746143992,5904.844966149241
1.316,1.2961033991727997,5894.440913169519
1.32,1.3693207614240988,5904.515590799068
1.324,1.427700718188992,5904.000892838764
1.328,1.4655075600580292,5897.550448908513
1.332,1.4774882250337718,5896.885667048654
1.336,1.4605525984629797,5899.621350980166
1.34,1.4152146157705616,5905.546965010053
1.344,1.346207399529903,5898.09535735724
1.348,1.2620941398851855,5903.8501093108125
1.352,1.174096437413906,5907.411875980775
1.356,1.0944899546835571,5896.759635358516
1.36,1.0347077790337977,5899.666180650469
1.364,1.003118317137427,5894.359704093893
1.368,1.0027345298514652,5905.697191930642
1.372,1.0296979950066967,5908.077636433405
1.376,1.0735696478648427,5906.985365247576
1.38,1.1198365679564204,5899.192993950474
1.384,1.1539774744479872,5898.603970605244
1.388,1.1656425894072062,5899.761020196552
1.392,1.1514247536258375,5900.606583982854
1.396,1.1153157294207268,5904.1582388184015
1.4,1.0669272220540142,5895.114636760201
1.404,1.0183835872587643,5902.14184067622
1.408,0.9810571623836272,5895.68167466585
1.412,0.9630748721302967,5898.776913807976
1.416,0.9681092552873688,5902.175156713864
1.42,0.9955223424921175,5902.578685633689
1.424,1.0414531086819883,5901.150521239428
1.428,1.100145675372946,5900.161179682633
1.432,1.164974789425343,5899.662364586577
1.436,1.229077443993243,5904.802759854582
1.44,1.2858096750825843,5905.391645639357
1.444,1.329259044112933,5908.467158877057
1.448,1.3549082144201263,5902.34577782514
1.452,1.3603539430154112,5905.603535922426
1.456,1.3457674061543108,5902.275768160239
1.46,1.3137559224755289,5903.962851860876
1.464,1.2686360755234911,5899.66674185168
1.468,1.215569350528629,5905.755956285558
1.472,1.160055175043487,5898.993865142081
1.476,1.1078555339149094,5910.964340204825
1.48,1.0649454552347353,5908.27711746714
1.484,1.0369809930446479,5900.756511243062
1.488,1.0281467726243072,5908.768776693631
1.492,1.0397829006676353,5905.711384680352
1.496,1.0694720266759554,5903.740332700008
1.5,1.1111262145974172,5898.622795860927
1.504,1.1561986247976845,5902.768007812629
1.508,1.1956713327839934,5903.558780457895
1.512,1.2221074921588924,5903.105782252433
1.516,1.2310090908692704,5905.140049537157
1.52,1.2211038757087898,5907.579087050167
1.524,1.1937696055597413,5889.112728500475
1.528,1.1521589317343857,5913.36098931362
1.532,1.100502089433443,5896.467181221487
1.536,1.0437187055228552,5914.060413782661
1.54,0.9871890998954213,5907.575095528092
1.544,0.9364559236050998,5895.504234535293
1.548,0.896690225070087,5902.682815940879
1.552,0.8719031509435039,5906.793165539396
1.556,0.8640772608376068,5909.92688593397
1.56,0.8725510821267752,5903.016422140744
1.564,0.8940194188101888,5907.8077713096245
1.568,0.9233145100566058,5904.855072344364
1.572,0.9547252084953405,5919.2715514225565
1.576,0.9832552681439309,5895.045770429812
1.58,1.0052567564644896,5896.255610798656
1.584,1.018353406012461,5905.337293248268
1.588,1.0211130936085484,5914.073487639111
1.592,1.0130146716617416,5900.875658511096
1.596,0.9947820501347988,5894.03144851157
1.6,0.9686319338958586,5909.638258784761
1.604,0.937939761960815,5902.279813793838
1.608,0.9062755837947375,5901.897485596194
1.612,0.8762927276936189,5895.166518735249
1.616,0.8491753162838432,5905.453682804447
1.62,0.8250621694971164,5902.692096250452
1.624,0.8041482187993418,5890.640792844973
1.628,0.787528629578359,5892.878335843676
1.632,0.7769245611300631,5908.928148914498
1.636,0.7732792705369522,5916.513032267586
1.64,0.7751687399449845,5899.924897552955
1.644,0.7782347203771889,5904.973389143154
1.648,0.7762168174064911,5905.287874626232
1.652,0.7631766984309828,5902.496074151094
1.656,0.7358954170465986,5906.776930389367
1.66,0.6954326077708554,5905.530568690426
1.664,0.6472642878632815,5895.028336245059
1.668,0.6000335987338463,5904.894029100244
1.672,0.5635107971019407,5901.168132094217
1.676,0.5465070585153553,5902.755469438946
1.68,0.5551442571895535,5895.14795927401
1.684,0.5915120791455023,5906.600745240047
1.688,0.6527862394746956,5909.269849480721
1.692,0.7311655444026098,5902.180355589221
1.696,0.8150047001856284,5904.641696391751
1.7,0.8911047409234,5900.724954985663
1.704,0.9475881396841478,5897.426121072238
1.708,0.9765162786304219,5906.775660108797
1.712,0.9755004387991976,5895.930428863899
1.716,0.947886203227544,5903.071843561904
1.72,0.9015303234495767,5906.954913657536
1.724,0.8466142080426611,5899.547546370149
1.728,0.7931678177493944,5897.04151132469
1.732,0.7489543415981061,5906.469894659818
1.736,0.7182159967155193,5903.287701807145
1.74,0.701546653080542,5899.8516164313
1.744,0.696760488324953,5900.825023891016
1.748,0.7001983337760207,5906.309381733647
1.752,0.707802235072899,5903.962732650677
1.756,0.7156398137564951,5902.782147281222
1.76,0.720102206130816,5910.0605159804745
1.764,0.7182533269288505,5897.5717891448085
1.768,0.7085076849471394,5910.75701531262
1.772,0.6912466760575494,5904.530495967255
1.776,0.6687628315790557,5903.515031517414
1.78,0.6443002205646984,5908.935127434737
1.784,0.6206032556529864,5902.220181075749
1.788,0.5987873043393616,5917.72323807885
1.792,0.5782087574821873,5900.859049432311
1.796,0.5574345585314094,5902.585639538004
1.8,0.5358093511558364,5907.037210255931
1.804,0.5148381892629185,5894.650566353539
1.808,0.4986765361597543,5906.102203584944
1.812,0.49334211798538985,5901.238452701394
1.816,0.504727142476813,5907.169269165531
1.82,0.535972833963182,5902.103918764576
1.824,0.5851863680964173,5904.390363809806
1.828,0.6446821042196137,5901.515013030791
1.832,0.702554191023181,5908.806970205229
1.836,0.7462746182532076,5900.832617162203
1.84,0.7667744477160722,5905.825124189175
1.844,0.7611191469192228,5905.471493940322
1.848,0.7327531473944701,5902.354148619337
1.852,0.6896546326876644,5900.24574115797
1.856,0.6416148758204495,5908.760211967378
1.86,0.5977917857526173,5903.324125870258
