时间(s),电压(V),幅值(高频80K)
0.0,1.327383534180395,5895.862865069421
0.004,1.3341775434480572,5898.942745420101
0.008,1.3387402644115591,5902.619823015507
0.012,1.3396215499482567,5895.696097129273
0.016,1.3370049983450798,5903.735800807908
0.02,1.3322674459443071,5904.421953327011
0.024,1.3270189861627888,5903.950275048406
0.028,1.3222591568443187,5901.788639930568
0.032,1.3180751056186781,5887.219911706232
0.036,1.3138806475680074,5898.173387344257
0.04,1.308968279705269,5907.910333296647
0.044,1.3031554461153259,5899.132975016264
0.048,1.2973015901536162,5908.073429723124
0.052,1.2933945472083048,5906.870662940837
0.056,1.2939884044247543,5887.607666067722
0.06,1.3011095167035482,5904.376277913412
0.064,1.315048413771272,5900.387040502876
0.068,1.333480622892151,5898.0586686930565
0.072,1.3512408089218355,5899.595864283575
0.076,1.3610041800624988,5914.725717427405
0.08,1.354999801748912,5899.181372430669
0.084,1.3274900344152187,5898.635151949538
0.088,1.2772191662706642,5901.559367337925
0.092,1.2087990075807262,5905.321136471581
0.096,1.1323432632177233,5903.178807917459
0.1,1.0613785297800729,5894.16335081907
0.104,1.009682682806646,5897.708062124289
0.108,0.9879611783308223,5899.352721826664
0.112,1.0012286097449155,5903.881625917714
0.116,1.0476052873966075,5903.864342805537
0.12,1.1189785806142554,5903.429808084336
0.124,1.203416608119644,5897.958506995525
0.128,1.2884213037444128,5897.207641278581
0.132,1.3636742620154951,5898.207644044141
0.136,1.4223549416347592,5898.302813742976
0.14,1.4610708117384885,5911.869600217217
0.144,1.4791427767006295,5898.060070575457
0.148,1.4779951893385552,5899.034764936149
0.152,1.4608811695162056,5903.354992994542
0.156,1.4326637505790953,5901.42725796
0.16,1.3992904302138767,5900.257436600751
0.164,1.3668779824817765,5901.560316632388
0.168,1.3406175469916473,5899.982207523979
0.172,1.3238546688433515,5900.387029104477
0.176,1.3177022806697856,5901.060179593563
0.18,1.3213389172461234,5902.775488987268
0.184,1.3327550099477308,5909.037818571583
0.188,1.349450091598651,5898.5582042183605
0.192,1.3687301753848418,5908.846453120938
0.196,1.3876723840371474,5904.844255772609
0.2,1.4031260649428228,5898.809139621154
0.204,1.4120742067934136,5904.571501665401
0.208,1.4123553733945535,5898.467982233432
0.212,1.4033964196746525,5897.714306975993
0.216,1.3864791005995154,5909.726655416442
0.22,1.3642692034747348,5900.428537297057
0.224,1.3397866518911405,5903.077453808507
0.228,1.3153953843340809,5899.391381341735
0.232,1.292406455258423,5900.248361495653
0.236,1.2714785989625557,5897.325417758594
0.24,1.2534957419203405,5902.984125474175
0.244,1.240326554865856,5895.534715376523
0.248,1.2349062767095766,5903.241877799414
0.252,1.240399031279198,5893.004680903226
0.256,1.258736146365778,5906.304238654646
0.26,1.2893097892728307,5894.616830602274
0.264,1.3286065157704576,5896.700125135796
0.268,1.370982015658728,5889.096475237016
0.272,1.4100801562858862,5908.711476621072
0.276,1.4401947779316215,5897.176512849884
0.28,1.4572282851231855,5904.975776662782
0.284,1.4593132238812727,5901.478287421536
0.288,1.4471917097794171,5900.37808884534
0.292,1.4242013943887613,5898.434373788588
0.296,1.3956169176418871,5904.899408191419
0.3,1.3673159962779264,5903.210354119251
0.304,1.3441121107308993,5895.90721480389
0.308,1.3283943474503688,5897.617037192969
0.312,1.319718622532737,5897.609248858676
0.316,1.3155586489475732,5888.482810227721
0.32,1.312781843873593,5898.419206145222
0.324,1.3090707009060232,5898.368159009439
0.328,1.3036731230473504,5896.6149040759465
0.332,1.2972870761369657,5908.985700662372
0.336,1.2912605089842548,5895.888343147103
0.34,1.2865225749155336,5900.042652956736
0.344,1.282762964855555,5903.113144345692
0.348,1.2783012998832888,5899.412692643452
0.352,1.270791943864412,5903.442125710918
0.356,1.2584836736069445,5899.218353962312
0.36,1.2414446829920402,5895.822155917292
0.364,1.222164566308778,5897.355094602766
0.368,1.2052164377918901,5903.5693264538295
0.372,1.196035926981061,5901.522715272308
0.376,1.199226649259719,5905.190482727889
0.38,1.217021579860135,5908.621140578131
0.384,1.2484737465012923,5894.867689474105
0.388,1.2896008343279213,5901.314000142633
0.392,1.3342721790649208,5904.303022245192
0.396,1.3753769611959081,5904.563500284488
0.4,1.405888814723139,5906.168754121317
0.404,1.419749327128208,5895.383516262135
0.408,1.4127317135692419,5895.914055729324
0.412,1.3833735289583178,5898.685269416785
0.416,1.3337792696226185,5896.682897877236
0.42,1.2698969369779471,5898.186145494703
0.424,1.2009152407100239,5902.827520040503
0.428,1.1376597282199605,5895.371184871958
0.432,1.090241268017869,5893.478604288219
0.436,1.0656285121841513,5901.337502104035
0.44,1.065997212593724,5896.844878878563
0.444,1.0884544681536017,5904.757227416264
0.448,1.1261942722808835,5902.412624068711
0.452,1.1706179318267358,5900.7084114550935
0.456,1.2136393070368896,5901.779857769249
0.46,1.2493853968356823,5893.52491333472
0.464,1.27482698090656,5900.501054316728
0.468,1.2893832177147337,5902.2544456606
0.472,1.2939539844344907,5897.510954183968
0.476,1.2899575446007965,5903.266475335052
0.48,1.2787983709693227,5901.160611870419
0.484,1.2618709187034438,5906.0107950241245
0.488,1.240873340493902,5898.498760057547
0.492,1.21805170269891,5901.269084449494
0.496,1.1961243896694855,5898.347702959797
0.5,1.1779167360230756,5893.505529061751
0.504,1.1659066590313325,5890.465199487899
0.508,1.1618464698411322,5913.412622043255
0.512,1.1665201420014135,5899.466513911047
0.516,1.1796384795849155,5896.289401972352
0.52,1.1998367745480902,5896.925732781978
0.524,1.2247208490182129,5899.095979966454
0.528,1.2509987859785419,5907.741075711656
0.532,1.274877931331109,5898.908903013664
0.536,1.2928634221140831,5889.295370832687
0.54,1.3028086023968233,5908.552530730379
0.544,1.3047957623030533,5910.550749707337
0.548,1.3014104851559292,5902.862842118586
0.552,1.2971913621867206,5896.135130244848
0.556,1.2973311329394273,5893.854783885931
0.56,1.3059897488775853,5899.366661303402
0.5640000000000001,1.3248056075254688,5897.206989057173
0.5680000000000001,1.352204141314039,5906.54102435152
0.5720000000000001,1.3837757116717453,5899.446515571494
0.5760000000000001,1.413506132982,5898.755243749372
0.58,1.4353454968552966,5897.365430714671
0.584,1.4446230500627357,5898.417589094816
0.588,1.4390193008097503,5897.175279980832
0.592,1.4190029380301636,5900.178378072023
0.596,1.3877238428587444,5898.710095715829
0.6,1.3503758022393286,5889.815008916456
0.604,1.3131242830615673,5900.671832279631
0.608,1.2818092097436695,5911.102947183807
0.612,1.2606844347039354,5896.23873366836
0.616,1.2514815768740553,5895.964425197097
0.62,1.2530872076220971,5904.947888864617
0.624,1.2619465883093028,5893.688706307436
0.628,1.2729847195185688,5902.948980163577
0.632,1.2806789655870936,5906.596570366684
0.636,1.2800673915078644,5895.561040251094
0.64,1.26769208456667,5902.975834063599
0.644,1.2424829327913829,5898.303576558846
0.648,1.2063881030588395,5894.393036081206
0.652,1.1643925108473527,5889.555487600119
0.656,1.1236617896192023,5896.5815129567945
0.66,1.091897352527767,5898.574281464463
0.664,1.0753673029663444,5895.78270912791
0.668,1.0772460011123166,5898.249950478741
0.672,1.0967477165160295,5901.534920124666
0.676,1.1292049104573114,5899.700735899913
0.68,1.1669752315581141,5900.082667038705
0.684,1.2009803707063036,5898.676374419077
0.6880000000000001,1.2226809249747117,5906.024073425288
0.6920000000000001,1.2262019945143756,5899.553629154696
0.6960000000000001,1.2101072409529774,5899.333161489702
0.7000000000000001,1.1781943258501906,5899.605437005381
0.704,1.1389231511642848,5905.703018082944
0.708,1.1036096940481737,5907.313320012789
0.712,1.083915933393089,5899.82891154544
0.716,1.0892083457248525,5898.413405330732
0.72,1.1242341476683317,5899.972392743941
0.724,1.1875426298779,5897.107682854336
0.728,1.2711120108783653,5900.057680419619
0.732,1.3614941756271752,5900.800842900256
0.736,1.4423960568847556,5902.553593450289
0.74,1.4981482276572378,5897.813460896657
0.744,1.517186850427019,5913.598435801015
0.748,1.4946211531223015,5902.260707431549
0.752,1.433204765647701,5907.871899907677
0.756,1.3425369281726836,5900.246598498305
0.76,1.236905447352417,5900.525064326273
0.764,1.1325106985513103,5901.947626382064
0.768,1.0446959473099549,5903.200864093983
0.772,0.985483410716376,5905.0541471109
0.776,0.9615787019886791,5900.597753367456
0.78,0.9731643973920295,5900.186399181825
0.784,1.0139385287345135,5896.400713925002
0.788,1.072608305558615,5905.049601762124
0.792,1.135508409995626,5895.089741699156
0.796,1.1896097997773365,5894.772877053774
0.8,1.2251398332399575,5891.16002024516
0.804,1.2372168072642427,5903.729005011243
0.808,1.2261934377184167,5889.884447293271
0.812,1.1967969267395442,5894.494427933538
0.8160000000000001,1.1565229295735524,5899.892067122837
0.8200000000000001,1.1138665808084736,5891.139322227764
0.8240000000000001,1.0768119012327213,5899.74523772608
0.8280000000000001,1.0517403382482358,5897.687509814089
0.8320000000000001,1.0427585666723413,5895.475284323923
0.836,1.0514115724299173,5908.851202468117
0.84,1.0767336997424313,5905.0664414088415
0.844,1.115545708346077,5897.136548424409
0.848,1.1629127529395433,5897.753097822862
0.852,1.2127739594832019,5892.8351763499695
0.856,1.2588014040200834,5905.487732193258
0.86,1.2954367553610089,5895.337179739344
0.864,1.3188915240443837,5901.889312031785
0.868,1.327845487483749,5904.248927260092
0.872,1.323665165950519,5897.9402120805735
0.876,1.3101002998605076,5902.791740989142
0.88,1.2925161038108086,5892.864497698178
0.884,1.2767885157450611,5905.422757498223
0.888,1.2680831385509117,5901.308936166345
0.892,1.2698165210555412,5893.510850502121
0.896,1.2830395669890904,5901.08767387979
0.9,1.306292334276313,5902.073523103978
0.904,1.335832780376856,5903.449167977364
0.908,1.3661636215112791,5902.224541738575
0.912,1.3909012937949157,5900.292339951023
0.916,1.4040677581144279,5902.651876117362
0.92,1.40170175187339,5894.540610264453
0.924,1.3833366057778593,5902.15082771744
0.928,1.3526672524388028,5900.283097239713
0.932,1.3169103569165488,5899.675490857871
0.936,1.2849100853536268,5892.925676750985
0.94,1.2646318403972412,5895.35403589116
0.944,1.2609761372503827,5900.9585878714815
0.948,1.2746757224437342,5905.57709900635
0.952,1.3025122131156832,5904.50763223581
0.956,1.3385078806145658,5900.818541467781
0.96,1.3754300504437396,5908.532696740956
0.964,1.4060408638995248,5896.318929177452
0.968,1.4239195417683395,5907.379554239579
0.972,1.424048236042096,5901.973093216685
0.976,1.4034170377967663,5896.691316305251
0.98,1.361689975999662,5901.163794468501
0.984,1.3017038902357272,5904.918240953036
0.988,1.229452355800868,5900.897296484031
0.992,1.153330422579968,5895.848768151999
0.996,1.082731788497811,5898.90275753502
1.0,1.0263913883099902,5898.75051334176
1.004,0.9909305837469242,5897.032790787837
1.008,0.9798938674080518,5897.455409743728
1.012,0.9933792592427456,5906.064076602971
1.016,1.0282657466299014,5894.047551697004
1.02,1.0789292900675713,5900.116718936098
1.024,1.1381866041537934,5900.330348008292
1.028,1.1981819159556104,5900.251771443983
1.032,1.2511259297583046,5901.295693208519
1.036,1.290021978500388,5897.033422268661
1.04,1.3095191367896923,5895.171140932468
1.044,1.3068140878886094,5896.92602749853
1.048,1.2823303507855772,5901.294068357448
1.052,1.2399210551637483,5903.448729758929
1.056,1.1864986979305632,5904.018400226246
1.06,1.1311329111798907,5896.609800461376
1.064,1.083749587642846,5896.385077363297
1.068,1.0536453947547018,5901.139668968207
1.072,1.0480481767492307,5899.917417693625
1.076,1.0708839416775635,5896.229851514472
1.08,1.1218730466773006,5901.072623124197
1.084,1.1961304293860777,5910.517769575048
1.088,1.2844700539254925,5897.368328001201
1.092,1.374536849372486,5901.155334983505
1.096,1.4527543403415442,5902.272051925105
1.1,1.5068698579297097,5890.951620643757
1.104,1.5285801822076697,5898.164618496895
1.108,1.5154945614010955,5904.977064767217
1.112,1.47177207787705,5905.775458610976
1.116,1.4071769605077498,5896.66100076894
1.12,1.334820913513051,5898.412762292764
1.124,1.268257380217179,5898.201220476415
1.128,1.2187147671130367,5901.182283344822
1.132,1.1931176400521903,5897.25064963645
1.136,1.1932650292597375,5903.572015083469
1.14,1.216209063572623,5903.681804312638
1.144,1.255553539305317,5901.376956986734
1.148,1.3031742248646185,5903.380182919134
1.152,1.3508976294435877,5897.745548712149
1.156,1.3919258163931651,5903.390269903006
1.16,1.4219600710140954,5908.504491568052
1.164,1.43986333867775,5903.065574140296
1.168,1.4475539282494758,5900.409382212044
1.172,1.4489903807315283,5900.901982016244
1.176,1.4485410070115503,5902.104100509328
1.18,1.449368094133167,5904.193547907974
1.184,1.4524362860383409,5900.354048161237
1.188,1.4564057611780439,5901.711422933042
1.192,1.4582407737125065,5913.68734231431
1.196,1.4541325897958917,5900.882101788017
1.2,1.4404073708556389,5891.527593381288
1.204,1.4143242011389427,5904.839465197671
1.208,1.3748070484688368,5900.924972345013
1.212,1.3230534652833992,5893.688067203555
1.216,1.2627493254169706,5897.5620031354165
1.22,1.199573574055346,5898.068817987111
1.224,1.1399431816759316,5888.35302414057
1.228,1.0893716313777655,5896.204221822526
1.232,1.0510715014614687,5900.992746927396
1.236,1.0253439590386653,5900.569176295613
1.24,1.009974628936531,5895.833268684129
1.244,1.0014915040025836,5904.495489883738
1.248,0.9968283565502135,5899.893010378946
1.252,0.9947472822175791,5891.244864454045
1.256,0.9964174032087637,5894.810722390785
1.26,1.0048700372706052,5907.855541584313
1.264,1.0235454294168163,5900.456023040815
1.268,1.0545534569976187,5898.430354845659
1.272,1.0973418767446468,5900.430022002607
1.276,1.1482052180804445,5900.513602546617
1.28,1.2007210885753579,5897.212214486513
1.284,1.246965130058151,5907.516963102044
1.288,1.2792211103311668,5897.542635058053
1.292,1.2917914578153522,5894.300511822655
1.296,1.282443178044722,5909.452024085354
1.3,1.2530698206247592,5903.928365438785
1.304,1.2093362690883362,5898.003435305361
1.308,1.1593601022623814,5899.533872925492
1.312,1.111783334832614,5906.737697373388
1.316,1.0737754881473724,5893.309764121626
1.32,1.0495072963471554,5916.543625953286
1.324,1.0394746079436683,5898.22908010403
1.328,1.0407986462675485,5909.814394232898
1.332,1.0483423322468162,5899.878108386637
1.336,1.056262684924711,5901.946302044543
1.34,1.0595616554924578,5903.219041420011
1.344,1.0552847397970198,5904.285755133478
1.348,1.043145842380128,5908.040001005225
1.352,1.0254754226483942,5895.708357757731
1.356,1.0065158005887918,5892.262554194601
1.36,0.9912254483682793,5899.501270182055
1.364,0.9838752941198534,5900.559792852247
1.368,0.9868071226752658,5894.798211249135
1.372,0.9997330942078348,5905.059813327429
1.376,1.019803180070612,5892.832689300117
1.38,1.0423936753223033,5895.698176166081
1.384,1.062379263554977,5902.370353803582
1.388,1.0755995920287187,5898.744619692548
1.392,1.0801383521513264,5897.397943431809
1.396,1.0769106782308293,5901.699257968221
1.4,1.069200166346078,5905.082393398194
1.404,1.0612722297434218,5908.336719203293
1.408,1.0566945352156176,5901.154736393084
1.412,1.057170804657708,5899.882903741285
1.416,1.0624223074545645,5904.557207423432
1.42,1.07107861778662,5902.146183690194
1.424,1.0820005709310254,5904.828103139921
1.428,1.0952387707143383,5900.332688939946
1.432,1.1120326976059123,5909.856537771317
1.436,1.133825807404494,5906.012293576001
1.44,1.1609165632571077,5904.173648446955
1.444,1.1916062084847994,5901.395834468442
1.448,1.222345494234664,5901.114130405328
1.452,1.2487697675673257,5900.650993737832
1.456,1.2671228587322894,5898.037412988887
1.46,1.275515457405554,5899.014235555168
1.464,1.2745562854826862,5896.445027178036
1.468,1.2670625420939832,5906.150157179823
1.472,1.2568957419939661,5899.587239842625
1.476,1.247394793081791,5904.191292744218
1.48,1.2400726602426755,5909.755069764343
1.484,1.2340701546799064,5901.852230934484
1.488,1.2265270605315512,5910.917558132252
1.492,1.2137431943401673,5901.032479110972
1.496,1.192757150732782,5903.792128880406
1.5,1.1627717422098867,5901.676678270715
1.504,1.1258570341851941,5906.171358175015
1.508,1.086659158733634,5897.688360419112
1.512,1.051269043488443,5909.965270840689
1.516,1.0256871640837868,5899.079067406189
1.52,1.0143649028656407,5907.094266966241
1.524,1.0191906163586828,5896.676419394693
1.528,1.0390926070098812,5909.529887235249
1.532,1.0702288510188551,5905.651123558546
1.536,1.1066636491160602,5896.410538932501
1.54,1.141516775901326,5903.040310931753
1.544,1.16856956210525,5906.2845035113205
1.548,1.1840015985377106,5912.250974361702
1.552,1.187532477233531,5917.0692044595
1.556,1.1822731857166098,5901.332791674961
1.56,1.1732115166537656,5904.980963572695
1.564,1.1650272690181978,5902.032754875461
1.568,1.1602995705313943,5910.0060706663335
1.572,1.1589322462070821,5896.995043783818
1.576,1.1589454425184271,5897.224129818485
1.58,1.1580250310455704,5900.127900311589
1.584,1.1548433707894883,5901.254246734797
1.588,1.1494348248332167,5899.939573886309
1.592,1.1425974037648174,5901.848720635371
1.596,1.1348660542676305,5898.9884989739085
1.6,1.1257508655455004,5906.3641743163225
1.604,1.1137067918228838,5904.386042240392
1.608,1.0968754569587007,5910.20560519166
1.612,1.0741863586230953,5904.792871471469
1.616,1.0461401930857601,5906.982601610485
1.62,1.0147326259944394,5901.500239504214
1.624,0.9825201229741056,5901.605896357254
1.628,0.9514467422389684,5912.99869947566
1.632,0.92226064456561,5900.394842551943
1.636,0.8949506520642841,5899.821604135558
1.64,0.8698949901142188,5901.4027246459145
1.644,0.8488427316523942,5905.478591717648
1.648,0.8348476728369416,5898.665005515149
1.652,0.8309126359969323,5906.466128316181
1.656,0.8379927243046729,5904.591972767588
1.66,0.8535054012708607,5910.567556943058
1.664,0.871255083911216,5910.841179571101
1.668,0.8829499146197117,5907.629997728883
1.672,0.8807722862002023,5903.991227809351
1.676,0.8600575825927387,5907.779028988281
1.68,0.8210863969161905,5913.882444567005
1.684,0.7692872490064517,5910.621484072294
1.688,0.71372756116452,5911.736093210477
1.692,0.6644537993261623,5909.583446099976
1.696,0.6297014213701985,5906.044567330951
1.7,0.6139697123602861,5908.112949716803
1.704,0.6174767843888083,5901.314111107504
1.708,0.6368852174315448,5900.38416858304
1.712,0.6667675668952532,5914.704891128068
1.716,0.7012060167304726,5890.513423649399
1.72,0.7350862445144226,5904.099912176126
1.724,0.7648868545676522,5899.356115213294
1.728,0.7889681996433392,5920.390285256762
1.732,0.8074280174548731,5908.535324493368
1.736,0.8215475470309004,5909.318137827235
1.74,0.8329035054354812,5911.7838866565335
1.744,0.8424229691752021,5902.024522553988
1.748,0.8497827619469194,5905.685269689483
1.752,0.8534303976305591,5907.2415701453765
1.756,0.8512339588429069,5899.252487420327
1.76,0.8415344674907586,5901.629447528932
1.764,0.8242260043874763,5898.836036833649
1.768,0.8014261548231919,5915.351881399081
1.772,0.7773854607503583,5908.437355987934
1.776,0.7575492568905576,5906.012570699515
1.78,0.7470265894773307,5902.238945995677
1.784,0.7489809809269443,5905.677802631972
1.788,0.7635334130350926,5902.649666821129
1.792,0.7876289464003843,5899.84246183376
1.796,0.8159746886762517,5906.795846115446
1.8,0.84269409950751,5904.576692118098
1.804,0.8630028208733642,5906.803895605906
1.808,0.8742526909486267,5905.156255300149
1.812,0.87608288576448,5904.986816573737
1.816,0.8698615474023044,5901.106711624879
1.82,0.8578575662332569,5908.248202311609
1.824,0.8425769505921659,5898.312404796437
1.828,0.8264431032338708,5909.486076652049
1.832,0.8116593040254508,5900.493189398458
1.836,0.7999696990038373,5906.976707272296
1.84,0.7922417035760879,5898.988549772873
1.844,0.7880659155431141,5907.033728197882
1.848,0.7856245865805869,5902.940675507999
1.852,0.7819341154718465,5904.199770900313
1.856,0.7734087346350059,5906.442391317563
1.86,0.7566427795866074,5914.869819037033
