时间(s),电压(V),幅值(高频80K)
0.0,1.1264374194642444,5906.139611471694
0.004,1.1658064674173356,5901.003464778801
0.008,1.1992875652195432,5897.151261958798
0.012,1.2226459634834594,5906.057115181679
0.016,1.233253519215566,5898.770177035891
0.02,1.2304371422299425,5892.183964108837
0.024,1.215695714632315,5903.880489838422
0.028,1.1927088108202053,5891.261609440041
0.032,1.166838274507897,5903.854900415016
0.036,1.1439233713445727,5901.584832289172
0.04,1.1287124018217085,5901.337162134961
0.044,1.123708894906859,5897.377617579609
0.048,1.1289594005198376,5902.227015428293
0.052,1.1426192841715603,5893.162152911519
0.056,1.161802424238633,5896.81068048017
0.06,1.1834789180010648,5903.777425962393
0.064,1.205425224121889,5902.102563670904
0.068,1.2270330190279146,5899.135925517264
0.072,1.2495419877446614,5902.944672563228
0.076,1.2754638016580182,5898.931701093165
0.08,1.3074121498520088,5906.888986029447
0.084,1.3467549691647709,5898.337107370814
0.088,1.392435824411616,5900.313367668261
0.092,1.4403110121927565,5900.8047953828645
0.096,1.4834423803307384,5898.62518755054
0.1,1.5135972280918732,5893.759449894453
0.104,1.5235949519124972,5905.911688919301
0.108,1.5095480479928831,5901.586930393204
0.112,1.472035030263511,5898.830850446455
0.116,1.4158661589364208,5896.156005280745
0.12,1.3488528248840335,5907.65624341434
0.124,1.2802908342345474,5894.785162910227
0.128,1.2195918872686466,5895.256460028372
0.132,1.175071676678539,5905.694940225816
0.136,1.1528121753969005,5906.122851525788
0.14,1.1557438243705376,5903.51271175035
0.144,1.18323547682806,5905.596878265872
0.148,1.231334955815398,5896.413770760676
0.152,1.293573468021237,5896.907119856755
0.156,1.3621521545564945,5905.286594275651
0.16,1.4292941957031795,5904.765257752911
0.164,1.4884305243414786,5898.284226752861
0.168,1.5348315918548356,5901.825349071873
0.172,1.5655381470842729,5892.946218713979
0.176,1.5788622952513938,5904.074184873592
0.18,1.5739308326377013,5898.742386511196
0.184,1.5505644645683194,5897.1943856012
0.188,1.5094590802608006,5898.932168323113
0.192,1.4524618024474887,5905.397392529372
0.196,1.3828056171607557,5903.520209398457
0.2,1.3053230487013745,5892.264889137316
0.204,1.2266399036931508,5902.834854489718
0.208,1.1550882418762585,5907.662702902543
0.212,1.099883319109631,5905.986422232741
0.216,1.069364752635701,5903.62830941768
0.22,1.0687385036616133,5897.458530695587
0.224,1.098247903258508,5904.007572474753
0.228,1.1526350390477034,5899.579596409649
0.232,1.2222053650789562,5897.9628770373765
0.236,1.2951665985693155,5900.303908580145
0.24,1.3605057778575445,5907.585711589057
0.244,1.4105639772465508,5915.897484016052
0.248,1.442557451446372,5894.729217738498
0.252,1.4585423221046978,5897.5640720122965
0.256,1.463805877038051,5902.037319076074
0.26,1.4643031391552255,5890.989953913499
0.264,1.4641823157419365,5896.497457149336
0.268,1.4643540247473235,5887.512650457181
0.272,1.4625288627263973,5898.713958634854
0.276,1.454520890813895,5899.898395919493
0.28,1.4361898843711518,5894.391164079665
0.284,1.4052816083138628,5915.112767363543
0.288,1.3625774771664871,5903.834299704107
0.292,1.3120502190693446,5893.275954053065
0.296,1.260045530187337,5901.152420248405
0.3,1.2138436588179307,5903.795341307494
0.304,1.180164393733133,5903.91083963523
0.308,1.1640535600287472,5892.467991757206
0.312,1.168198388567274,5898.974738559175
0.316,1.1924611641937584,5904.790654090224
0.32,1.2335376037416208,5896.767447109928
0.324,1.2849150525576924,5906.331447913854
0.328,1.3373911207346654,5897.043880484858
0.332,1.380284735004345,5904.685996502491
0.336,1.403261704426362,5906.802931133765
0.34,1.3984771251571104,5899.78650293946
0.344,1.3625873938796222,5905.732396307201
0.348,1.2981477355792024,5899.001418963285
0.352,1.213901763901722,5901.210679720716
0.356,1.1235233876095827,5891.12692957647
0.36,1.0427439061269124,5894.969092603687
0.364,0.9855125905316454,5896.621595062669
0.368,0.9604192429425162,5889.469127278239
0.372,0.9685756388292317,5901.937796331835
0.376,1.0035883445330585,5898.087109049644
0.38,1.053578467890135,5895.456404336109
0.384,1.1046695554521173,5906.708022946028
0.388,1.1449923960780388,5904.873976445142
0.392,1.168043930541575,5898.74221367637
0.396,1.174298194251261,5899.602957537545
0.4,1.1704394627945847,5905.167445858839
0.404,1.1664087657674636,5904.74564922198
0.408,1.1713191971287502,5909.1948347552725
0.412,1.1898388553248822,5890.963690623691
0.416,1.2205531982201234,5909.758413669868
0.42,1.2569770121780375,5903.746089925641
0.424,1.2906196413030542,5905.321965186348
0.428,1.3145649093074687,5896.9063221840825
0.432,1.3259778454443916,5900.401886260342
0.436,1.3266648698259156,5892.125745160778
0.44,1.3217296634897016,5896.027617320109
0.444,1.317075535094766,5891.638565808436
0.448,1.3168479992133184,5904.448944225421
0.452,1.3218035453299022,5893.579386060154
0.456,1.3291172349419218,5900.168489998975
0.46,1.3336120371866715,5881.663151457919
0.464,1.3300092750600399,5899.035492640173
0.468,1.315476435553999,5898.001708344337
0.472,1.291468085325197,5904.633970649217
0.476,1.263920032491202,5900.417177919146
0.48,1.2415050463652975,5897.785435863363
0.484,1.2326116117029158,5898.01075379272
0.488,1.2423334654630893,5907.289675391473
0.492,1.270669939258321,5900.344900952068
0.496,1.3125207925357318,5890.75955239752
0.5,1.3593578126231713,5887.569447035023
0.504,1.4019012441099266,5906.00978724432
0.508,1.4328005763662297,5900.985524821333
0.512,1.4483858786841752,5904.712208823774
0.516,1.449056524173496,5906.036232893581
0.52,1.4384782059031724,5901.833955604901
0.524,1.4220859823109502,5898.825088945751
0.528,1.4053990425174876,5899.168999053289
0.532,1.3925530426419508,5908.067284236178
0.536,1.3853765353704268,5903.499642136161
0.54,1.3832213394920085,5902.915139196628
0.544,1.3835552410840455,5908.313000638717
0.548,1.3831005791780642,5910.065611212197
0.552,1.3791143791682978,5896.891129434936
0.556,1.3703173716577726,5903.068391583821
0.56,1.357100964866985,5895.824718339585
0.5640000000000001,1.3409712220114622,5908.114677821538
0.5680000000000001,1.3235388514890083,5895.655645593904
0.5720000000000001,1.3055638907694933,5898.966029049364
0.5760000000000001,1.28655383404617,5899.524917993849
0.58,1.2651435746732163,5896.140928018334
0.584,1.2400192386171578,5904.683109294895
0.588,1.210827009595979,5906.113610149183
0.592,1.1786228685786266,5900.684695997396
0.596,1.1457850311967466,5902.326353801429
0.6,1.1155427771241853,5901.400667277501
0.604,1.0913130537689204,5896.009604994253
0.608,1.0760367627338885,5901.237152534743
0.612,1.0716826241738802,5916.137203750554
0.616,1.0789869513292707,5891.77276136435
0.62,1.0973970331729022,5894.700434979229
0.624,1.1251572568051238,5913.99488131861
0.628,1.1594962681555667,5905.182486262635
0.632,1.196931594668939,5901.538107160459
0.636,1.2337816362479508,5900.023969926802
0.64,1.266924750724915,5894.561632828683
0.644,1.2946035873337258,5896.675579113768
0.648,1.3168506443480807,5902.565878295764
0.652,1.3351923212388515,5901.207045484564
0.656,1.351655504170522,5899.726526475252
0.66,1.3674518445792887,5903.737627640989
0.664,1.3818518128410127,5892.055947676361
0.668,1.3917210586490096,5894.932638758963
0.672,1.3920227383125365,5893.56205742308
0.676,1.3772880906386167,5895.496839178346
0.68,1.3436954658131122,5899.128681473034
0.684,1.291098502998287,5903.591693941104
0.6880000000000001,1.2242400483690503,5895.224349171997
0.6920000000000001,1.1526043156613168,5900.311373809446
0.6960000000000001,1.08883334302399,5900.240512200639
0.7000000000000001,1.046076685225334,5900.525938108006
0.704,1.0348674618124651,5905.038772666247
0.708,1.060223811802843,5904.31368523561
0.712,1.1197731789587737,5912.500193041049
0.716,1.2036385649528254,5899.54740528931
0.72,1.2964029318599097,5900.902053246678
0.724,1.3807678390583422,5893.452729720217
0.728,1.4418810572600926,5903.460208343553
0.732,1.470997109891213,5887.908521093705
0.736,1.467280682424926,5902.743114817505
0.74,1.4372011565289018,5896.775567675671
0.744,1.3918879151675017,5900.054189938087
0.748,1.3435309042435248,5891.389638684243
0.752,1.3020816479939283,5897.952952793488
0.756,1.2732375189103946,5902.844770324798
0.76,1.2581956718970986,5902.401849983772
0.764,1.255035040172431,5901.595539806522
0.768,1.2609956951755426,5880.867411140949
0.772,1.274636175065405,5904.204605001294
0.776,1.2969335701521878,5905.902913256237
0.78,1.3307757892000218,5899.444536306989
0.784,1.378964046096334,5906.449386182137
0.788,1.441630543147953,5907.454315247632
0.792,1.5143926238785608,5904.252486610557
0.796,1.5882457036213353,5902.640386474639
0.8,1.6513654276119896,5912.664649607572
0.804,1.6921873706486412,5899.00199307733
0.808,1.7026759401898985,5903.273121940819
0.812,1.6806136338529818,5890.723404257761
0.8160000000000001,1.6300741805075194,5897.787937051175
0.8200000000000001,1.559997158254579,5897.075274963274
0.8240000000000001,1.4816010940042887,5902.517332554814
0.8280000000000001,1.4056961507766526,5900.425085266722
0.8320000000000001,1.3406779791816221,5899.24141202687
0.836,1.2915273464391261,5900.040941257579
0.84,1.2598250517299767,5902.077586132914
0.844,1.2445451992004948,5901.30731144926
0.848,1.2431507207591008,5895.2017705478665
0.852,1.2524722900690455,5900.410319157221
0.856,1.2691117358841,5908.97560257128
0.86,1.2894734689700207,5905.455126664131
0.864,1.3097481025145088,5896.12250332111
0.868,1.3261695620594265,5898.020390424076
0.872,1.3356515373137923,5910.045729003074
0.876,1.336586847012358,5898.994930765217
0.88,1.3293925081931155,5900.161275744243
0.884,1.3164655202196185,5903.901012548874
0.888,1.3014915107842564,5894.741573959215
0.892,1.2883142154384464,5895.593786232213
0.896,1.2797365780680408,5900.206051407136
0.9,1.2766869824784586,5902.0080439944095
0.904,1.2781184112442454,5905.849060238444
0.908,1.2817725178908552,5895.68234316184
0.912,1.2855481698536635,5899.8015928280765
0.916,1.2888065287816062,5901.811898492172
0.92,1.2928324775984767,5898.135816288769
0.924,1.3000941491205118,5902.022186869042
0.928,1.3126876785179873,5897.381881836547
0.932,1.3308533591420604,5897.848661707845
0.936,1.3523592199501207,5900.135892077549
0.94,1.3730444054623738,5892.936773997257
0.944,1.388253842173045,5906.399390338064
0.948,1.3944991968817335,5902.31976454987
0.952,1.3906106317428228,5891.324648071551
0.956,1.3779792860250057,5905.022029990622
0.96,1.3599983975664742,5899.665175433322
0.964,1.3410796309934574,5904.329104731923
0.968,1.3255590957190564,5908.0674601099145
0.972,1.3167119758228936,5902.616425519982
0.976,1.3161279565846897,5907.255067171184
0.98,1.3236560669656332,5905.248201890116
0.984,1.3378640925854621,5895.449816566065
0.988,1.3566810304317152,5901.755735006294
0.992,1.3778353355695707,5899.861098533846
0.996,1.3988479180284055,5895.974760471123
1.0,1.416597297345081,5904.103164847721
1.004,1.4268138312526832,5902.545213660817
1.008,1.4241133617866246,5904.050414337486
1.012,1.4030537277382924,5890.778098183649
1.016,1.3601353539333987,5899.796555177666
1.02,1.295982537635615,5896.012453512448
1.024,1.216564373475431,5903.493086238102
1.028,1.1325676147461448,5906.934534244321
1.032,1.056919019501624,5898.186462691811
1.036,1.0014436580699173,5891.305153482299
1.04,0.9740275422936053,5903.121777601234
1.044,0.9772349630623703,5902.338947557806
1.048,1.0085251875378876,5900.357946411926
1.052,1.0615345553983426,5905.256405892367
1.056,1.12765387511956,5896.379708264105
1.06,1.1973856068878403,5896.959439527377
1.064,1.2614242803556537,5893.424856591246
1.068,1.3116551343908256,5901.101526647966
1.072,1.3421841578089244,5895.147375562202
1.076,1.350293618094062,5899.622470945257
1.08,1.3370679569962485,5907.805160403419
1.084,1.3074241055240476,5901.577133609933
1.088,1.2693877729178398,5897.843930025895
1.092,1.2326211066095605,5911.926271662658
1.096,1.2063848730653255,5893.977009222942
1.1,1.1973278283273012,5893.364414849262
1.104,1.2077286582915203,5894.139334433342
1.108,1.2349159051083975,5899.14536251699
1.112,1.2723193593810669,5900.958010037639
1.116,1.3119342465112522,5902.063087510278
1.12,1.3472662624825151,5900.934160844522
1.124,1.3755394910593828,5891.711481159412
1.128,1.3982478520443262,5894.6626239436255
1.132,1.4198136876221223,5886.811543108743
1.136,1.4448726609739095,5906.97641740056
1.14,1.4752721661586095,5900.982189279833
1.144,1.5080525362799009,5895.034398307196
1.148,1.5353549019982509,5900.886242369591
1.152,1.5464330838088274,5901.206372824279
1.156,1.5310754810237637,5899.4586910559965
1.16,1.4832006899717973,5902.870109568471
1.164,1.4033861373330614,5900.107444683603
1.168,1.299515479188505,5897.181325974244
1.172,1.1853599485155215,5899.76373058144
1.176,1.0775452350465384,5903.882123913599
1.18,0.9918286280408376,5893.782212618802
1.184,0.939772233267909,5896.3696342525
1.188,0.926684626042861,5905.968377987479
1.192,0.9512072428954362,5888.842783818612
1.196,1.0063787255948606,5893.25258989455
1.2,1.0816504327144012,5899.60005467446
1.204,1.1652127255511442,5908.895713918317
1.208,1.246063727347278,5905.531080801859
1.212,1.3154553679603294,5902.385727825134
1.216,1.3676142475382556,5900.3029665621225
1.22,1.399837401170547,5902.453482375517
1.224,1.4121442940729447,5901.99729687376
1.228,1.4066742603054825,5907.137772055727
1.232,1.387020792982232,5891.969749239346
1.236,1.357680883483102,5902.118333632119
1.24,1.3236869686893804,5892.496923638953
1.244,1.2902818264891942,5900.652788570956
1.248,1.2623818855800895,5901.053701208831
1.252,1.2437323310508266,5892.151656487271
1.256,1.2359882312056873,5903.506925212077
1.26,1.2381596621199433,5898.531756095554
1.264,1.246776134502556,5895.240351236298
1.268,1.256843808787819,5894.0151491322495
1.272,1.2633354397656686,5899.161248875224
1.276,1.2627071179470133,5898.878090628962
1.28,1.2539431843862279,5890.537375945692
1.284,1.2388963299355094,5907.223036767868
1.288,1.2219267682524102,5899.738790664146
1.292,1.208835444271116,5897.888173282584
1.296,1.2050724807378161,5902.4014417582375
1.3,1.2135364632034256,5900.672471329539
1.304,1.232790316648522,5902.9152595021005
1.308,1.2566547938462007,5907.110328569382
1.312,1.2756739076391057,5894.358700374405
1.316,1.280134810584843,5896.251911797942
1.32,1.2635621667612935,5897.494046825524
1.324,1.2252601620727877,5907.582849226996
1.328,1.1707879247727857,5905.677630713788
1.332,1.1101457798539385,5891.681494373923
1.336,1.054494713309569,5896.965137248244
1.34,1.0128466148474908,5895.8591164146455
1.344,0.9899542251307233,5898.297808863063
1.348,0.9858167156273953,5904.431967262639
1.352,0.9964984288153111,5891.638643301634
1.356,1.0157303112082405,5907.1960889019365
1.36,1.036806136625049,5903.948684741708
1.364,1.0543125500759918,5892.461371471737
1.368,1.0652811601888252,5898.531171567576
1.372,1.0695295323008565,5904.140633110864
1.376,1.069193192427049,5907.24556369542
1.38,1.0676454087847387,5911.607198539803
1.384,1.068166625558838,5905.453455206606
1.388,1.072805257162852,5900.8012132922095
1.392,1.0817352853303646,5908.081360003244
1.396,1.0931522915712688,5898.856895108739
1.4,1.1036137657597795,5903.850482315958
1.404,1.1087642056913218,5902.203971327631
1.408,1.1044050833270702,5898.956713595157
1.412,1.0877494800891008,5903.564245740658
1.416,1.0585017360675033,5897.055613829606
1.42,1.0193042386637643,5894.101688294448
1.424,0.9752453649139076,5892.785428885723
1.428,0.9325054022251191,5896.379065891771
1.432,0.8966390650622337,5902.6354182720015
1.436,0.8711930990085341,5903.968444452321
1.44,0.857192003944145,5901.5987341923865
1.444,0.8536019851920945,5907.477002920459
1.448,0.8584418728816564,5910.0177866944205
1.452,0.8699429330099582,5904.216680411912
1.456,0.8871850875104941,5905.869954989473
1.46,0.9099419687658699,5911.673198030409
1.464,0.9378771336478869,5902.16360813767
1.468,0.969566977375855,5898.294602820429
1.472,1.001963118968389,5899.502068800047
1.476,1.030732681040573,5900.186864523839
1.48,1.0514520663819886,5899.0119638882925
1.484,1.061153721135301,5900.257543923945
1.488,1.0595214173819403,5907.903940174647
1.492,1.0491702007658619,5900.787029117841
1.496,1.0348474819875102,5896.431706132681
1.5,1.0218606438622093,5898.071641254839
1.504,1.0143283488606833,5905.979835908593
1.508,1.0138538476648933,5909.3155274164565
1.512,1.0190027729874263,5894.160884323179
1.516,1.025668904205479,5900.419550338509
1.52,1.0281545305031845,5894.306214805767
1.524,1.0206448585952852,5912.707979558364
1.528,0.9987048216716454,5901.217009085054
1.532,0.9604740674553284,5906.186770235384
1.536,0.9073640704959373,5896.3677423023
1.54,0.8441304845675106,5894.971671481648
1.544,0.7781838965696085,5902.156743809757
1.548,0.7181473266785935,5901.010874450227
1.552,0.6720176448557241,5900.228231762769
1.556,0.6455219819806481,5900.129016669092
1.56,0.6411853624775455,5905.590550472612
1.564,0.6583554495928658,5910.415537218466
1.568,0.6940530926041705,5903.745501267649
1.572,0.7441248868680799,5898.905074106563
1.576,0.8040698854354493,5895.853253286211
1.58,0.8692664235773835,5905.339528872214
1.584,0.9348261181306492,5904.897160690743
1.588,0.9955391908189551,5906.118389347572
1.592,1.0462807026241618,5900.307202456894
1.596,1.0829381241424674,5907.816362655238
1.6,1.1034963246758127,5907.637710904068
1.604,1.108628998997816,5895.76597978296
1.608,1.1013341492728195,5895.787562341495
1.612,1.085744208791778,5899.600663579178
1.616,1.0657105738677877,5891.996986232516
1.62,1.043763607388456,5901.859373258869
1.624,1.0207526216853406,5904.765696015262
1.628,0.9961893653590382,5902.232987170932
1.632,0.9691664509269924,5901.576721942732
1.636,0.9396244730487009,5903.994164560437
1.64,0.909573788850596,5908.728102249919
1.644,0.883666968438607,5908.367748046785
1.648,0.8685321089408437,5906.183471795325
1.652,0.8707419444106204,5896.036974152763
1.656,0.894041690594883,5901.83771082968
1.66,0.9370015276189753,5903.841487057704
1.664,0.9922325683574842,5904.49718250639
1.668,1.0477296953884592,5905.893596787407
1.672,1.09004486332407,5912.199498892029
1.676,1.1081883873783624,5902.448622132019
1.68,1.0968042648808294,5903.387433288811
1.684,1.0575369097896687,5905.229040849923
1.688,0.9983784232755164,5907.353892568111
1.692,0.9315386376492362,5894.447954135973
1.696,0.8706237209283281,5902.414111170147
1.7,0.8278051961328028,5904.657464428031
1.704,0.8115096893673114,5903.625336043338
1.708,0.8249702830432033,5903.679383066536
1.712,0.8657034011683304,5899.454767090014
1.716,0.9258203993558964,5917.77494857409
1.72,0.9931982681969046,5904.830355081128
1.724,1.0536296476838658,5898.118912634783
1.728,1.0938028600559684,5904.738137434515
1.732,1.1044679902633698,5894.023935065045
1.736,1.0828558146636613,5909.763678103998
1.74,1.0335311779304277,5912.69309312913
1.744,0.9672852106496617,5898.205100281039
1.748,0.89825625474877,5894.726596090595
1.752,0.8400874600754284,5894.358121940213
1.756,0.8023488534992999,5899.517777566975
1.76,0.7883735791503661,5900.607254613216
1.764,0.7950338779402274,5902.866691496925
1.768,0.8142085753608629,5910.236791895032
1.772,0.8352580367387685,5905.611379104218
1.776,0.8478102017774909,5909.972963101892
1.78,0.8442890330708757,5905.116755288323
1.784,0.8216875489176247,5898.350914819678
1.788,0.7821920097710994,5917.145835899523
1.792,0.7325072843198772,5905.0797322070375
1.796,0.6820392828366482,5904.970216242296
1.8,0.6403772495539114,5903.756254259166
1.804,0.6147718814070867,5907.759138185226
1.808,0.6083838137018234,5896.490399341473
1.812,0.6197941951363051,5902.013598836408
1.816,0.6437405781296429,5901.777792783848
1.82,0.672645456377424,5900.876616449759
1.824,0.6984454401539217,5906.575731315451
1.828,0.7143512488696875,5910.431074295412
1.832,0.7162090833420136,5904.001563648888
1.836,0.7030703120868035,5904.027878353085
1.84,0.6767090270164955,5902.97176876992
1.844,0.6403412527617302,5903.488725759127
1.848,0.5973113752921551,5904.849587782037
1.852,0.5504730402721661,5906.481451239584
1.856,0.5024329156613238,5899.408334644812
1.86,0.4562441235670806,5911.296461865672
