时间(s),电压(V),幅值(高频80K)
0.0,1.562265045816694,5900.781672342344
0.004,1.436170763411755,5887.343888283919
0.008,1.3267656751881023,5903.373235738614
0.012,1.2480813109495785,5895.103071302681
0.016,1.2071406151200483,5898.277414659991
0.02,1.203007757658952,5897.864352118474
0.024,1.227985601629928,5900.947434225431
0.028,1.2704054940022196,5903.638189027527
0.032,1.3180030135686436,5895.875896329932
0.036,1.3607993154560216,5901.505134552941
0.04,1.392731863543352,5902.12010104835
0.044,1.4117998743032127,5898.346078903071
0.048,1.418963927043528,5907.287121829316
0.052,1.4163722069442954,5902.608827143811
0.056,1.4056740081379453,5899.545284944661
0.06,1.387169675415662,5900.821951411218
0.064,1.36020078444374,5902.214017927168
0.068,1.3245010089912186,5899.422672291649
0.072,1.2816030922213104,5903.12856191701
0.076,1.2353657626018308,5904.542027008173
0.08,1.191286763280613,5901.095598612748
0.084,1.1549880001643502,5904.582987106323
0.088,1.1305960280382308,5905.089735652964
0.092,1.1196274006619489,5905.049842286383
0.096,1.1206943360391324,5888.809970958933
0.1,1.1300953227367865,5907.718375597067
0.104,1.143108531468276,5895.5079631571225
0.108,1.1555090236597245,5903.163230114189
0.112,1.1646821170151476,5892.647462463504
0.116,1.169927982027914,5904.627859007121
0.12,1.1720290177063004,5911.216367865552
0.124,1.1724994312951789,5896.618230885535
0.128,1.1729185971621903,5896.508942595469
0.132,1.1744981186442207,5898.285235150046
0.136,1.1778505253039009,5897.322286140649
0.14,1.1829371705952647,5900.063641006182
0.144,1.1892231229317878,5898.140284087709
0.148,1.1959998858362275,5892.607566935027
0.152,1.2027264277130918,5899.50426138705
0.156,1.2092323292679428,5900.519289502286
0.16,1.2156999296213606,5901.257151432826
0.164,1.2224111315298047,5907.697575305894
0.168,1.229332571245659,5903.321254831292
0.172,1.2357316032529397,5895.7037473482505
0.176,1.2400691369395236,5891.820304766156
0.18,1.2403298697562348,5900.657981895458
0.184,1.2347623470760274,5906.614021019911
0.188,1.2228011837340549,5902.571705322626
0.192,1.2058126779014215,5908.609106984125
0.196,1.1873020098591043,5898.983163523563
0.2,1.1723855872340838,5896.253164681903
0.204,1.1666310323959495,5901.876710252706
0.208,1.1746281787957127,5903.251613528346
0.212,1.198697441770727,5899.059378589261
0.216,1.2380015865915563,5902.264104060652
0.22,1.2882057877059974,5909.141775306407
0.224,1.3418185811262828,5902.69229721855
0.228,1.3893273263967105,5896.934868104229
0.232,1.4210822896526423,5900.9252020005815
0.236,1.4295920475365256,5908.275498001452
0.24,1.4116108597714652,5902.42352405045
0.244,1.3693151745436511,5904.746356965601
0.248,1.3100977693045073,5901.612313020443
0.252,1.2449729369157272,5904.055383330591
0.256,1.1860502528901493,5911.809611928822
0.26,1.1438039157444504,5906.517884624301
0.264,1.1248601146263388,5909.170618557204
0.268,1.1307736742010264,5901.073655965273
0.272,1.157938461046879,5899.265433251562
0.276,1.1985530034375398,5889.892433434411
0.28,1.2424138447705382,5905.776897980531
0.284,1.279122621607839,5900.145421838331
0.288,1.300152578100489,5890.604020504814
0.292,1.3003158439638822,5903.081485253016
0.296,1.2784806162532403,5901.928494928468
0.3,1.2376423449563596,5898.6285327764
0.304,1.1844538404457716,5899.097788519885
0.308,1.1281558690183537,5909.137038069644
0.312,1.07882118147345,5913.49851756675
0.316,1.0451297506029318,5896.402060647951
0.32,1.0323350037432406,5902.32197052905
0.324,1.0411862379787888,5897.228227549953
0.328,1.068148294908516,5899.431564126891
0.332,1.1066723893187898,5902.991522510881
0.336,1.1489956051304289,5904.3586796713535
0.34,1.1880047022082763,5898.692228363623
0.344,1.2187689542687143,5906.569523788796
0.348,1.2393178673010525,5899.171887532696
0.352,1.2503851874451444,5901.680298653364
0.356,1.2543121650310314,5904.8238866527545
0.36,1.2537590011925983,5893.030832366934
0.364,1.250878391959738,5902.240457669015
0.368,1.2471694089553904,5901.128306498815
0.372,1.2437266036879084,5891.146255521858
0.376,1.2413829572550947,5897.862152446259
0.38,1.2404520490238378,5894.561728429589
0.384,1.2402404437537307,5897.475380607496
0.388,1.23883356683034,5899.089349011131
0.392,1.2335608808620593,5899.5500601119775
0.396,1.222103311727988,5904.599533885015
0.4,1.2037892996332709,5908.912314778095
0.404,1.1805187237471269,5897.563508711718
0.408,1.1569229485223143,5894.870824247172
0.412,1.139617319294294,5904.478797730192
0.416,1.1356312511877,5897.825248223689
0.42,1.1503409280169636,5896.986297868615
0.424,1.1854818826833202,5898.842112321095
0.428,1.23794996798036,5899.830539982087
0.432,1.2999328442830582,5899.317898672412
0.436,1.3604622328677063,5893.313695930511
0.44,1.4079897552905332,5900.803559849609
0.444,1.433271181219272,5895.399998576945
0.448,1.431707129790206,5898.40852044476
0.452,1.4043822218122735,5892.558855768238
0.456,1.357484030978323,5895.278914800967
0.46,1.3004198456886322,5898.838838718796
0.464,1.2433805230357475,5908.026890092482
0.468,1.1950995961038446,5900.3614163173925
0.472,1.1612709723230383,5907.530662423744
0.476,1.1438056871390099,5896.651532244983
0.48,1.1409548100720925,5897.069939660419
0.484,1.1482346701025739,5907.676952325162
0.488,1.1599469957017985,5905.623278857304
0.492,1.1708727148050249,5893.9144400262285
0.496,1.1775811582718314,5896.415029877467
0.5,1.1789320777314072,5900.979346765562
0.504,1.1757523631526012,5904.699990422281
0.508,1.1700647782107454,5904.749220106591
0.512,1.1643268095195165,5903.043267547775
0.516,1.1608932194962795,5907.836255660071
0.52,1.1616361541065587,5898.187181218938
0.524,1.1676002972312567,5899.739740785433
0.528,1.1787235519701498,5904.722187470442
0.532,1.1938065241845481,5907.295463086921
0.536,1.2108725493767385,5903.871161535744
0.54,1.2278233382858155,5904.887581736173
0.544,1.243089214876634,5897.981730504788
0.548,1.2560068634547756,5890.245678396189
0.552,1.2668571993619666,5900.140159766375
0.556,1.27663955112353,5900.967517741414
0.56,1.2866835897278848,5913.12211497806
0.5640000000000001,1.298184708698902,5904.320475681052
0.5680000000000001,1.3117274398188,5902.862718999358
0.5720000000000001,1.326843767342651,5891.601654281123
0.5760000000000001,1.3416945436856929,5899.22053768309
0.58,1.3530759126022402,5905.240218111308
0.584,1.3570016852097206,5902.967663279344
0.588,1.3499235910069518,5900.158449911109
0.592,1.330261516627539,5904.036672208056
0.596,1.2996109977777162,5903.730889804388
0.6,1.2630373401426882,5899.447343903881
0.604,1.228225919898139,5893.7559567295775
0.608,1.203668252782741,5900.06756797896
0.612,1.1963215014150885,5901.042752819824
0.616,1.2093288021241937,5902.772928128152
0.62,1.2405099030549167,5900.773036344619
0.624,1.2822833036561314,5901.189578150018
0.628,1.3232859192077076,5900.104723847313
0.632,1.3513459512634165,5903.714373117183
0.636,1.3569524294005006,5904.756173850728
0.64,1.3361281203108022,5905.237079242245
0.644,1.291719098584346,5916.138187540203
0.648,1.2326070221606171,5898.374736844679
0.652,1.1710990972317286,5904.632183060304
0.656,1.1194175425328514,5903.775738217942
0.66,1.086478044949885,5896.039162620073
0.664,1.0759322624425112,5902.50183868745
0.668,1.0859130427657169,5905.324291478228
0.672,1.1103244913136943,5901.273053493487
0.676,1.1410841488992818,5906.780598653363
0.68,1.1705552595408801,5902.87731038065
0.684,1.1934709791518305,5906.005973063846
0.6880000000000001,1.2078675838409016,5895.163440956989
0.6920000000000001,1.2148751371450197,5899.754284560352
0.6960000000000001,1.2176055447786636,5897.748719101242
0.7000000000000001,1.2196594202213074,5905.535023174212
0.704,1.2237808338718936,5898.937437128489
0.708,1.2309779554241322,5889.555969035654
0.712,1.2402421621505326,5896.583446620561
0.716,1.2489516585375282,5904.234230308956
0.72,1.2539470799765786,5897.593489940289
0.724,1.2529415571199418,5895.574376475431
0.728,1.2456041905272632,5902.669576589438
0.732,1.2337522853704839,5900.050256995732
0.736,1.2206326228172735,5899.368252581583
0.74,1.2098138209391818,5897.921487278303
0.744,1.2043314556634446,5902.387495883196
0.748,1.2064077028382738,5898.335332994351
0.752,1.2175893507081932,5909.32345285098
0.756,1.2388438737012457,5902.089464678426
0.76,1.2702132107591932,5904.888178289755
0.764,1.3099991447933959,5898.05454469786
0.768,1.3539069334541183,5906.245616821504
0.772,1.3948325925118283,5893.800914847242
0.776,1.4238535171343236,5907.62681900535
0.78,1.4324415517650455,5899.178926624552
0.784,1.4151964426474553,5896.744506909517
0.788,1.3719704202761012,5906.560293354906
0.792,1.308463038027685,5891.267965924684
0.796,1.2350501019126656,5896.228903175726
0.8,1.1642910841001215,5899.147196045568
0.804,1.107921379487715,5900.723836246722
0.808,1.074190699191889,5898.792639957659
0.812,1.066257999024981,5919.548256084488
0.8160000000000001,1.0819939664659948,5898.304807689362
0.8200000000000001,1.115012663467015,5901.43197978371
0.8240000000000001,1.1563384186671783,5892.608770697548
0.8280000000000001,1.196122597424737,5898.569506273834
0.8320000000000001,1.2251723581477867,5895.283114187335
0.836,1.2363271372549465,5900.893456698884
0.84,1.225681833178815,5891.7802165463045
0.844,1.193459442098977,5899.977808705327
0.848,1.1442314424982634,5893.045732278716
0.852,1.0862497384618395,5897.527138911916
0.856,1.0298514586084773,5900.094501876204
0.86,0.985200254618609,5893.545329449851
0.864,0.9599537411044513,5902.289707432175
0.868,0.9575894497586086,5898.497536571962
0.872,0.9769261851701699,5910.470093023132
0.876,1.012944758889449,5898.216057646941
0.88,1.0585804066058968,5901.346006732154
0.884,1.1068666408745835,5901.812042215479
0.888,1.1526987067628145,5895.142880177102
0.892,1.1936092022756437,5901.740020055128
0.896,1.229322151234819,5897.716053514196
0.9,1.2603530841779975,5905.1311964588485
0.904,1.2863567877652229,5901.877435984007
0.908,1.3051161140362741,5900.609648105652
0.912,1.3128558859760935,5901.969520231723
0.916,1.3059087939041134,5903.303223548469
0.92,1.2829503159890916,5907.930623856205
0.924,1.2466152469416665,5899.738588043199
0.928,1.2036143040778826,5902.8489426548695
0.932,1.1632334981303627,5901.593722561724
0.936,1.1348281232351405,5902.00478343811
0.94,1.125302647315132,5892.389879932683
0.944,1.1375066910310632,5890.884677472361
0.948,1.1700161120821113,5904.093077378738
0.952,1.2181159112213822,5899.3159737358765
0.956,1.2753315219737789,5905.72708943349
0.96,1.334859209093812,5888.3102886191145
0.964,1.3906245243488955,5902.062878003473
0.968,1.4380131523145754,5898.473772451698
0.972,1.4742942395156504,5907.5508046401565
0.976,1.498600879147759,5898.43548635236
0.98,1.5114068108729477,5897.183088657581
0.984,1.513741082889542,5898.429928731594
0.988,1.5065827111077468,5899.258924155406
0.992,1.4907636425094006,5894.150241709651
0.996,1.4673860463259694,5909.353614210162
1.0,1.4384482135377705,5904.932686324904
1.004,1.4072122917276022,5896.414529883333
1.008,1.3779154140249161,5899.34789104639
1.012,1.354746708169046,5899.083622949486
1.016,1.3404597781759646,5906.541969103272
1.02,1.3352928059987759,5899.308778214889
1.024,1.3367850144169595,5905.520051817557
1.028,1.3406077273642305,5904.42615756529
1.032,1.341989325313127,5895.72634089989
1.036,1.3370992916468871,5903.949591814857
1.04,1.3239316964659549,5901.878181194968
1.044,1.302540011643945,5904.88998711245
1.048,1.2747302691647893,5901.973691301512
1.052,1.2434633477666515,5894.999857869231
1.056,1.2121908562924797,5904.780855221597
1.06,1.1842046805043749,5901.467496699099
1.064,1.1620227600487651,5892.857063573953
1.068,1.1469241006771091,5894.451497437623
1.072,1.138805110755929,5903.102540738489
1.076,1.136419385045595,5899.032492110018
1.08,1.137866554068817,5900.269962418056
1.084,1.141105628818717,5895.18474710707
1.088,1.144369823468666,5904.258865513451
1.092,1.1465216259575413,5895.932405060295
1.096,1.1474081802495224,5896.605225757227
1.1,1.148120168368501,5897.6334940437655
1.104,1.1508844772147098,5903.698871137791
1.108,1.1583538140336564,5895.744981093359
1.112,1.172388483077232,5902.405945010283
1.116,1.1928753812731117,5908.330111171052
1.12,1.2173015745493978,5895.873263218596
1.124,1.2414300588141904,5899.923724379228
1.128,1.2607331670947126,5898.149035660121
1.132,1.2718193922548842,5892.756704228908
1.136,1.273292810772507,5898.743887372262
1.14,1.2659983550050073,5902.96314484583
1.144,1.2528667290085127,5888.546115427982
1.148,1.238468477532958,5903.149287371805
1.152,1.2282529358279082,5902.97944346811
1.156,1.227494815637228,5906.621091348909
1.16,1.2400931302258742,5901.970933309533
1.164,1.2674490145945105,5898.476099598921
1.168,1.3077156377902501,5907.115759887432
1.172,1.355750914795011,5907.421980794031
1.176,1.4039784963636848,5905.659154078091
1.18,1.4440177210242056,5906.664186509756
1.184,1.4685667758545062,5893.488186068855
1.188,1.4729077413601486,5903.20890260197
1.192,1.455638639450125,5903.306281896945
1.196,1.4186259115925168,5908.188732162437
1.2,1.366442217065398,5897.84073489658
1.204,1.305589921626571,5894.208895972153
1.208,1.2436570883797582,5905.949936747851
1.212,1.1883642099603278,5898.005735293656
1.216,1.1464145890184207,5902.407381291105
1.22,1.1222277103624245,5902.24138944495
1.224,1.1168987274610367,5899.8089355493685
1.228,1.1278652231494959,5894.443802747062
1.232,1.149608275444659,5890.328242814178
1.236,1.175297199299564,5887.716846589789
1.24,1.1988288113759598,5905.074477664351
1.244,1.216483987498476,5901.9853320786815
1.248,1.227583281331807,5906.3003244646325
1.252,1.23401482994522,5899.333274299299
1.256,1.2390368054907137,5902.157476659899
1.26,1.2459533094253192,5892.119276238218
1.264,1.2570621551033316,5900.488298193864
1.268,1.2730102829987893,5906.529703921224
1.272,1.2926308605877093,5905.285412723516
1.276,1.3133284732437522,5893.39515909636
1.28,1.3319028882103179,5904.488093639898
1.284,1.3454592312307574,5902.456596835479
1.288,1.352002985751839,5889.999372190714
1.292,1.3505220511644629,5892.122769095876
1.296,1.3406685518915848,5899.655622473249
1.3,1.3224000657520791,5903.06886377134
1.304,1.2959740171374667,5906.123091181484
1.308,1.2624188347347394,5904.587901129284
1.312,1.224162818923282,5904.08988979674
1.316,1.1852509567730416,5895.5470486674985
1.32,1.1507858326400364,5899.509822372163
1.324,1.1257390059119077,5902.495786543868
1.328,1.1136640888716642,5910.49022575802
1.332,1.1158311606249856,5900.23204176048
1.336,1.1309846612637966,5899.606550142395
1.34,1.1556080725267737,5901.709948480591
1.344,1.1845029364713733,5892.871379652918
1.348,1.2115986390298201,5894.640809746293
1.352,1.2309286623998634,5903.122633099514
1.356,1.2375946291528062,5903.483147211183
1.36,1.2285373273750997,5901.404643692121
1.364,1.2030780342340162,5906.088871788606
1.368,1.1632195079421226,5903.256983331684
1.372,1.1135463348832202,5896.174616212304
1.376,1.0605094726452173,5902.275791118141
1.38,1.0110982022243398,5894.2321601249805
1.384,0.9712634456069298,5901.461210664183
1.388,0.9446871378965791,5888.59317125027
1.392,0.9323818472974046,5892.969251390728
1.396,0.9331566351673397,5902.470521090969
1.4,0.9445068125981317,5898.973504605481
1.404,0.9633738427385052,5899.155263279011
1.408,0.9865304017507915,5896.892794871877
1.412,1.0107142667493216,5900.83750858889
1.416,1.0327498960406842,5904.7508542103305
1.42,1.0498055560430877,5897.211375905372
1.424,1.0598005793628569,5900.037338780839
1.428,1.0618434544354354,5902.910188174132
1.432,1.056494745246083,5894.51558072371
1.436,1.045706662204442,5900.614382893237
1.44,1.0324580038399451,5898.294032781829
1.444,1.0202136382395732,5901.484374466028
1.448,1.01231706620881,5901.656814926755
1.452,1.0113680112354215,5893.948039376786
1.456,1.0186480721593458,5895.683093003403
1.46,1.0337143434901435,5898.614605098294
1.464,1.054308685521902,5904.332166665225
1.468,1.076708218179074,5899.782720825777
1.472,1.0965687476472938,5903.462606112634
1.476,1.1101508867830887,5905.463059167166
1.48,1.1155777887886842,5895.057513879875
1.484,1.1136011226819866,5902.4051588952425
1.488,1.1074360770425002,5900.68627016212
1.492,1.1015940666394932,5899.259025377678
1.496,1.1001184657521053,5900.619068545412
1.5,1.104957252152373,5901.496891837895
1.504,1.1151699730752036,5912.461340146738
1.508,1.1272355608563074,5906.917964822366
1.512,1.1361865273598892,5902.936389912077
1.516,1.1370339840476889,5891.219899232256
1.52,1.1260382730417968,5909.4913271919095
1.524,1.1015769886787286,5906.748683764712
1.528,1.064501074015097,5910.2001314646095
1.532,1.0179694633615524,5905.38873788796
1.536,0.9668318217709103,5908.414017636027
1.54,0.916684475202215,5901.932062645286
1.544,0.8727825925240527,5907.799470713931
1.548,0.8390472006372358,5906.616517884807
1.552,0.8174076076562888,5902.562944823972
1.556,0.807638952986293,5900.850957027498
1.56,0.8077239002491244,5904.9629846999205
1.564,0.8146428422544122,5907.72893861492
1.568,0.8253843836672178,5896.292150244037
1.572,0.8378598676226914,5902.126911451289
1.576,0.8513725731221998,5905.506610048092
1.58,0.8664209722708278,5895.421152411995
1.584,0.8838889866223045,5902.479221257198
1.588,0.9039774168976558,5908.7972118574335
1.592,0.9254009184676807,5899.032418961645
1.596,0.9452816096756291,5904.427777528991
1.6,0.9598339348508602,5906.129951825481
1.604,0.9655648147652345,5912.849867505268
1.608,0.9605272169872199,5901.986076251921
1.612,0.9452048935642584,5901.8086550739845
1.616,0.9227534296287812,5903.577909479858
1.62,0.8984723494619656,5902.601162026933
1.624,0.8785575928922269,5904.855327740612
1.628,0.8684356041234834,5905.361902816844
1.632,0.8712180027868975,5910.779667182844
1.636,0.8868530273706368,5899.220797600403
1.64,0.9123011512490097,5900.60322625478
1.644,0.9426125126928431,5902.8917771641945
1.648,0.9723603652891567,5908.106060904724
1.652,0.9967830274321179,5897.561140411555
1.656,1.0123290334031223,5904.644422801563
1.66,1.016808548685744,5905.961939571832
1.664,1.009559720847082,5905.237432722201
1.668,0.9917775793269277,5895.050072015783
1.672,0.9667108352892474,5904.062714276521
1.676,0.9392348828838812,5906.6637861675645
1.68,0.9145871147731612,5907.053909820014
1.684,0.8966499665357728,5901.121297874428
1.688,0.8866103259893037,5898.91566058445
1.692,0.8827257195824725,5913.428225737289
1.696,0.8813689028954967,5897.453747704629
1.7,0.8788991713210711,5908.739115821808
1.704,0.8735365299549362,5914.182789720944
1.708,0.8664064732779526,5900.494776537683
1.712,0.8612601871873177,5908.210658112449
1.716,0.8629253310027771,5911.58713089609
1.72,0.8750988433598674,5904.6079590592135
1.724,0.8984425420438094,5914.960751855795
1.728,0.9298847922561163,5906.686474682628
1.732,0.96349348107142,5914.857834063952
1.736,0.992496026176483,5898.523151186147
1.74,1.011443789157171,5905.286564319581
1.744,1.0175294410394873,5904.851257822639
1.748,1.0106653414956663,5903.034890321959
1.752,0.992682018290011,5912.248529976967
1.756,0.9663548930302001,5908.19029646794
1.76,0.9347354417771394,5918.251901480939
1.764,0.9007837730170359,5916.468839171145
1.768,0.8670442783451359,5905.15273856631
1.772,0.8352309239894886,5907.817594798844
1.776,0.8058709621027126,5903.131426179163
1.78,0.7782987823725178,5907.999830610577
1.784,0.7511878910953663,5910.514224975484
1.788,0.7235241048102217,5904.970162724055
1.792,0.6956078676388716,5912.695408517098
1.796,0.6695407336885298,5899.107708288504
1.8,0.6488462740264022,5913.438087092128
1.804,0.6373085802134002,5901.997275639179
1.808,0.6375188221350025,5906.383585663844
1.812,0.6497746429553883,5903.115196631787
1.816,0.6718053271409292,5906.221781777331
1.82,0.6994020651069618,5906.559540613717
1.824,0.7276350912799778,5913.312131849687
1.828,0.7521322081324536,5900.904201957124
1.832,0.7699557313245166,5903.793698571876
1.836,0.7798803754386175,5900.637140362898
1.84,0.7821599209264479,5909.902384130936
1.844,0.7780160393775721,5908.624801301178
1.848,0.7690685922481851,5909.334273316162
1.852,0.7568408937364831,5908.583942973709
1.856,0.7424112762039347,5905.07839767317
1.86,0.7262736926589723,5908.505996844819
