时间(s),电压(V),幅值(高频80K)
0.0,0.988634053337937,5899.033542992753
0.004,1.1190780763297146,5898.969134642547
0.008,1.236822949586709,5903.532463735694
0.012,1.3320460364502877,5903.523100654124
0.016,1.3992279519637763,5895.416521285084
0.02,1.4375676983223986,5906.9231125342585
0.024,1.4502521421949897,5908.402650355389
0.028,1.4430568395604202,5899.635255008775
0.032,1.4227429579813242,5900.227957894462
0.036,1.3956638703087167,5900.258760326855
0.04,1.3669462423902783,5899.561305139414
0.044,1.3403809244351808,5897.619230850637
0.048,1.3187575652442203,5898.591679064175
0.052,1.3041440795895043,5898.678130794866
0.056,1.2978055581045933,5896.642014677608
0.06,1.2998879501211673,5895.533865304293
0.064,1.3092250727428032,5904.308916565411
0.068,1.323466096092615,5896.765259331674
0.072,1.3394209387550557,5904.937831686783
0.076,1.353470953048119,5901.663993544995
0.08,1.3620819512033255,5896.858933699568
0.084,1.362510253367152,5898.477671680481
0.088,1.3535657797472307,5902.647660608307
0.092,1.3360859894367512,5895.0963398842205
0.096,1.3128610104653187,5901.944117671553
0.1,1.2880419897623445,5905.695760821053
0.104,1.266272873141094,5900.528880440427
0.108,1.2517715016192288,5899.687161451949
0.112,1.2474585389762693,5908.57655549035
0.116,1.2541844271801155,5898.166733662367
0.12,1.2702158741069716,5902.770209865383
0.124,1.2913003515308372,5903.751544044342
0.128,1.3115881022259823,5907.828012191044
0.132,1.325325965714149,5897.345003715197
0.136,1.3287384383751222,5899.082126404558
0.14,1.321275681288739,5906.144819878628
0.144,1.3056696615540078,5906.157383150494
0.148,1.2868556041123829,5901.148873028227
0.152,1.2703760215140687,5899.516702977082
0.156,1.26101173275277,5911.564803648767
0.16,1.2620455535305222,5898.936646279819
0.164,1.2750873006553063,5900.20840750204
0.168,1.3001106740463728,5899.570122029941
0.172,1.3353932931910277,5913.301548573004
0.176,1.3773738797808188,5898.119177943189
0.18,1.4208075109372431,5901.225617518579
0.184,1.4596050623562409,5900.54369133014
0.188,1.4882819713326083,5905.845537680812
0.192,1.503449849525161,5898.678390528467
0.196,1.5047035596744562,5903.514964978727
0.2,1.4945495001996523,5894.921978864268
0.204,1.477414605234073,5902.491002362084
0.208,1.4581223746653105,5902.1549575593945
0.212,1.4404470575240484,5910.332737891249
0.216,1.4263365771424539,5892.159786035843
0.22,1.4160710100988663,5899.153445180654
0.224,1.4091286773126126,5899.366601347337
0.228,1.4051456521190788,5898.979773478002
0.232,1.404352775726062,5901.19965618094
0.236,1.4073027545168477,5907.522370561149
0.24,1.414234980033131,5906.995302108609
0.244,1.4246127082075573,5897.132812437873
0.248,1.4370820436454705,5902.74361135784
0.252,1.4496923692357835,5898.421587903264
0.256,1.460118145210871,5895.268944462455
0.26,1.4658642861159892,5893.826479151503
0.264,1.4646441306248172,5901.706721442955
0.268,1.4549929731549365,5900.056539733666
0.272,1.4368661494374342,5907.517656059484
0.276,1.411855856472165,5905.296798762282
0.28,1.382892024255494,5901.359292234581
0.284,1.3536240205891628,5905.878743733945
0.288,1.3277978813854783,5893.620290276105
0.292,1.3087835143839595,5902.101017740592
0.296,1.2991563968259687,5901.040780578811
0.3,1.3001713297287862,5899.364444370626
0.304,1.311192496408569,5896.79127281365
0.308,1.329446118812742,5895.179660669354
0.312,1.35047991324793,5900.281563103195
0.316,1.3693427941776448,5899.767639026592
0.32,1.3820267906232842,5894.258641215153
0.324,1.386530817205548,5893.760002736383
0.328,1.3831124539454198,5907.406061035364
0.332,1.3736799062226344,5894.512924273475
0.336,1.3606316477937292,5895.069810832202
0.34,1.3456863980065525,5901.645303209954
0.344,1.3292602525154176,5897.277706264057
0.348,1.3106491423594,5898.08010711885
0.352,1.288789060038142,5893.227604299056
0.356,1.2630580321425677,5892.708954642486
0.36,1.2337216848646109,5903.46948876391
0.364,1.2020310927564324,5905.126402508813
0.368,1.1701926879798918,5906.501835847275
0.372,1.1412676547065883,5895.531422635463
0.376,1.1188252155565195,5910.1392975326025
0.38,1.1062079531139508,5900.073510326502
0.384,1.1055490951845466,5898.507735132539
0.388,1.1169369373717004,5904.391103250056
0.392,1.138123612845779,5894.309066649497
0.396,1.1649280203860077,5905.689054757886
0.4,1.1921815854158042,5904.837602123072
0.404,1.214907143446499,5893.63084205049
0.408,1.2294419737938937,5896.23662542681
0.412,1.2342842419067928,5898.934404315621
0.416,1.2304417796674882,5905.687889904376
0.42,1.2210815627612535,5897.612296495199
0.424,1.210468996222515,5905.911992454836
0.428,1.2024883016068781,5891.698026648727
0.432,1.1992490634089035,5895.223333652493
0.436,1.20029724767778,5888.441586215486
0.44,1.202756842300213,5901.656748395203
0.444,1.2024064442342912,5908.347431748694
0.448,1.1953891117511388,5903.773939037719
0.452,1.1800440550270628,5895.235035190491
0.456,1.158216140183108,5898.130760979571
0.46,1.1354119272425474,5899.061286392514
0.464,1.1194939344492063,5900.879862265908
0.468,1.118211534838404,5896.92100642448
0.472,1.1364443419547394,5902.293345167068
0.476,1.1742560582061456,5898.734412534282
0.48,1.2265895538145901,5899.773261711175
0.484,1.2847340568652657,5897.510641297421
0.488,1.338880396766061,5901.1772471084805
0.492,1.3806739341924172,5905.600764133079
0.496,1.404920723991476,5902.242185179756
0.5,1.4101639753030213,5896.230363588377
0.504,1.3982716068168553,5907.104960586451
0.508,1.3733937028876577,5894.550945652752
0.512,1.3407683578401335,5903.386789949099
0.516,1.3058053224929782,5897.9137717348685
0.52,1.273589213935086,5903.048425744927
0.524,1.248613733998872,5893.1970456376375
0.528,1.2344548257201697,5899.562596204703
0.532,1.2332650670084246,5893.348808862975
0.536,1.2452688459457797,5909.104192906128
0.54,1.2686134625814838,5904.966755932103
0.544,1.2997849445968876,5886.740327466308
0.548,1.3344191473427267,5901.299455931251
0.552,1.3681105743312303,5900.078775758579
0.556,1.3969696722121676,5896.102898195156
0.56,1.417989125465359,5906.0137796504805
0.5640000000000001,1.429396382770357,5901.949248604693
0.5680000000000001,1.4310095819926971,5892.843772655913
0.5720000000000001,1.4243857521879713,5892.171170984896
0.5760000000000001,1.4125073074433447,5907.39912842607
0.58,1.3989655317944136,5892.198364532866
0.584,1.3868994924209679,5896.223216367031
0.588,1.3781055178507857,5896.068506960089
0.592,1.3726687382102796,5904.263051498709
0.596,1.3692564570584556,5905.051993933398
0.6,1.3659553224277783,5896.396258252482
0.604,1.3613168261343265,5892.10027279826
0.608,1.355166772388507,5898.934774732801
0.612,1.3487923452593378,5894.020313935327
0.616,1.3443842151961454,5895.255801369446
0.62,1.3439953597314587,5911.064062933956
0.624,1.348534729399255,5890.614670609622
0.628,1.3572541346992346,5894.812128539697
0.632,1.3678923872855169,5896.218444013038
0.636,1.377337251366157,5903.512952508037
0.64,1.382500009225124,5897.989486231113
0.644,1.3811121004167792,5897.215888788258
0.648,1.3722967326909083,5895.049251326734
0.652,1.3568859572050174,5896.742711178411
0.656,1.3374415162752535,5896.775155122029
0.66,1.3178823923359506,5898.111880516272
0.664,1.3026766007898274,5907.392101802081
0.668,1.2957421691705557,5907.830071102257
0.672,1.2993892813132437,5899.84615505042
0.676,1.31366682175511,5888.590552273608
0.68,1.3363248277006767,5901.685819094937
0.684,1.3633747150322753,5901.3932911066095
0.6880000000000001,1.3900356673716372,5909.440965344041
0.6920000000000001,1.4117580316964566,5897.885737266512
0.6960000000000001,1.4250471886579248,5899.794168362777
0.7000000000000001,1.427967459348878,5896.697756503023
0.704,1.4203748960743872,5894.4006114014965
0.708,1.4039623508111112,5896.163883086711
0.712,1.3820935616194352,5898.350596891923
0.716,1.3593077832780849,5896.017874563956
0.72,1.3404289327534062,5903.475425856784
0.724,1.329411613920375,5908.373977529108
0.728,1.328267763708939,5894.010470282416
0.732,1.3364670028420247,5903.518728160601
0.736,1.3510315809263562,5907.361658487122
0.74,1.367280069858237,5906.632770957312
0.744,1.3799891540640006,5902.723093238912
0.748,1.3846961934185698,5896.300056009596
0.752,1.3788856988730755,5905.48715446701
0.756,1.3628082990120045,5905.566528803891
0.76,1.3396735733749388,5907.335177801975
0.764,1.315020477091284,5902.3252755177145
0.768,1.2952825819014904,5892.370916945398
0.772,1.2859055148287482,5901.262221631308
0.776,1.289654345728,5896.999310424752
0.78,1.305742998481675,5902.744248498137
0.784,1.3300889275231247,5902.355629352053
0.788,1.3565474336172816,5903.911566975505
0.792,1.3786651775666683,5904.102122723079
0.796,1.391408928567231,5903.181720157572
0.8,1.3923967070137384,5902.830816152849
0.804,1.3823032294343678,5893.758028424835
0.808,1.3643381105477466,5900.015444107342
0.812,1.3429908616384034,5907.405211018132
0.8160000000000001,1.322495284670977,5888.9041416855
0.8200000000000001,1.3055645448979445,5896.855462127888
0.8240000000000001,1.2928250308917997,5898.02423252116
0.8280000000000001,1.2830742680114404,5898.475228288376
0.8320000000000001,1.2741561205565484,5895.590892180444
0.836,1.2640521900932984,5890.931024764672
0.84,1.2517937765594223,5897.825975432008
0.844,1.237934731374704,5896.324624929717
0.848,1.224489001725254,5898.295574429433
0.852,1.2143908649586632,5906.394232368547
0.856,1.210678050993324,5893.225009614576
0.86,1.2156838011352697,5892.05517045619
0.864,1.2304887850844175,5894.656615396707
0.868,1.254726236587731,5892.352136741089
0.872,1.28666379319744,5893.221473260214
0.876,1.3234394054900636,5898.798880363517
0.88,1.3613980464444526,5904.940566839675
0.884,1.3965251419426008,5895.240052621319
0.888,1.4249405889429367,5902.463036683278
0.892,1.4433725221964508,5901.033586949276
0.896,1.449547907885173,5901.970831944438
0.9,1.442508028484585,5903.121183636316
0.904,1.4228887146951426,5906.4546922621
0.908,1.3931333606880376,5902.457409770092
0.912,1.3575023912693012,5899.842673664696
0.916,1.3217200081729048,5900.793524563822
0.92,1.2921775580142085,5899.815318684011
0.924,1.2747563619736606,5899.733396511314
0.928,1.2734981248399107,5903.09181534644
0.932,1.2894665857026275,5899.171626180814
0.936,1.3201537206222773,5898.7875067135765
0.94,1.359677647275229,5902.422236704118
0.944,1.3997983710991462,5902.649798222296
0.948,1.4315094781107103,5902.27945975259
0.952,1.4468219227218586,5905.401197762799
0.956,1.4404118243881006,5900.961983118374
0.96,1.4108756608463544,5902.700157819014
0.964,1.361265874028516,5902.012072409793
0.968,1.2985437680860705,5897.934025182842
0.972,1.231869519002366,5904.912027796484
0.976,1.1701925470384207,5894.377829221646
0.98,1.1200140240790462,5902.964522641444
0.984,1.0841673734139963,5897.27724213193
0.988,1.0620326903907942,5902.522720431136
0.992,1.0509758304092127,5899.836930059789
0.996,1.0482484927233193,5898.986076945264
1.0,1.0524147868790974,5902.730252359217
1.004,1.0637247797489044,5905.759129930151
1.008,1.0834802757456574,5901.882906504864
1.012,1.1128794253802556,5898.997112517622
1.016,1.1518735014309098,5898.632229100864
1.02,1.198395619051597,5902.292280322778
1.024,1.2481872602591542,5890.544454644107
1.028,1.2953669790678204,5906.516424221906
1.032,1.3337047319110975,5906.1815898012
1.036,1.3582756982889552,5901.740000703207
1.04,1.3669458692105163,5898.684181421264
1.044,1.3611418951092418,5903.453130286115
1.048,1.3455851154409453,5903.652491056376
1.052,1.3270158945727697,5903.073572900813
1.056,1.3122564239338337,5901.579475013408
1.06,1.3061647914246308,5899.612750891047
1.064,1.310103524585876,5897.572775648075
1.068,1.3214574689195986,5901.962808101725
1.072,1.334436155907959,5893.924871264343
1.076,1.341935797605422,5900.078935087705
1.08,1.3378193637731979,5895.895273515996
1.084,1.3188240346679336,5895.535171770186
1.088,1.2855095873777589,5891.301070251721
1.092,1.242094250639123,5894.1406029737645
1.096,1.1954362038157367,5896.262784636721
1.1,1.153611480035563,5896.74504708935
1.104,1.124461215316856,5900.460079470081
1.108,1.1142526697316621,5905.845295395735
1.112,1.1264692744415497,5908.6914463600215
1.116,1.160864541180136,5902.614747974672
1.12,1.213117388549492,5901.845347157519
1.124,1.275411293253259,5894.852337130108
1.128,1.3379664068946924,5898.174260976126
1.132,1.3911842114839428,5903.420781906812
1.136,1.4278085441654387,5898.36500682134
1.14,1.4444487998874849,5906.361524783996
1.144,1.441978912328288,5889.671568823185
1.148,1.4246715682858504,5906.233034721703
1.152,1.398349797242925,5895.710253269748
1.156,1.3682228618872954,5902.894013674078
1.16,1.337254828999367,5910.474573055269
1.164,1.3057292609638462,5902.269973279621
1.168,1.2721259420317075,5895.429061570994
1.172,1.2347727534644455,5906.25525739684
1.176,1.1933796084193637,5905.411029234199
1.18,1.1497408864177976,5889.145067860115
1.184,1.1074520713192413,5898.084971147153
1.188,1.071007743220589,5894.381849249015
1.192,1.0447968914835044,5900.268988894471
1.196,1.0322856418904809,5903.703412857639
1.2,1.0353903136495521,5898.226830253736
1.204,1.0539982667096934,5898.627120483275
1.208,1.085758787910628,5905.314994754105
1.212,1.1263512731232295,5896.615259461383
1.216,1.1702683982285096,5912.953082596446
1.22,1.2118681565726221,5908.528671201168
1.224,1.2463238461612351,5906.679348455983
1.228,1.2702425721768704,5901.917649478569
1.232,1.2819659752993215,5904.71372345765
1.236,1.2816456806871597,5899.61241962186
1.24,1.2710648385045096,5899.829604002601
1.244,1.253124379202753,5906.832466043968
1.248,1.231093923834082,5894.95158186132
1.252,1.2079274823764603,5900.673814400962
1.256,1.185902715579214,5911.978773623327
1.26,1.1666216593295398,5898.255640960531
1.264,1.1512300359699261,5888.423697614877
1.268,1.1406489744196846,5897.943185191504
1.272,1.1356331973133134,5903.465213447236
1.276,1.1365754468656484,5910.9280582708825
1.28,1.1431627611758681,5895.337962557488
1.284,1.1541418500683318,5904.149274796439
1.288,1.1674157187849634,5898.238615321086
1.292,1.1804672948910722,5909.617433388712
1.296,1.1908809417918365,5904.568592892225
1.3,1.1966963279979825,5897.250405498193
1.304,1.1964709746147209,5906.580483856913
1.308,1.1891316635138804,5902.789417908553
1.312,1.1738612135344322,5901.67402338094
1.316,1.1502619898317623,5903.407000992367
1.32,1.1187856192484709,5906.067360345903
1.324,1.0811136666997045,5891.1611465843125
1.328,1.0401377120063786,5898.688975109797
1.332,0.999489543819398,5898.87089146878
1.336,0.9629252865104457,5908.57237688897
1.34,0.9339091701847669,5904.814484005296
1.344,0.9154418668147466,5899.97179474953
1.348,0.9098936408104615,5903.03816206971
1.352,0.9186436149275256,5898.325049714854
1.356,0.9415847161203835,5907.963148901975
1.36,0.9767177765312182,5901.245644374521
1.364,1.020037731455926,5903.999464038637
1.368,1.0658405570115737,5908.245434938418
1.372,1.1075136137929713,5907.928554973336
1.376,1.138760825255973,5888.637309354618
1.38,1.155043486362436,5902.5360072199965
1.384,1.1548446452225942,5902.429361788337
1.388,1.1402779133480379,5907.016011341117
1.392,1.116680658085041,5902.5766138551335
1.396,1.0912137889053581,5906.799154472414
1.4,1.070950558618295,5900.344439757845
1.404,1.0611243299718949,5901.679928110684
1.408,1.0639951749962988,5902.85912202789
1.412,1.0784565940374529,5907.866551135086
1.416,1.1003375268340607,5908.187036780329
1.42,1.123345338071326,5907.803913339456
1.424,1.1405586597349033,5903.249806756374
1.428,1.1462418881601366,5912.702587809946
1.432,1.137560954042795,5904.346824368947
1.436,1.1156360689726572,5905.334166548079
1.44,1.0854413215761476,5902.874107808039
1.444,1.054450499146888,5910.19193029186
1.448,1.0304630880187975,5910.346306409595
1.452,1.0193964750942155,5898.893409198271
1.456,1.0238162787414542,5900.238297319975
1.46,1.0426315369157722,5900.020751391267
1.464,1.0718565768313686,5905.665473062419
1.468,1.1059004096241363,5914.361583972553
1.472,1.138783243022832,5907.872261836101
1.476,1.1650146611957632,5900.228961650333
1.48,1.1802484611923125,5904.000185734571
1.484,1.1819246002122812,5906.856007999591
1.488,1.1699205900074274,5895.822439802004
1.492,1.1469645585460124,5909.219959112322
1.496,1.1184095406123908,5905.056811795737
1.5,1.0910930764494342,5903.782629320976
1.504,1.071433957188522,5899.718868875495
1.508,1.0634111808111226,5904.886248976013
1.512,1.0672588004189034,5901.601679770702
1.516,1.0794340661400013,5907.37281222425
1.52,1.093865248103516,5904.187298999048
1.524,1.1039760248210413,5908.225321886216
1.528,1.1047100530909992,5905.027812666121
1.532,1.0938256494863687,5910.284552339288
1.536,1.0721061150121491,5906.740873504653
1.54,1.0426574555837123,5906.71179554737
1.544,1.0098005028571424,5898.86847114062
1.548,0.978019178745368,5905.385553886592
1.552,0.9511655206831714,5910.281401591605
1.556,0.9319254445743907,5902.862648514693
1.56,0.9214913620099964,5903.403441673209
1.564,0.9193990417103427,5907.567411382399
1.568,0.9235441936397264,5905.378695641133
1.572,0.9304671929171856,5896.751544685328
1.576,0.9359928335619758,5911.884521034962
1.58,0.9362129514198572,5900.230252388029
1.584,0.9286457077186288,5893.640804566705
1.588,0.9132248659932224,5901.642746551014
1.592,0.8926642497083346,5892.219754210852
1.596,0.8718786954659953,5901.92176428799
1.6,0.8565321594674035,5913.633916336225
1.604,0.8512006176877382,5903.143037968029
1.608,0.8578496691231817,5911.450925684435
1.612,0.8752305408378481,5910.64544740109
1.616,0.8994005569782603,5905.128966716091
1.62,0.9250479719262207,5902.958312306586
1.624,0.9469636115805263,5904.438729762344
1.628,0.9610705602490671,5899.243525552231
1.632,0.96481878577218,5906.37789855595
1.636,0.9571608084583408,5906.5268836798805
1.64,0.9384465858218642,5901.442965154931
1.644,0.9103784370658472,5901.338042765865
1.648,0.8759111960168844,5904.580903033123
1.652,0.8389297118162639,5901.852246481032
1.656,0.8036833230068193,5907.714306919444
1.66,0.7741296823797595,5915.145167750575
1.664,0.7534024020545447,5908.910367953475
1.668,0.7435270538714791,5900.286304095901
1.672,0.7453265189182023,5906.30529635635
1.676,0.7583432222480702,5908.056316953051
1.68,0.7806982337923685,5906.924414916313
1.684,0.8090419081861561,5910.799436259663
1.688,0.8388987174541985,5903.060814924673
1.692,0.865590671689257,5913.038303445536
1.696,0.8855757662080264,5913.846202203962
1.7,0.8976848718776932,5906.255738488335
1.704,0.9036236059234605,5908.315754132484
1.708,0.9073452926266811,5911.333912924746
1.712,0.9134352961801566,5899.355704387815
1.716,0.9251878597591475,5914.223087639108
1.72,0.943229819916152,5904.023972304703
1.724,0.9652471170062772,5906.7366882266415
1.728,0.986861806326296,5908.651542049068
1.732,1.00327858414075,5895.7490713103525
1.736,1.0110616852273304,5910.115529116713
1.74,1.0093509519318447,5909.176196167697
1.744,1.0000507707657922,5904.903153241484
1.748,0.986973623750932,5906.5169710542405
1.752,0.974354604415937,5916.839989783132
1.756,0.9653682563225514,5912.649946811531
1.76,0.9612387424663312,5897.991129478274
1.764,0.9612601555713145,5911.010928582004
1.768,0.9635853791858298,5914.167755494952
1.772,0.966236160832975,5907.698714586464
1.776,0.9677589693826184,5906.475695149219
1.78,0.967316552602123,5912.7478245963775
1.784,0.9644079351477391,5908.815567998901
1.788,0.958531727410026,5899.915255327925
1.792,0.9489573998369376,5907.758907750044
1.796,0.9345957437512863,5903.932878144575
1.8,0.9139895417278041,5922.360337438958
1.804,0.8856071027735839,5918.709274204472
1.808,0.8485827619486452,5905.42959708688
1.812,0.8036846524834215,5921.385888755899
1.816,0.7539317936831348,5901.690740754664
1.82,0.7043260130699176,5914.75648310997
1.824,0.6606326254844501,5908.630469823053
1.828,0.6277130366744922,5911.350988878991
1.832,0.6081810141775874,5912.675129864549
1.836,0.6019261280630237,5912.286479439446
1.84,0.6065134819136189,5903.082269908567
1.844,0.6180424429132114,5900.859035164546
1.848,0.6319826159021632,5911.8024325019
1.852,0.6437523956931981,5915.347614762948
1.856,0.6491340954841572,5900.786348381208
1.86,0.644763633054884,5911.806130105154
