时间(s),电压(V),幅值(高频80K)
0.0,1.6370287622342041,5904.406923769819
0.004,1.432352073850691,5907.901044950947
0.008,1.2474346834620988,5900.870045508754
0.012,1.1002074687782413,5901.068754301983
0.016,1.003093114950165,5898.67389217248
0.02,0.9610116231553989,5897.124524005536
0.024,0.9708206781249838,5906.090297497779
0.028,1.022540295644378,5903.482369679572
0.032,1.10188505547222,5888.864868107325
0.036,1.1931868253127427,5899.7123308257815
0.04,1.2819591528140797,5903.8782957469375
0.044,1.3566962127272195,5906.57354151249
0.048,1.4097493941980002,5904.024133276669
0.052,1.4373535632522143,5909.9002150901815
0.056,1.4390841350839316,5903.783972473672
0.06,1.4171262612074733,5905.469400567472
0.064,1.3756753925049505,5906.75619918333
0.068,1.3205404886428496,5900.166645446501
0.072,1.2587089190689977,5905.688921485713
0.076,1.1975512464589124,5901.00786680654
0.08,1.1436352347553596,5904.239178095632
0.084,1.1015045239006054,5894.259830138495
0.088,1.0728470322090808,5887.511361264037
0.092,1.0562330412129832,5905.727273163718
0.096,1.0474531091608439,5905.518198683619
0.1,1.0405740776941146,5902.459443506167
0.104,1.0297638402771236,5892.43207485158
0.108,1.0114616935216048,5891.41660084552
0.112,0.9859999174447815,5895.144565642389
0.116,0.9578684069280925,5901.049513609282
0.12,0.9344339458444598,5885.934014648491
0.124,0.9235752532696662,5909.072304224803
0.128,0.9310197483323377,5905.819298579515
0.132,0.95820552181921,5895.5094871060055
0.136,1.0013782259538555,5898.70897806026
0.14,1.0523460273907839,5895.882744454702
0.144,1.1007874905243666,5903.814479101177
0.148,1.1373724882174918,5900.027612704962
0.152,1.156569478381129,5907.758553189586
0.156,1.1581535593984436,5895.799821522075
0.16,1.147026645765935,5906.434529210804
0.164,1.131626231888058,5903.160540115846
0.168,1.1215396520366525,5899.996161583015
0.172,1.1249101556659173,5897.40720658852
0.176,1.1461430298148647,5896.730206927499
0.18,1.1845116362894546,5901.359827041014
0.184,1.2342654247046545,5908.272833600358
0.188,1.2863967662587885,5896.015215659312
0.192,1.331463417500171,5900.39115236911
0.196,1.3623296076931122,5904.131910445586
0.2,1.3757820435228425,5899.881916994596
0.204,1.372632574684498,5902.796719069263
0.208,1.3566678584622982,5908.830634405415
0.212,1.3331515469517716,5897.6442282984
0.216,1.3074398160924852,5894.440527627203
0.22,1.2839391147918127,5900.617702925879
0.224,1.2653971563305286,5907.370624907759
0.228,1.2524682288351474,5899.33933130293
0.232,1.2436218989086874,5901.7325678963925
0.236,1.235602982779416,5896.493709707472
0.24,1.2245285927237322,5907.833466376535
0.244,1.2073267556724914,5900.339195985255
0.248,1.1829512861794744,5897.522960932036
0.252,1.1529056392141568,5902.175130560419
0.256,1.120921272016393,5894.958103152993
0.26,1.0919103183321501,5898.579355229353
0.264,1.0704852061320171,5900.196947001473
0.268,1.0594647738208771,5904.069691490077
0.272,1.0588946491698348,5897.735156413275
0.276,1.0660910193530464,5901.999673573622
0.28,1.0768801636280068,5897.90609544612
0.284,1.0875940602997232,5899.7937916086
0.288,1.0968817277233154,5906.090568253473
0.292,1.106379830165232,5896.131814471255
0.296,1.1198102495520235,5896.771435383261
0.3,1.1408843314244066,5896.166369787923
0.304,1.1710424311618763,5896.399426151542
0.308,1.2081387091794056,5897.200718770971
0.312,1.2466756868287066,5899.626555333273
0.316,1.2794705584629076,5902.163202270448
0.32,1.300073368369103,5899.586886961732
0.324,1.3050084831964437,5900.563212393922
0.328,1.29500857060722,5900.056400628142
0.332,1.2748401939897909,5899.036513336198
0.336,1.2519050375211134,5904.610978282453
0.34,1.2341972558739145,5899.728604033545
0.344,1.2281955634579589,5904.537469903856
0.348,1.2370578206385965,5905.54728688966
0.352,1.2594206222991342,5898.162950272476
0.356,1.2892206935586745,5899.331930812601
0.36,1.316925873010702,5894.372257660805
0.364,1.3321514137627972,5889.207385769665
0.368,1.3269829251350156,5897.688832149516
0.372,1.2988281772112653,5902.728830106103
0.376,1.2516338354327883,5895.867444638621
0.38,1.1949014801973667,5898.181967573814
0.384,1.1408197246367142,5904.434328768379
0.388,1.100540996649554,5891.476440163816
0.392,1.0809090689431873,5911.9880820000335
0.396,1.0827574919654863,5893.737105305012
0.4,1.1013058819197385,5893.129978246812
0.404,1.1283776236617233,5898.379620295344
0.408,1.1555057551324146,5900.71451257976
0.412,1.1767369567244155,5899.289233704142
0.416,1.1901238359663442,5904.1489550772685
0.42,1.1974609738403323,5899.859481028389
0.424,1.2025674797721442,5889.876271595766
0.428,1.2089600515472194,5905.449847045165
0.432,1.217870240882981,5899.605168994209
0.436,1.2273494215762406,5904.74833112667
0.44,1.2328069629238554,5895.308372669881
0.444,1.2287657687766567,5900.369427263265
0.448,1.2110774614959734,5897.002941635281
0.452,1.1786614859215694,5905.393655927685
0.456,1.1341555097960834,5896.952430068699
0.46,1.0834377327122429,5900.288453508996
0.464,1.0343867535083846,5907.741632063068
0.468,0.9952861306767696,5902.572181810547
0.472,0.9731695686169207,5902.1527055875085
0.476,0.972427841032,5902.663737154832
0.48,0.9940691495956804,5909.55415585681
0.484,1.03583567641508,5911.127407276061
0.488,1.092955572919029,5906.44820049701
0.492,1.159027814061501,5899.765764654558
0.496,1.226664175132034,5899.07586697772
0.5,1.287941725836487,5900.785891981373
0.504,1.3350738512536529,5907.371583347219
0.508,1.3616482490706543,5902.864851934296
0.512,1.3643116539055127,5901.378130660897
0.516,1.344257055578186,5901.041162968072
0.52,1.3076999831698497,5897.0815163128
0.524,1.2648783850147391,5896.033910327584
0.528,1.2277435803967467,5902.472915202468
0.532,1.20699749691748,5891.347040794704
0.536,1.2092870917497962,5893.181809859051
0.54,1.2353195191662922,5897.380587867941
0.544,1.279494105254042,5903.359108656213
0.548,1.3312895397426638,5901.2546624584775
0.552,1.3781175799541465,5897.655314813409
0.556,1.4088254416765327,5902.262184532648
0.56,1.4166909859142458,5890.199183502944
0.5640000000000001,1.400828252630181,5902.64887257495
0.5680000000000001,1.3655451832875336,5900.53149411421
0.5720000000000001,1.318127772020614,5907.283095744765
0.5760000000000001,1.2661936734709194,5894.158111072565
0.58,1.215762075601393,5897.435656514309
0.584,1.1706104205733652,5900.626220989832
0.588,1.1327553581836456,5896.465960059652
0.592,1.1034237434536183,5895.628347264614
0.596,1.0838420493029994,5898.135356945699
0.6,1.0754803471621355,5900.003424280035
0.604,1.0797873455496356,5900.649612594212
0.608,1.0976645806777308,5903.022252963069
0.612,1.1288888065403286,5897.41197086454
0.616,1.1716118591118962,5899.380934315279
0.62,1.2220794589461845,5902.32020787236
0.624,1.2747228628751577,5904.6616051282135
0.628,1.322724023754957,5896.343066637969
0.632,1.3590524344125738,5899.88359156073
0.636,1.3778225952747472,5892.837187766988
0.64,1.3756817644184902,5889.082691085266
0.644,1.3528867834411036,5898.456128280812
0.648,1.3137496631706693,5902.164060107409
0.652,1.2661999247264561,5902.963169769643
0.656,1.2203766227629476,5905.258854775091
0.66,1.1864536683653832,5892.405641156331
0.664,1.1722436506134866,5899.20194335932
0.668,1.1813294329791109,5901.241745456037
0.672,1.2123431907143225,5900.273487340888
0.676,1.25956742913221,5903.816127232667
0.68,1.3145315782961577,5901.697413885427
0.684,1.3679751312499895,5904.194747074212
0.6880000000000001,1.4115497289521828,5901.951198052641
0.6920000000000001,1.4389174282395918,5904.923755459176
0.6960000000000001,1.4462811763963497,5893.181127718932
0.7000000000000001,1.4325650151403329,5893.893732393562
0.704,1.399368360835538,5904.323519983551
0.708,1.3506760811409806,5896.915484678058
0.712,1.2922873462671707,5900.597573175475
0.716,1.2309706406007697,5896.580385931051
0.72,1.1734059230555036,5901.36442454788
0.724,1.1250735984233375,5904.182643170603
0.728,1.0893388657518766,5894.287392778545
0.732,1.0669642345178079,5897.509319799381
0.736,1.0562032978436955,5903.199422812972
0.74,1.0535402133823946,5898.062903429744
0.744,1.0549599202692028,5896.1267860082025
0.748,1.0573506300302067,5906.320579369319
0.752,1.0594874133729402,5898.396041531531
0.756,1.0622265022589978,5899.237916656398
0.76,1.0679129339609108,5896.506533189224
0.764,1.0792812448643816,5898.48261129672
0.768,1.0982305528857879,5899.670154895163
0.772,1.1248541583661062,5898.197156472403
0.776,1.156997939421945,5902.303571075625
0.78,1.1904216227142037,5896.320062363273
0.784,1.2195066545691173,5906.759996237508
0.788,1.2384814939946922,5898.323399620725
0.792,1.243105945175611,5889.425153398146
0.796,1.2324537954258648,5900.724510933931
0.8,1.2100463901811567,5900.011848319453
0.804,1.1835680276509388,5904.025356552148
0.808,1.1629359527096188,5898.579757475305
0.812,1.1573008807292207,5907.316823317854
0.8160000000000001,1.1720703183965773,5905.441578585015
0.8200000000000001,1.2069888845140568,5903.481464533336
0.8240000000000001,1.2558466094956846,5899.188399983936
0.8280000000000001,1.3078411240146204,5898.74826816408
0.8320000000000001,1.350179432496794,5904.428930825912
0.836,1.3712382111575914,5893.710803220296
0.84,1.3635111631183403,5905.360475252145
0.844,1.325608949933468,5899.58938011533
0.848,1.2627359466708508,5907.644820097815
0.852,1.1854089112219022,5901.632174826061
0.856,1.1067003550132248,5904.756132176701
0.86,1.038830711051214,5903.848909345714
0.864,0.9902553762343753,5895.827577274705
0.868,0.9642631322320533,5898.269254661651
0.872,0.9594493406085254,5901.145632245463
0.876,0.9715326296452409,5899.858406215918
0.88,0.9954094287282967,5896.726542051732
0.884,1.0264634041898002,5902.174810475135
0.888,1.0608175345550346,5898.413710457937
0.892,1.0949209409580827,5899.114595629735
0.896,1.1251418926806576,5905.614779142586
0.9,1.1478372858245165,5896.222478604082
0.904,1.1599992909187609,5902.873429607677
0.908,1.1602825483843402,5906.961700203072
0.912,1.1499855995906139,5896.258997099926
0.916,1.1334393936294223,5899.18101592495
0.92,1.1173742056478466,5894.699390088485
0.924,1.1091750079695,5895.958401207986
0.928,1.114377122543469,5908.046119780344
0.932,1.134208518012308,5890.977939701145
0.936,1.16426184924383,5897.3233125713805
0.94,1.195186576319616,5909.54806467509
0.944,1.2155251581663884,5902.2577987084405
0.948,1.2157684920671936,5904.098165774185
0.952,1.191963689278783,5899.091034951696
0.956,1.147301212266492,5906.451996005086
0.96,1.0910674706147707,5904.773255618538
0.964,1.0355860621530237,5897.4993838155815
0.968,0.992538313148935,5903.892909452752
0.972,0.9700309665439922,5901.084504015264
0.976,0.9711776152573001,5904.845221137372
0.98,0.9942118390919285,5899.141949770273
0.984,1.0336230084773868,5903.930023769547
0.988,1.0816884756540974,5894.427055631949
0.992,1.1300071020982674,5902.953856284399
0.996,1.1709217551079278,5900.462941846327
1.0,1.1987613534892656,5908.799529604974
1.004,1.2106807282062166,5897.899764466077
1.008,1.2068529400880708,5895.453240765037
1.012,1.190004685790482,5903.279697351276
1.016,1.1645348617270062,5898.880000479081
1.02,1.1354915152230454,5898.138793526718
1.024,1.1075920991815678,5904.265047716107
1.028,1.0844289763772819,5906.892623033427
1.032,1.0679889625310304,5904.758831297376
1.036,1.0585482378216733,5899.394137068938
1.04,1.0549321099214406,5899.458149547164
1.044,1.0551040614761826,5902.006162526714
1.048,1.0569677448552361,5896.356593034316
1.052,1.0591121906440482,5898.582521734824
1.056,1.0612243723878196,5898.356623765251
1.06,1.0641026660392978,5899.645500810051
1.064,1.0693512681191097,5904.820163306186
1.068,1.0787763152928433,5897.132544886258
1.072,1.093500402972013,5906.594948178088
1.076,1.1130563797307171,5893.435701860698
1.08,1.1349605325670604,5899.763654550253
1.084,1.1551429374333146,5900.944711692365
1.088,1.1691621858520076,5902.520983801689
1.092,1.1737113254995923,5903.513214279754
1.096,1.1678025439519655,5903.0158083918095
1.1,1.153207836102715,5898.750600673531
1.104,1.1340676789444926,5890.825826085789
1.108,1.1158554971237127,5900.595059198287
1.112,1.1040069854411865,5896.078426944855
1.116,1.1025480732072062,5900.485562627371
1.12,1.1130519197329325,5901.018717832382
1.124,1.1342136121947826,5897.739673915295
1.128,1.162208291457911,5900.609202209632
1.132,1.1917651039029797,5895.462461854521
1.136,1.2176069321380645,5899.674839046744
1.14,1.2357469221223567,5904.02956997332
1.144,1.2442193173819214,5897.087127121463
1.148,1.2431034620762023,5902.3414223248365
1.152,1.2340027606336603,5896.194375772555
1.156,1.2192887246251787,5905.735580437208
1.16,1.2013930191761433,5901.324044742168
1.164,1.1823619638935519,5896.178344423885
1.168,1.1638262898587612,5896.999900611178
1.172,1.1473912164952318,5895.822609070237
1.176,1.1352270824923412,5892.9465965680165
1.18,1.1304931727124454,5893.023556841757
1.184,1.137240987192664,5901.2313026380125
1.188,1.1595942904638068,5893.153363148991
1.192,1.200276332010054,5913.641705903253
1.196,1.2588970707506146,5914.106884109946
1.2,1.33067133313796,5893.941169633958
1.204,1.406273922526445,5908.1159278744735
1.208,1.4732883970983222,5894.320560018901
1.212,1.5191402735254536,5902.741138423708
1.216,1.5346611045018212,5907.352432803488
1.22,1.5169478566766303,5892.727185599026
1.224,1.4703540394099137,5908.03110689306
1.228,1.4051893993921392,5897.4282713833445
1.232,1.3346082424013297,5885.567028028329
1.236,1.270872880778674,5910.41441946931
1.24,1.2223972219766779,5899.433547352463
1.244,1.1925228956297196,5895.922849224571
1.248,1.180072058180481,5898.965877438246
1.252,1.1809486754510847,5896.404897325817
1.256,1.189864491377631,5899.642232203432
1.26,1.201574980048884,5897.981268003097
1.264,1.2114662356771349,5891.946933319382
1.268,1.2156857389276412,5909.492424090417
1.272,1.2111704946727595,5904.078164236299
1.276,1.195845613962495,5907.170870836093
1.28,1.1689964584329529,5894.623793494063
1.284,1.1315826425197464,5898.169432109162
1.288,1.0862479806157899,5899.193605006843
1.292,1.0369345984242402,5898.761194461892
1.296,0.9881846395217203,5898.542466062686
1.3,0.9443399734867594,5892.231375086433
1.304,0.9088963735825403,5903.204377064479
1.308,0.8842147250270423,5892.278717800928
1.312,0.8716621850698731,5900.193541754993
1.316,0.8720862132378971,5888.762998761802
1.32,0.8863647366021313,5900.4525344814165
1.324,0.915714996831224,5907.913829931517
1.328,0.9615342469897722,5897.623484891479
1.332,1.0247327470732441,5897.027693597429
1.336,1.1047138418580882,5899.561257668251
1.34,1.1983307274254935,5902.217085273062
1.344,1.299273209345057,5891.799848274757
1.348,1.398291403368365,5901.5205051218845
1.352,1.4843798529249579,5905.200385296182
1.356,1.5466685024067048,5902.099550362638
1.36,1.5765235326879652,5898.287882671272
1.364,1.5693198623828504,5903.3557551860085
1.368,1.5254372798986249,5899.896509226421
1.372,1.4502234897001265,5908.304771059356
1.376,1.3529560044219175,5909.2470579737455
1.38,1.2451349386931274,5893.403724490227
1.384,1.1386171120717756,5899.342409447191
1.388,1.0440609146372286,5897.62083871675
1.392,0.9698992431752986,5895.929735211084
1.396,0.921761586675524,5907.767753972987
1.4,0.9021472633380324,5900.903328434361
1.404,0.9102532214474139,5898.6019571829565
1.408,0.9419928693396887,5902.184466789016
1.412,0.9902746261833186,5898.091863975304
1.416,1.0456611992951015,5898.471746148798
1.42,1.0976246843041788,5898.078753808659
1.424,1.136449162187582,5894.226266575149
1.428,1.1553547784616378,5897.756354658458
1.432,1.1521067950158397,5897.108968854169
1.436,1.1295494159171873,5902.913954684188
1.44,1.0948953075495536,5904.480933456907
1.444,1.0579009214870414,5891.095216758781
1.448,1.028330200551344,5910.279613090625
1.452,1.0134122457032737,5904.074505852244
1.456,1.016096972799812,5893.582900365269
1.46,1.0346437018835646,5896.374521523071
1.464,1.0636145311909317,5897.909447512954
1.468,1.0958820315655893,5896.702766633307
1.472,1.1248529557309952,5904.484595306677
1.476,1.145972461088617,5901.138365399607
1.48,1.157006843119919,5890.02780615676
1.484,1.1574078294902177,5901.939952926827
1.488,1.1475531285812526,5899.370810363678
1.492,1.1284512629439918,5891.279125599976
1.496,1.1019015025631174,5900.224113591071
1.5,1.0706749676714358,5902.640389081712
1.504,1.0383143212051893,5896.064126467369
1.508,1.0085151531272536,5897.609273694218
1.512,0.9844174335094237,5899.0878565471485
1.516,0.9682210939168614,5902.469750884407
1.52,0.9612877590989974,5896.165835295479
1.524,0.9644975933574541,5893.6125295137645
1.528,0.9784218461312905,5907.512511852467
1.532,1.0030236458043584,5896.66750040861
1.536,1.036964805646209,5900.4773670522745
1.54,1.0768715830735134,5903.473361028678
1.544,1.1169727080388396,5896.144932502968
1.548,1.149477827248152,5909.167925923045
1.552,1.165950370072196,5903.948022379098
1.556,1.1595958109859663,5905.387264530658
1.56,1.1278231668140433,5893.543826497635
1.564,1.07397785554341,5906.776266903369
1.568,1.007219867341771,5892.365843313732
1.572,0.940264288191911,5895.460577711389
1.576,0.885731641988688,5900.642197976909
1.58,0.8525143760447753,5906.17268702101
1.584,0.8434845603174181,5907.728935797028
1.588,0.8552239410518071,5895.706194342163
1.592,0.8796741457850277,5895.167804629655
1.596,0.9069902560643213,5903.084982497664
1.6,0.9285633226559655,5902.192850308762
1.604,0.9392185998597007,5904.784345200343
1.608,0.9380033983676354,5900.243972461964
1.612,0.9275770846498951,5904.808744020503
1.616,0.9126872514873603,5894.983380195014
1.62,0.8983708607148273,5889.730265746518
1.624,0.8884375526938959,5898.7305649681575
1.628,0.8846212884379205,5902.866398042985
1.632,0.8865306688747053,5900.863534037668
1.636,0.892210735041282,5894.6539450944165
1.64,0.8989616122915015,5893.7730665473255
1.644,0.9041553288235128,5902.17120336868
1.648,0.905942298275103,5909.504658750757
1.652,0.9037466125097894,5899.274096867046
1.656,0.8984060182858447,5902.8783991813625
1.66,0.8918737244973668,5900.430455882037
1.664,0.8865498181748589,5902.333898818845
1.668,0.8844383313183559,5907.01406745786
1.672,0.8863859496908344,5904.489127017262
1.676,0.8916798460932298,5906.594737245212
1.68,0.8982327844588028,5902.136627689709
1.684,0.9033690545897376,5899.869649158652
1.688,0.9048927145300839,5898.97651346033
1.692,0.9018940889931297,5903.607299546831
1.696,0.8948360773235109,5901.839736853182
1.7,0.8848866874003816,5904.757534836099
1.704,0.8729866330327227,5902.001986350257
1.708,0.8593426547552583,5898.406989849462
1.712,0.8437197659045109,5907.334286312793
1.716,0.8263129572308414,5898.586108306008
1.72,0.8085475534657722,5901.3436607606445
1.724,0.7931804779405003,5900.974554081049
1.728,0.7835297884932458,5893.481785425985
1.732,0.7822130040759107,5899.751640675187
1.736,0.7900451575650848,5893.623027602184
1.74,0.8056105743859524,5906.48825766421
1.744,0.82563073086348,5907.746461449339
1.748,0.845875042936685,5892.432657216415
1.752,0.8622288573721737,5907.060063036348
1.756,0.8716599322107669,5907.077647711957
1.76,0.8729831948477325,5896.567771775219
1.764,0.8673124683544662,5908.148969367478
1.768,0.8580066293435389,5894.154739919089
1.772,0.8499725277099922,5907.780366295445
1.776,0.8483510138910376,5897.128518234679
1.78,0.8567639786491824,5904.719773147896
1.784,0.8755030849429672,5908.505378913672
1.788,0.9003398330427064,5903.344144916488
1.792,0.922757729559866,5910.075642113846
1.796,0.9320139528367296,5894.851854528513
1.8,0.9186155028899862,5902.509202448328
1.804,0.8780300765923749,5901.521265694782
1.808,0.8131844559563214,5905.917700069145
1.812,0.7346669467442041,5901.853790674932
1.816,0.6583940310259851,5902.232212813725
1.82,0.6014456826872572,5896.400715435784
1.824,0.5773976909033602,5902.303722102466
1.828,0.5925936990550371,5907.183964891873
1.832,0.6444575139876366,5915.799393849855
1.836,0.7222782114891397,5898.401520513075
1.84,0.8101034805139707,5897.502641886451
1.844,0.8907350520566829,5894.312807788574
1.848,0.9495879220236744,5904.093011665
1.852,0.9774258470413543,5903.704347844503
1.856,0.9715344931878886,5908.088876130159
