时间(s),电压(V),幅值(高频80K)
0.0,0.8416432809013327,5898.282827941854
0.004,0.9288768188929206,5902.319546168283
0.008,1.0105184304139374,5898.683562924524
0.012,1.081712269353912,5908.632231249178
0.016,1.138826491935235,5897.85655335117
0.02,1.179514982229753,5897.543205952898
0.024,1.2027523246485108,5906.073187363357
0.028,1.2090113999423961,5897.249016104029
0.032,1.200330066287148,5902.850965491374
0.036,1.179913086175937,5893.521313734646
0.04,1.1513163430937468,5896.755042921655
0.044,1.1176905168843483,5895.543498304845
0.048,1.0815340842471537,5898.89325085902
0.052,1.044984054520343,5898.338943837723
0.056,1.010280811790801,5893.794966530808
0.06,0.9799838338057633,5895.253995549276
0.064,0.9567583895637307,5887.04196756439
0.068,0.9428545811790282,5899.38536039273
0.072,0.9395526771071605,5897.0549661298055
0.076,0.9468182329715213,5894.508050719785
0.08,0.9632756123177035,5901.151350859466
0.084,0.9864547173794022,5903.393811212824
0.088,1.0131618407425445,5895.6247353054905
0.092,1.0398465925886506,5896.910666354144
0.096,1.0629758274042218,5900.630443592251
0.1,1.0795016425303103,5904.661728006856
0.104,1.087385160994119,5897.062839280045
0.108,1.0859695928486894,5895.516513797177
0.112,1.0760236005232258,5902.112926575303
0.116,1.0594633713918507,5898.191168501258
0.12,1.0389008308718444,5903.587415968617
0.124,1.0171815096424093,5903.649318942324
0.128,0.9970272690424284,5891.938700354405
0.132,0.9808054790262564,5905.906823120705
0.136,0.9703245398654551,5905.573156868079
0.14,0.9665334127689578,5897.49386539404
0.144,0.9691529028001907,5898.124923828139
0.148,0.9764354311596993,5892.223240305453
0.152,0.9852773980001006,5899.480124262735
0.156,0.9918305747252879,5902.331279199213
0.16,0.9926202068526419,5904.124820854557
0.164,0.985900216260532,5890.7748677416985
0.168,0.9726143684862285,5896.167910441211
0.172,0.9562548832279878,5899.492107999404
0.176,0.9414460792604026,5901.472830932911
0.18,0.9319592125008654,5894.361226650628
0.184,0.9293107336980408,5895.9855810454665
0.188,0.9326749753309834,5903.122276659162
0.192,0.9399501450265353,5895.564039441018
0.196,0.9491776526515286,5906.332042354653
0.2,0.9594646570350794,5905.78274460707
0.204,0.9709558537259126,5905.026538732898
0.208,0.9839595970430469,5898.870082269639
0.212,0.997816692119915,5897.329190878558
0.216,1.0102793682707494,5893.610558783996
0.22,1.0178977035948182,5900.803376468181
0.224,1.0173235180057063,5906.295805194891
0.228,1.0069063536079788,5894.647438355107
0.232,0.9877838100639079,5892.849916829381
0.236,0.9639228249723019,5901.018312103982
0.24,0.941076048119162,5891.762341364381
0.244,0.9250834581086322,5903.839896508455
0.248,0.9201577034477488,5899.328290426314
0.252,0.9277255431775916,5897.222679050846
0.256,0.9461473358476788,5899.665329959125
0.26,0.9713079785298873,5901.614530025481
0.264,0.9978026851349331,5902.228750458695
0.268,1.020327075535664,5902.435615046161
0.272,1.0349067881661789,5896.793069922567
0.276,1.0397092487656745,5894.871924596852
0.28,1.0353187363850342,5894.041462063893
0.284,1.0244755829217622,5897.790793062284
0.288,1.0113626149872157,5903.404414735614
0.292,1.0005675786613855,5901.258077278874
0.296,0.995874852808757,5897.921659578554
0.3,0.9991047787154627,5908.988314329789
0.304,1.0093433589670437,5904.933105215552
0.308,1.0229568200910142,5901.732832796308
0.312,1.0345881760850977,5897.710106966329
0.316,1.0389123363249255,5894.223132332635
0.32,1.0325550312024414,5903.444499954377
0.324,1.0154828525902952,5900.6772615154
0.328,0.9913252202899206,5895.138465442527
0.332,0.9664219409546736,5897.935963885814
0.336,0.9478813892760272,5898.254260435595
0.34,0.9413964535417572,5903.089462826247
0.344,0.9496619671634071,5895.76029954144
0.348,0.9718737035455763,5900.338404290658
0.352,1.004261960780159,5893.409409753056
0.356,1.0412800034264966,5893.926277089004
0.36,1.0770229403281897,5904.762315750461
0.364,1.106565324878363,5901.0978067916285
0.368,1.1270056236936794,5901.161050259881
0.372,1.137997393703451,5904.408930470814
0.376,1.141512014228512,5885.573191357348
0.38,1.140738375109895,5897.107825390328
0.384,1.1384396481851176,5903.699984651467
0.388,1.1354677520732284,5905.375207504705
0.392,1.1301409759869334,5898.976537163514
0.396,1.1188181328533797,5897.004252757821
0.4,1.097524186161475,5903.348711986992
0.404,1.0640763043958323,5899.750676724049
0.408,1.0198709366315797,5901.246480271394
0.412,0.9704717725905063,5899.52031958729
0.416,0.9245577027146478,5904.761744759154
0.42,0.8915128337063786,5895.210935812422
0.424,0.8785422798216934,5906.361629666386
0.428,0.88834660479902,5903.798812375873
0.432,0.9181009440242524,5895.1147065190335
0.436,0.9600137361054045,5893.283729902012
0.44,1.0033007041053021,5897.830223222048
0.444,1.0370614149959256,5898.309732113496
0.448,1.0532792338814407,5896.776625888943
0.452,1.0490494490853006,5902.470113658538
0.456,1.027315298058109,5893.787230035333
0.46,0.9958665111806053,5892.785237617352
0.464,0.9649165854642137,5895.088279312674
0.468,0.9440009847771074,5903.651440112053
0.472,0.9391594137868426,5903.359519463678
0.476,0.9513304618389858,5900.987238834097
0.48,0.9764901853520007,5892.276098091036
0.484,1.0073642991687815,5899.0417403338215
0.488,1.035892210657914,5901.002036489364
0.492,1.0554306202150836,5894.818669901546
0.496,1.062046706280144,5897.2096292633605
0.5,1.0548407554859056,5898.262369696562
0.504,1.035619373993428,5897.331324767126
0.508,1.0082607096027456,5902.977545270996
0.512,0.977935877068851,5905.326805060582
0.516,0.9502032058877556,5892.491919843406
0.52,0.929991167600104,5896.451158837722
0.524,0.9206027014372071,5914.524070056044
0.528,0.9230044811977037,5895.294929600146
0.532,0.9357083480737891,5890.720238422534
0.536,0.9553869112979643,5894.546795513876
0.54,0.9779839684902936,5890.819492963148
0.544,0.9997853417586484,5901.481099721048
0.548,1.018022433031984,5896.777041946173
0.552,1.0309666897164895,5901.930504783651
0.556,1.0377525951984123,5894.812699373621
0.56,1.0381838262340943,5893.755516103246
0.5640000000000001,1.0326511410693393,5904.486297051189
0.5680000000000001,1.0221444430400666,5899.038893666428
0.5720000000000001,1.0082529419683015,5903.044060081089
0.5760000000000001,0.9930949541487051,5902.027061206535
0.58,0.97923018626274,5907.827434185235
0.584,0.9695718708979318,5903.245359402221
0.588,0.9671396266898719,5893.018152298734
0.592,0.9744634738755714,5893.216499921782
0.596,0.992701372413652,5900.325637430037
0.6,1.0208322318535388,5896.582335363616
0.604,1.0553390397604816,5894.203049146644
0.608,1.0905801488732285,5905.180724318913
0.612,1.1197736550060367,5905.92422388738
0.616,1.1363750215883428,5907.269562845341
0.62,1.1355995410067061,5891.8957174754
0.624,1.1158075574615378,5896.141305810136
0.628,1.079400084785614,5904.208633642242
0.632,1.0328638895005242,5899.942155329888
0.636,0.985754928218568,5895.713122304793
0.64,0.9487135760927677,5902.958359640403
0.644,0.9309565579336672,5901.364455653901
0.648,0.9379232585223514,5893.267584342429
0.652,0.969740853051223,5894.629646808954
0.656,1.0209125407319006,5894.910380616419
0.66,1.0812695056332933,5908.056724081566
0.664,1.1379582716370549,5893.307909707008
0.668,1.1781169951485353,5898.89122083375
0.672,1.1917824697743993,5897.938364912196
0.676,1.1743722186700365,5895.180726754979
0.68,1.1279724060203054,5903.294909674662
0.684,1.0608804323016323,5898.042331222298
0.6880000000000001,0.9854243704590021,5905.291253730571
0.6920000000000001,0.9147593846944013,5894.505904727442
0.6960000000000001,0.8597462440343016,5910.6245084974735
0.7000000000000001,0.8268736793542716,5897.9274948102375
0.704,0.8175816218750476,5891.940171873051
0.708,0.8287185025191169,5896.079615199506
0.712,0.8536329928967379,5906.006933441261
0.716,0.883582060956538,5897.882715366929
0.72,0.9094042311061544,5895.040065991116
0.724,0.923424339764428,5905.076134596882
0.728,0.9213027628106181,5894.405780627126
0.732,0.9033000442073938,5909.920563972622
0.736,0.8744769187979176,5902.0506420775
0.74,0.8436966739590509,5899.498754724358
0.744,0.8216853597578213,5897.9135041085865
0.748,0.8185976532612531,5902.21154918427
0.752,0.8415607099193674,5897.86565064636
0.756,0.8926963619861422,5901.4317722473525
0.76,0.9681556243685002,5900.094303063454
0.764,1.0585632382184322,5902.021106620216
0.768,1.1508881086981109,5907.574066205282
0.772,1.2312870421755338,5893.797403946886
0.776,1.2881577527189583,5895.056553913687
0.78,1.3145932405757053,5900.958180235774
0.784,1.309622294328127,5898.878241310476
0.788,1.2780037914644928,5906.342716908064
0.792,1.228788271589102,5902.246612081038
0.796,1.1731237409926785,5905.700740477239
0.8,1.1218048306036792,5900.640175505248
0.804,1.0830476454264384,5898.243675956076
0.808,1.0609788649565512,5900.367871374192
0.812,1.0551934723316483,5897.023884600467
0.8160000000000001,1.061437082296177,5898.323885702527
0.8200000000000001,1.0731808943242822,5891.0908862240585
0.8240000000000001,1.0836724149164119,5897.801181402744
0.8280000000000001,1.087914596039554,5906.320390338258
0.8320000000000001,1.083955387241912,5900.211241699712
0.836,1.0730057554836354,5906.942675250932
0.84,1.0583565842552518,5899.798172286584
0.844,1.0436547674153083,5890.183762517804
0.848,1.0314062492133762,5889.568342873387
0.852,1.022350451074088,5899.554787663192
0.856,1.0158052545217982,5894.978661734766
0.86,1.010623796239954,5902.016218621056
0.864,1.0062216066526453,5888.811357257029
0.868,1.003187533953465,5899.818116257245
0.872,1.0032345846821447,5898.005746754092
0.876,1.0085745837741196,5907.449051362249
0.88,1.0210061692404713,5898.515578359879
0.884,1.0410106439147049,5894.393427040597
0.888,1.0670923168236919,5896.348943700453
0.892,1.0955826779165603,5904.557223290006
0.896,1.1211095651465035,5899.329301402314
0.9,1.1378158866953285,5900.038399014413
0.904,1.141105802544823,5901.142892730982
0.908,1.1292933889103385,5898.475576211311
0.912,1.1043864053080399,5896.611142500332
0.916,1.0715803436460096,5900.186201151564
0.92,1.0376359923930878,5902.407840969944
0.924,1.0087719883304402,5902.107023908631
0.928,0.9888498466812758,5907.733649614268
0.932,0.9784845329296924,5892.858856840689
0.936,0.9753410580617506,5893.02128133442
0.94,0.9754184568962355,5900.610919456388
0.944,0.9747975142366586,5892.407656228541
0.948,0.971244033867449,5895.852478887435
0.952,0.9651368790780731,5894.790993280642
0.956,0.959359540601829,5899.074926353568
0.96,0.9580972304777456,5898.835456076899
0.964,0.964907601294425,5902.430516615675
0.968,0.9807966435599894,5899.592139509577
0.972,1.0031052203483393,5904.140684597204
0.976,1.0257302800507846,5911.071690503568
0.98,1.0407082067611526,5908.724433980345
0.984,1.040697251197552,5899.470044305078
0.988,1.0215579074713719,5902.674313741486
0.992,0.9841087193547106,5902.405587748318
0.996,0.9343274008825571,5890.177995371939
1.0,0.8818355967912298,5899.35142618609
1.004,0.837234042735536,5896.740991480412
1.008,0.809309260139809,5902.633368082094
1.012,0.8030657557457093,5889.669569995998
1.016,0.8190691072980181,5903.667033750428
1.02,0.8540051106912354,5900.6635751791855
1.024,0.901948426383479,5906.546774817674
1.028,0.9557890489668655,5905.407445322082
1.032,1.008534900155716,5899.909329508832
1.036,1.054443569294357,5897.430054281796
1.04,1.0898782941986291,5902.991821311362
1.044,1.1136484018324817,5901.408378531824
1.048,1.126740331457505,5907.776138600273
1.052,1.131665210406199,5894.618578111476
1.056,1.1317287946454586,5894.522985059909
1.06,1.1303235910153322,5896.6487779759655
1.064,1.1302092616123756,5904.503296576721
1.068,1.1328533884783476,5897.105978145862
1.072,1.1380385248349103,5900.030860789416
1.076,1.1439120542800931,5910.675613898028
1.08,1.1475177608416893,5902.001437490123
1.084,1.1457092669361049,5898.191840432845
1.088,1.1362223630897608,5902.536990904385
1.092,1.1185913057349772,5895.325073749515
1.096,1.0945961929877621,5896.6489544494
1.1,1.0680505685361898,5901.168389662551
1.104,1.043928086413985,5898.306182728884
1.108,1.027018203061641,5900.625028709936
1.112,1.0204675337685483,5901.891753424133
1.116,1.0246781531821285,5907.784112250525
1.12,1.0370050225614238,5888.316895497906
1.124,1.0524367891174526,5897.176063487596
1.128,1.0650405754523065,5901.079521498199
1.132,1.069637210258736,5906.890370994957
1.136,1.0631177089299424,5896.622871552399
1.14,1.0450080481427484,5906.976229377863
1.144,1.0172255379830462,5905.296948568978
1.148,0.9832792981830855,5903.573274401177
1.152,0.9472790274279356,5900.598282235851
1.156,0.9130103079799534,5895.876632543654
1.16,0.883188622113477,5901.989972999679
1.164,0.8589787936511453,5905.423612575177
1.168,0.8399187896750572,5898.479491395703
1.172,0.8243707035330742,5912.904996179826
1.176,0.8104725423563617,5900.732112228731
1.18,0.7973237948919829,5894.022328471742
1.184,0.7859165761960987,5893.766858351469
1.188,0.7792943107669119,5889.575884921969
1.192,0.78170189406522,5899.173256841866
1.196,0.7969825505578483,5903.430279290783
1.2,0.8268797839266049,5898.296629286683
1.204,0.8699533403768289,5900.580649034632
1.208,0.9214911197625876,5898.62275555967
1.212,0.9743358864739606,5903.313504234361
1.216,1.0202529549705595,5895.920792594039
1.22,1.051466933413273,5897.725673915147
1.224,1.062164540611311,5892.055419244287
1.228,1.04983081496174,5907.698654508836
1.232,1.016124658034192,5900.260981200779
1.236,0.9668361165451739,5895.047961404105
1.24,0.9106653529988472,5902.807690003463
1.244,0.8571099479444981,5892.759380629537
1.248,0.814212066701454,5901.296272198557
1.252,0.7869482047642729,5897.851501877701
1.256,0.7767009435413204,5892.772620728329
1.26,0.7818157325418618,5892.498064209425
1.264,0.7988965456501633,5899.732005059658
1.268,0.8242768306076035,5903.726240661814
1.272,0.8550717349540782,5895.439128069588
1.276,0.8894330736624491,5906.467238580076
1.28,0.926020036396785,5898.527146102487
1.284,0.9630879244892621,5896.803743057354
1.288,0.9978247353154872,5904.425994230284
1.292,1.0265064694291193,5899.157973110126
1.296,1.0456272187350448,5904.399119982439
1.3,1.0535294150231285,5905.610083117946
1.304,1.0516076059769037,5901.666153071651
1.308,1.044271906717575,5897.489029603819
1.312,1.0375374620163198,5896.23633052157
1.316,1.0368814366695327,5896.313720484391
1.32,1.0453215187087632,5904.219554495051
1.324,1.062402300760572,5896.892301790715
1.328,1.084291115675295,5907.885213145929
1.332,1.1048456376168794,5890.882150900326
1.336,1.1173511527326192,5895.429852300943
1.34,1.1164971290657282,5896.553501559368
1.344,1.100040427874523,5898.627841850238
1.348,1.069604418087528,5889.54026982798
1.352,1.030314704603834,5898.8932844187575
1.356,0.9894226551661227,5897.263351579366
1.36,0.9544580150936842,5898.216788061125
1.364,0.9315468302601242,5897.12711275235
1.368,0.9243360981713363,5893.220916331321
1.372,0.9336429079366269,5898.292743383361
1.376,0.9576509718450052,5896.35381196395
1.38,0.9923605803383004,5907.9792920199525
1.384,1.0321401072135128,5897.324599156533
1.388,1.0704805596667273,5901.550332224952
1.392,1.101128486419367,5901.792569370939
1.396,1.1195513669368973,5909.62169387067
1.4,1.1243269348289697,5903.383898898071
1.404,1.1177928663555834,5904.683260307967
1.408,1.1053827914992038,5903.914611274462
1.412,1.0936212699440415,5902.445065496826
1.416,1.087509472641441,5896.505395154636
1.42,1.0884610386041207,5899.91646559123
1.424,1.0937011205380478,5901.654461773325
1.428,1.0973231289286574,5899.406548146122
1.432,1.0925082487045223,5899.404443060502
1.436,1.0740641479821047,5893.385448035692
1.44,1.0404265386593725,5890.776809632898
1.444,0.9945082722961237,5906.468755573224
1.448,0.9432003540775594,5908.12147659144
1.452,0.8957497495286273,5896.788416062996
1.456,0.8614920145804591,5896.939639069185
1.46,0.8475270614512215,5905.140582449833
1.464,0.8569516576963911,5900.837245804964
1.468,0.8881033300001981,5901.910300421153
1.472,0.9348973007993221,5903.38267520787
1.476,0.9880106178623873,5901.554730892682
1.48,1.0366253703223243,5893.173500890406
1.484,1.0705496192946893,5897.133516143304
1.488,1.0824951458684884,5904.450830858688
1.492,1.0700608825306748,5892.36936898902
1.496,1.0367720386637571,5902.854806919452
1.5,0.9915885633341867,5906.003966902531
1.504,0.9466959443617501,5900.899620501834
1.508,0.9140396229239254,5897.529954025366
1.512,0.9017276310240707,5905.127313180076
1.516,0.9117147144367425,5897.898845149269
1.52,0.9397622487079225,5904.206675465902
1.524,0.9776542379626249,5896.518818046949
1.528,1.0166159427826928,5904.660074131026
1.532,1.0504066507621248,5905.475351707057
1.536,1.0768375263508574,5898.316231334244
1.54,1.0972939479061445,5903.395524215916
1.544,1.1147941216928512,5888.399607142346
1.548,1.1317357361356029,5909.315930190026
1.552,1.1484561632463999,5910.177672738281
1.556,1.163111347917371,5906.86709673059
1.56,1.1726300265795275,5903.349142471697
1.564,1.1740927601310602,5899.3823762500815
1.568,1.1658793978831745,5898.051251298461
1.572,1.1481463992317045,5899.714287830273
1.576,1.1225592857487985,5901.517720213881
1.58,1.091625325617898,5902.982609324022
1.584,1.0581566227032189,5898.070079864507
1.588,1.0251422814608095,5904.320775231364
1.592,0.9958598542433947,5891.792086795439
1.596,0.9738535303867281,5896.443086977758
1.6,0.9625793070217088,5909.376455771562
1.604,0.9648066042205625,5899.955222740993
1.608,0.9819828358246231,5893.9522313385
1.612,1.0136889974895027,5899.573681987018
1.616,1.0572332434607712,5906.585808577882
1.62,1.1074840835936055,5895.710458537488
1.624,1.1571653471984433,5904.089176601837
1.628,1.197848591859995,5911.208094280099
1.632,1.221677127376064,5902.4890075402045
1.636,1.2234714827315494,5902.751979108328
1.64,1.202489611961765,5899.024455285575
1.644,1.1630246848675454,5907.67806739707
1.648,1.113387118568992,5898.547990754102
1.652,1.0635135365010402,5894.495439036622
1.656,1.0220843439750227,5897.461119730633
1.66,0.9942378723949707,5907.068972437567
1.664,0.980678942971913,5902.962540982521
1.668,0.9784010782670433,5898.140596411841
1.672,0.9826091341256051,5905.383360539292
1.676,0.9889496155676528,5901.981229545767
1.68,0.9950564268152611,5889.711264838415
1.684,1.0008196380852024,5900.295717579301
1.688,1.0074942416133754,5898.390029955876
1.692,1.0163353151758858,5899.813331547816
1.696,1.0275306392099428,5910.155904125571
1.7,1.0398553763185159,5908.97926826318
1.704,1.0510362752593148,5899.670030759159
1.708,1.0585702620886814,5895.885718409364
1.712,1.0607138455785727,5898.445106871958
1.716,1.0573770406079976,5906.910488562462
1.72,1.0506141095220478,5900.604589561662
1.724,1.0443920550124124,5899.507158701087
1.728,1.04349440629941,5902.365535962622
1.732,1.0518087252785204,5904.567670183084
1.736,1.0706512605227645,5904.891148843616
1.74,1.0978736180123951,5899.611139833792
1.744,1.1281338792117581,5908.646284777871
1.748,1.1541710448001414,5903.29575804962
1.752,1.16860316166575,5901.311433392652
1.756,1.16575592796601,5905.777199364512
1.76,1.1431255528946318,5900.670387920391
1.764,1.1021669197836703,5893.705243798642
1.768,1.0481881519452312,5900.8827557789
1.772,0.9892854562962878,5898.716549964317
1.776,0.9345372371569982,5911.965441890947
1.78,0.8920161937554996,5902.9257712563785
1.784,0.867288045420372,5900.394947516745
1.788,0.862768070966463,5893.910309080336
1.792,0.8778193611646635,5901.242358603951
1.796,0.9092118493649891,5898.164740668105
1.8,0.9516728044234672,5909.3411936939465
1.804,0.9985172493193005,5900.312012850737
1.808,1.0424531432761734,5897.879097028882
1.812,1.0765514477906155,5901.87587207953
1.816,1.095205272081578,5901.332640989209
1.82,1.094837330689079,5895.900865690214
1.824,1.074200590539346,5907.321880916585
1.828,1.03429344638762,5912.416222741913
1.832,0.9780658110424536,5899.73140458031
1.836,0.9101073322632092,5895.280053732145
1.84,0.8363554068990938,5901.207240401737
1.844,0.7636862146550673,5900.6764967865065
1.848,0.6992411997368537,5900.548886400832
1.852,0.6494923950734517,5896.33239487593
1.856,0.6192085583403351,5898.873160623865
