时间(s),电压(V),幅值(高频80K)
0.0,1.7927888846330797,5914.656667310809
0.004,1.515351875959913,5909.906693578624
0.008,1.2570402525119717,5900.986383550461
0.012,1.0334848957329015,5903.504706272582
0.016,0.8554922401864707,5904.704029627879
0.02,0.7284109114508881,5901.50846030408
0.024,0.6528904225520392,5897.11652147149
0.028,0.626189736604412,5895.313086664217
0.032,0.6429397394258112,5902.224892175789
0.036,0.695063517824224,5910.394832514316
0.04,0.7717092536168173,5903.44644649923
0.044,0.8602850539370127,5898.246207584868
0.048,0.948701959502493,5899.046964966324
0.052,1.0277544423821035,5905.041923885675
0.056,1.0923387957238018,5915.454216825085
0.06,1.1410192912848962,5896.332506284467
0.064,1.1744802010802302,5904.168533335832
0.068,1.1938813112272675,5902.682865190915
0.072,1.199926310465052,5902.841557141604
0.076,1.192889786613209,5908.255336747283
0.08,1.1733479884703992,5903.671846168335
0.084,1.1431446072471123,5896.944686401876
0.088,1.1060913553730445,5903.13720428575
0.092,1.0678783795983577,5899.704805804807
0.096,1.034829750214289,5901.389349431851
0.1,1.0117562423922335,5899.013764355959
0.104,0.999911689810116,5895.73909324508
0.108,0.9962237120298582,5901.417199043821
0.112,0.9943146028635789,5901.594081028223
0.116,0.98688177179911,5906.97191879229
0.12,0.9684453394104376,5900.3125174928455
0.124,0.9374960130820719,5901.520313488789
0.128,0.8974040196406446,5905.84825858363
0.132,0.8558074136424861,5898.693833376974
0.136,0.8226198248318022,5896.918926383994
0.14,0.8072885715710808,5894.592123198119
0.144,0.8161920404457486,5894.756988455197
0.148,0.8508771888055641,5907.456397775416
0.152,0.9074437981364135,5894.628301075562
0.156,0.9771009379475382,5899.905256481587
0.16,1.0477353854251485,5905.069817284365
0.164,1.10612845626758,5891.220100368866
0.168,1.140341355553733,5907.05838636935
0.172,1.1418845245573688,5899.935309845726
0.176,1.1074598326839091,5907.5987600275175
0.18,1.0400709564622632,5900.973270422098
0.184,0.9491371248652193,5896.216483059537
0.188,0.8492216715626947,5911.122312967243
0.192,0.7573564866476068,5900.722479565837
0.196,0.6895411175185553,5896.87267691321
0.2,0.6573379161809739,5906.643300315657
0.204,0.6653584172465827,5898.97126520688
0.208,0.7101517943733582,5903.1832005773385
0.212,0.7808477166881049,5904.323744246939
0.216,0.8616793000871454,5899.448419639537
0.22,0.93597296764365,5903.382480626476
0.224,0.9905374448694224,5900.628075436317
0.228,1.0190325314331228,5902.702820851238
0.232,1.0231191179054546,5903.757787892527
0.236,1.0110011495466296,5894.085327890273
0.24,0.9940327531821908,5897.725882439945
0.244,0.9827664349607753,5903.409284150604
0.248,0.983782236428665,5894.960093095306
0.252,0.9980996566794498,5895.8140410468
0.256,1.021431228851989,5899.080954393401
0.26,1.0461366266387762,5905.836577365459
0.264,1.0642767338218337,5898.770877412677
0.268,1.0706515155982617,5899.888613022038
0.272,1.064581648134344,5895.80640409632
0.276,1.0498051135179145,5902.554428434418
0.28,1.0328492658889568,5900.210217191588
0.284,1.0208561524720254,5907.4751649757
0.288,1.0197358913240502,5892.49104825092
0.292,1.0329851123661191,5902.10521682913
0.296,1.0610628772880304,5903.770255406795
0.3,1.1011576454173333,5900.007928705314
0.304,1.1473520582830308,5893.718961874582
0.308,1.1912797735271328,5902.695999373516
0.312,1.2233166409181568,5891.938677081535
0.316,1.234280797931968,5911.906279263092
0.32,1.217506221730907,5891.058126392638
0.324,1.1709101708404202,5893.586750318504
0.328,1.0983882195702392,5908.367696146766
0.332,1.0097897695161164,5898.959770576495
0.336,0.9190857909584627,5912.357281750156
0.34,0.8411337751368925,5888.395645253697
0.344,0.7882225205946883,5901.233886086876
0.348,0.7677029839491913,5894.407274433275
0.352,0.7813247221744712,5901.04758622927
0.356,0.8259458946436607,5896.675342675683
0.36,0.89478890830444,5893.348830035755
0.364,0.9786369408551486,5893.864821897623
0.368,1.0669187710316728,5899.184109905154
0.372,1.1488900323701903,5900.72961725779
0.376,1.2149510994934933,5896.907048298539
0.38,1.257951529558255,5906.387943081606
0.384,1.2743359909393452,5899.647467272481
0.388,1.2649438758019174,5900.029169051131
0.392,1.2351028527125554,5902.27720781587
0.396,1.1936848719592672,5900.013756146157
0.4,1.1511661652316376,5891.363931277627
0.404,1.117159615409862,5901.472867296742
0.408,1.0981097125666204,5896.980418229648
0.412,1.0958317816858432,5899.42954086517
0.416,1.1073219861311892,5894.833688719433
0.42,1.1258036649322862,5890.865758812326
0.424,1.1425724469493876,5902.469403282224
0.428,1.1490831694241712,5896.712657118966
0.432,1.1387837390924507,5899.311314408238
0.436,1.1082619366903994,5912.306957295796
0.44,1.05740439210746,5897.217784124304
0.444,0.9886330471454841,5897.417515813092
0.448,0.905785567015974,5900.85427948064
0.452,0.8134727119564921,5893.52944248862
0.456,0.7174412591385704,5903.734790676461
0.46,0.6256708470449773,5902.329712110842
0.464,0.549183825452125,5906.301498943071
0.468,0.5014255463109343,5904.59880589524
0.472,0.495715335615169,5901.59504978868
0.476,0.5413345949969606,5895.980407033536
0.48,0.6397202497270708,5902.724170758818
0.484,0.7824141487115883,5896.858811210131
0.488,0.9517303483978576,5902.955937459617
0.492,1.124000097209722,5904.490416077299
0.496,1.2744143864016182,5896.736001021537
0.5,1.3821552487995694,5902.247696140182
0.504,1.4345048555429707,5905.044152763638
0.508,1.428888113582401,5898.56298806086
0.512,1.3724672109085738,5897.443411748192
0.516,1.2797354272453767,5898.211240726554
0.52,1.169009122585335,5900.075079577114
0.524,1.058663696943567,5896.886382643341
0.528,0.9637908644864334,5901.55829881681
0.532,0.8939006152811655,5889.755108158783
0.536,0.8521668929681862,5905.958817811206
0.54,0.8363282988912232,5895.215156465703
0.544,0.8407932366147715,5901.905656029194
0.548,0.8590451444807798,5894.775077703421
0.552,0.885381439892462,5898.199534413695
0.556,0.9154572317861507,5885.714048551109
0.56,0.9458213246387995,5903.375247217851
0.5640000000000001,0.9731714833921005,5901.204940859367
0.5680000000000001,0.9941172300644033,5914.289538154088
0.5720000000000001,1.00585528926269,5908.614117502047
0.5760000000000001,1.0075213614866687,5906.647932252242
0.58,1.0014048464337064,5906.779338838154
0.584,0.9931392555146705,5906.031219282683
0.588,0.9905065654073252,5910.162384294168
0.592,1.0012041684623088,5900.440319810983
0.596,1.0303906104981781,5907.328097295236
0.6,1.078889963472438,5903.65241746852
0.604,1.1426061715778144,5907.057652528741
0.608,1.2132061732618695,5897.681852257705
0.612,1.2797940249678086,5901.229763064284
0.616,1.331159872625982,5895.028673963615
0.62,1.358082856387722,5891.940919599306
0.624,1.3550996619062186,5907.815628458963
0.628,1.321265492610573,5899.773164315574
0.632,1.2597687947112295,5901.572016547688
0.636,1.176718003851697,5898.085556244576
0.64,1.0798003515831913,5895.809870617445
0.644,0.9775185180821044,5889.973741399568
0.648,0.8791713780852969,5894.590300655632
0.652,0.7949790975821116,5902.321822950571
0.656,0.7354298888336634,5893.071587293121
0.66,0.7093977793792934,5890.947950930114
0.664,0.7215061019664964,5897.035500941581
0.668,0.76989935077547,5905.901040157089
0.672,0.8455860962825854,5896.718895220426
0.676,0.9338928704837604,5898.318362443055
0.68,1.0177219640970938,5896.416544139177
0.684,1.0816014024038385,5894.990686633856
0.6880000000000001,1.1151754623875325,5899.2320421496015
0.6920000000000001,1.114993158873091,5895.967910789789
0.6960000000000001,1.0842215953013496,5895.957419796209
0.7000000000000001,1.0308184732302168,5892.083669413988
0.704,0.9651362843869167,5891.658622303487
0.708,0.8977188228199927,5895.7953447818445
0.712,0.8375597003419037,5898.510967821008
0.716,0.7907915243790989,5890.650027019996
0.72,0.7598279610621588,5891.721829984707
0.724,0.7431993722400596,5891.4274816729885
0.728,0.7363837229068254,5895.584487202023
0.732,0.7336805402561691,5896.066274423672
0.736,0.7307035296224416,5905.789406122155
0.74,0.7266069550272859,5900.710053699617
0.744,0.7249895235103853,5896.280400617071
0.748,0.7327743255048165,5907.028367389736
0.752,0.7572394904948186,5902.069635484391
0.756,0.80238389064057,5896.677490340489
0.76,0.8663160119210177,5896.014183364268
0.764,0.94093305363206,5890.703267437038
0.768,1.014059969912049,5893.26474639958
0.772,1.0731368781822443,5909.831923505336
0.776,1.1089777349499994,5901.6224497540325
0.78,1.1182075016067938,5888.711435354971
0.784,1.1036512868858253,5895.400825460705
0.788,1.0728574255716457,5896.425521092648
0.792,1.0355498455090062,5890.859863682505
0.796,1.0009008209803518,5903.736277810704
0.8,0.9753372473230012,5897.48328291279
0.804,0.961354516398721,5902.251874910099
0.808,0.9574912441823207,5893.512952024179
0.812,0.9592870211336145,5904.905157522719
0.8160000000000001,0.9608796666591973,5899.38038227176
0.8200000000000001,0.9568595237710553,5898.324925623253
0.8240000000000001,0.9439317934176689,5895.053447834172
0.8280000000000001,0.9219219840382543,5901.016623992124
0.8320000000000001,0.8938631646894898,5893.76408080583
0.836,0.8652176280984099,5908.939872482978
0.84,0.8424704605834592,5899.358363663487
0.844,0.8313915689475783,5904.31661067816
0.848,0.8353520103401232,5900.13888534075
0.852,0.854185090526801,5902.25066343067
0.856,0.8840217195748663,5898.936535992813
0.86,0.9182168817931238,5904.839682654457
0.864,0.9490631859458071,5895.7317369091725
0.868,0.9697315220995719,5901.132025030272
0.872,0.9759389391993694,5899.934619848908
0.876,0.9670529551522377,5902.82371969318
0.88,0.9464256462167621,5898.430399710222
0.884,0.920767018042056,5902.254091393703
0.888,0.8985827106755867,5897.626591574181
0.892,0.8880472813272049,5897.472908700968
0.896,0.8948552906521716,5901.549154352085
0.9,0.9205908002850047,5906.456446667644
0.904,0.9621408374584434,5899.465388301741
0.908,1.0124969978440221,5909.774294336811
0.912,1.0627489472299432,5900.042042384507
0.916,1.1044487247643353,5909.0920842646
0.92,1.1313499525052395,5906.248176667084
0.924,1.1399985228934966,5900.944589870834
0.928,1.1294318484465053,5900.889019334145
0.932,1.1007570973151597,5898.427301435439
0.936,1.057233782926256,5906.122403825082
0.94,1.0047717783713952,5898.471182995795
0.944,0.9520604852617912,5894.177916598782
0.948,0.9094999737365481,5892.94213934314
0.952,0.8867898848653809,5895.139311203787
0.956,0.8899456510040893,5891.971133968193
0.96,0.9190484054598512,5889.342483714474
0.964,0.9678488009074689,5905.198987558703
0.968,1.0255013538599886,5896.230848500261
0.972,1.079703530218568,5904.281443336216
0.976,1.1199653896385315,5900.164561843587
0.98,1.1398830800091515,5891.821386291445
0.984,1.1378963226460692,5900.94455311125
0.988,1.1166578713109419,5898.500365351389
0.992,1.0815372003077637,5902.9761948198775
0.996,1.0388650463095397,5893.571910319264
1.0,0.9944154375335619,5901.222034419635
1.004,0.9524531398794487,5901.195751703061
1.008,0.9154847324901877,5902.871696030953
1.012,0.8845964580862972,5910.794268398347
1.016,0.8600090568168485,5906.522832528733
1.02,0.8414796832167318,5903.980493068188
1.024,0.8284993179973144,5898.233979361112
1.028,0.8204969602966928,5900.938428740285
1.032,0.8171456481105777,5891.29315406697
1.036,0.8185988250573099,5894.401647600845
1.04,0.8254693152417819,5910.455911917201
1.044,0.8385649172643604,5892.281394554561
1.048,0.8585009653702278,5903.161791829846
1.052,0.885251207456328,5898.361678813754
1.056,0.9176724135098868,5898.060994319053
1.06,0.9531426746263407,5900.879896441847
1.064,0.9875726663600668,5902.175974958688
1.068,1.0160233824275389,5890.557201216215
1.072,1.0339154431950923,5907.819993260875
1.076,1.0384374339969622,5900.222264685075
1.08,1.029509224302909,5897.173378582217
1.084,1.0097456376366354,5895.0153145759805
1.088,0.9833163096869694,5897.967984231304
1.092,0.954216112162434,5894.478836977994
1.096,0.924876718179804,5897.616011182246
1.1,0.8959246867636336,5901.989445707461
1.104,0.8672192402653266,5896.0152111690495
1.108,0.83949400412362,5899.205105778084
1.112,0.8155491660107533,5906.978260692988
1.116,0.8002609167803654,5896.131761538429
1.12,0.799412040632047,5898.651750822951
1.124,0.8179315780128728,5902.566498734713
1.128,0.8582165611820927,5904.638726191494
1.132,0.918954447342805,5896.639388421982
1.136,0.994678002725353,5900.131350159828
1.14,1.076249263923644,5900.294203555352
1.144,1.1522954650624169,5898.642256461993
1.148,1.2112308338269993,5905.559647824455
1.152,1.2432537848760123,5903.435756603832
1.156,1.2418896042741618,5901.740911217038
1.16,1.2050497080120128,5896.309973549875
1.164,1.135787409983127,5916.955193428883
1.168,1.0427799807968812,5897.713104564153
1.172,0.940199619729923,5897.017799193824
1.176,0.8463690021188758,5905.112105198207
1.18,0.7807789903767133,5894.333096911396
1.184,0.7597601286960023,5899.682228165088
1.188,0.7919611075132602,5902.600279744243
1.192,0.8752060659630747,5900.811862903387
1.196,0.9959860263413828,5893.659828660249
1.2,1.131973360213836,5898.358019168358
1.204,1.2569326779831165,5899.292905698374
1.208,1.3466231607076649,5895.3146407912
1.212,1.3840626279940094,5907.598354224607
1.216,1.3629061574353305,5904.372178876986
1.22,1.2883451099861545,5903.553034960762
1.224,1.1754651490083996,5897.380889669533
1.228,1.0453991528318984,5900.253363411816
1.232,0.9201122385250429,5896.490075913312
1.236,0.8172300752108151,5893.544668631683
1.24,0.746531641585897,5900.713769404912
1.244,0.709211593015904,5899.204956562432
1.248,0.6999110058789012,5901.079045011199
1.252,0.7103733119634774,5907.779722689383
1.256,0.7330210783819185,5901.10869991468
1.26,0.7630613846474721,5899.364275238111
1.264,0.7986602227059658,5901.324674613051
1.268,0.8396682372683979,5904.9018379742765
1.272,0.8858448234722285,5903.729768476968
1.276,0.9354577100201649,5891.10659439455
1.28,0.9847793131770148,5897.332296057599
1.284,1.0286038998670184,5897.736030283965
1.288,1.0615698128912854,5900.120614555189
1.292,1.0798149640200643,5900.118827770292
1.296,1.0823484782151693,5897.952429920489
1.3,1.071531092531957,5907.587868982948
1.304,1.0523354911585463,5902.506726861207
1.308,1.0306577538992554,5897.614795257305
1.312,1.011510493712672,5905.433051872314
1.316,0.9978678099405698,5907.43624629909
1.32,0.9903022018944457,5901.593739323101
1.324,0.9871124677211861,5892.845934860135
1.328,0.9848007945128746,5897.728209435685
1.332,0.9790712544913912,5896.053645245905
1.336,0.9664238388892789,5895.712775778266
1.34,0.9459266054852105,5912.645841757055
1.344,0.9203421115795657,5901.106059276707
1.348,0.8958961193804548,5909.59194049084
1.352,0.8806263868074998,5899.010409309297
1.356,0.8820036297997009,5897.180281065298
1.36,0.9048157599020366,5903.834943447434
1.364,0.9499602929745112,5899.792687486909
1.368,1.0141653588880102,5904.661775412187
1.372,1.0902994008460978,5905.587827844219
1.376,1.168035623654546,5899.548186948124
1.38,1.2349680691608576,5899.888430723033
1.384,1.2784278642892697,5898.883853146913
1.388,1.2879980241596378,5899.907688740133
1.392,1.2581988055244915,5902.236995371544
1.396,1.1903933256451518,5890.051293498049
1.4,1.0930147224671263,5909.40407572719
1.404,0.9798230199043902,5901.468084552012
1.408,0.8667471070080435,5899.036923550502
1.412,0.7684379549693061,5893.835651819956
1.416,0.6956153976162268,5898.797307023508
1.42,0.6537331014205102,5901.061812793648
1.424,0.6428718879532132,5898.903391775346
1.428,0.6585085295603105,5900.940639823094
1.432,0.6928851273726891,5892.846969881737
1.436,0.7367995085611826,5901.956223423267
1.44,0.7815501315791168,5894.9732746476175
1.444,0.8206119707715885,5898.693910464543
1.448,0.850607474681933,5898.690371153905
1.452,0.8713433517465032,5900.476294154841
1.456,0.885009025650977,5905.867779967625
1.46,0.8948853234189746,5902.939006790693
1.464,0.9039457971394751,5900.588868958984
1.468,0.9136267089040861,5904.631516641548
1.472,0.9230377639371153,5901.819110675368
1.476,0.9289962127115922,5904.360297244092
1.48,0.9271810660419787,5897.620843893702
1.484,0.9142447007454104,5899.635881635013
1.488,0.8901107107339624,5899.435828477691
1.492,0.8593184709672342,5897.444211668168
1.496,0.8304538268104367,5897.027992671755
1.5,0.8135137262447651,5905.073220662763
1.504,0.8161416162973405,5899.138173749083
1.508,0.8403591790201584,5895.678385927919
1.512,0.8812590677650267,5902.38862841785
1.516,0.9282500017491135,5902.077228436823
1.52,0.9683449440831192,5885.770016711419
1.524,0.9901561015217415,5902.238245582626
1.528,0.987087966484189,5891.9357282580895
1.532,0.9587601065205081,5898.692609155643
1.536,0.9105610969007257,5896.223521126776
1.54,0.8519199101412428,5904.252573345908
1.544,0.7941326071124309,5897.212697283843
1.548,0.7484344786045845,5899.057388866872
1.552,0.724605559507082,5885.294945252646
1.556,0.7299435620290365,5893.508712673696
1.56,0.7681985330214326,5899.487024215044
1.564,0.838240068515523,5895.407239397951
1.568,0.9327605594946915,5897.118367045236
1.572,1.0378735578952325,5896.210040351758
1.576,1.13460654899519,5905.270604705287
1.58,1.2026847903129139,5908.600986494203
1.584,1.2258108741715454,5896.480230087048
1.588,1.1966406794254363,5903.707867811699
1.592,1.1195643350486622,5906.45357785012
1.596,1.0101721508723858,5894.427705673801
1.6,0.8914166931633452,5897.385750675341
1.604,0.7876184557288299,5897.359176055119
1.608,0.718281281211007,5892.893654567875
1.612,0.6937407038995075,5909.92389545139
1.616,0.7138398719780108,5907.940604568701
1.62,0.7695825963530354,5897.267490810255
1.624,0.8467068610840002,5889.099531109567
1.628,0.9297288389835319,5902.3171539627965
1.632,1.0052595497668426,5899.749007286236
1.636,1.0640603600833998,5891.580155074692
1.64,1.1019279453904778,5909.113341550751
1.644,1.1196889663706378,5897.197225231966
1.648,1.1223780732096273,5900.58385652581
1.652,1.11750534596099,5900.949625228427
1.656,1.1125756371736333,5901.750112221583
1.66,1.1126155169112397,5898.579301456971
1.664,1.1188058858670307,5891.17377745421
1.668,1.1288856631987787,5900.271854045955
1.672,1.1389873328878248,5903.854649805457
1.676,1.1457906714519865,5899.168045830367
1.68,1.1479243429741177,5892.9027439995
1.684,1.1462343183341783,5898.440156955929
1.688,1.1431967465876713,5901.327263640011
1.692,1.1419333556631774,5903.302199409183
1.696,1.14512788862687,5899.813914373156
1.7,1.1539916587676178,5903.187289649184
1.704,1.1674280131840085,5901.554279621786
1.708,1.1816632145491544,5901.307716098161
1.712,1.1906869717330366,5889.662127613716
1.716,1.187613484344172,5904.548655395509
1.72,1.1665494136071168,5896.9508328469055
1.724,1.1242539110538294,5904.884275125502
1.728,1.0611427643778637,5906.702087481707
1.732,0.9816475643346744,5901.4865532215545
1.736,0.8940687527781127,5902.750988367014
1.74,0.8098817228024574,5897.217286384342
1.744,0.7423172453641699,5898.405408541421
1.748,0.7041157698490756,5906.31212218154
1.752,0.7046384682239609,5904.957349781697
1.756,0.7469700307809558,5905.370186218931
1.76,0.8260569413226191,5902.912810031117
1.764,0.9288437346517242,5912.700576924337
1.768,1.0366292890063598,5905.252489701264
1.772,1.128975239786354,5893.866549076885
1.776,1.1881026032109125,5902.648934092241
1.78,1.2028124820286494,5899.531301385172
1.784,1.171140663677023,5889.748141790272
1.788,1.101093057829446,5904.594723540295
1.792,1.0091132318327563,5900.092430710021
1.796,0.9164429628548447,5897.488314395627
1.8,0.8440715821543112,5897.107370245494
1.804,0.8073958876049231,5900.517057078486
1.808,0.81198681831802,5902.036745713425
1.812,0.8518465605253531,5894.317947652001
1.816,0.9109948290419871,5899.68476206631
1.82,0.9681340808637164,5901.113248241685
1.824,1.0029753125084613,5900.685791216468
1.828,1.0021897132276116,5899.628701097376
1.832,0.9631770810445793,5901.022227421606
1.836,0.8946918736956951,5901.555002584107
1.84,0.8143509013907307,5900.557754185758
1.844,0.7438161858247141,5902.900726376829
1.848,0.7029603768324518,5907.518549204122
1.852,0.7045688822128547,5901.949928155024
1.856,0.7509807828851258,5907.602972785867
1.86,0.8335043771819963,5897.3696390841305
