时间(s),电压(V),幅值(高频80K)
0.0,0.3331514552283496,5886.565290348391
0.004,0.5546361048633496,5900.479452904849
0.008,0.7593489486824146,5904.8618536231
0.012,0.9339849997737002,5897.277772892939
0.016,1.0697276749641913,5899.850368418713
0.02,1.1626633430281244,5896.395480065656
0.024,1.2132844507508778,5908.667951790681
0.028,1.225825283551928,5900.186766763621
0.032,1.2077063875610268,5897.464080761694
0.036,1.1688407966837655,5904.661640481186
0.04,1.1205173761192344,5898.975918848538
0.044,1.0738145425711754,5900.424049121583
0.048,1.0376614516675025,5901.325144029384
0.052,1.0168543157740308,5897.875629139478
0.056,1.0106528410641826,5897.287299315092
0.06,1.012721084494246,5902.36252553438
0.064,1.012840940319794,5893.596657934745
0.068,1.0001158749082408,5898.133506123551
0.072,0.9666818927707594,5907.892440033842
0.076,0.9106426816760882,5899.6844752015095
0.08,0.8372089284966201,5903.400675626557
0.084,0.7576893617636133,5897.960694049066
0.088,0.6866939573072269,5905.552953301189
0.092,0.6383749107723521,5907.357289787663
0.096,0.6227293399322348,5894.84655276198
0.1,0.6430107578230368,5899.765505350572
0.104,0.695040888813809,5899.965816114214
0.108,0.7685743145975837,5893.6183518583575
0.112,0.850129718719376,5896.845480448835
0.116,0.9263121171082825,5902.905763113005
0.12,0.9867132357127747,5897.307016933351
0.124,1.025769084832044,5890.031003207006
0.128,1.0432767569753518,5899.555741659438
0.132,1.0435633256651713,5896.268989019694
0.136,1.0335724571116804,5901.699974325585
0.14,1.020423789289671,5892.792673475346
0.144,1.0092334430283074,5894.734077437257
0.148,1.0019505898601206,5901.466261716214
0.152,0.9975582292614851,5901.878662680205
0.156,0.993402463176287,5908.431537737062
0.16,0.9869922384388982,5896.776089379825
0.164,0.9775289543166072,5899.463463627202
0.168,0.9666229018446556,5892.4350091860615
0.172,0.9579853476766803,5894.090140346443
0.176,0.9562352770915177,5904.927213847107
0.18,0.9652306306467401,5899.746910767578
0.184,0.9864616500063982,5903.051682870909
0.188,1.018035926541977,5899.62778871857
0.192,1.054647569191474,5897.585089978067
0.196,1.0886317794379836,5892.464060256843
0.2,1.1118235781992682,5899.954151380478
0.204,1.117640412152985,5894.758407197032
0.208,1.102722792285668,5897.064808473621
0.212,1.0676150298727844,5900.847502565981
0.216,1.0163382886717898,5903.367284684558
0.22,0.9551828716641467,5901.638196392542
0.224,0.8913060871766567,5909.888202926316
0.228,0.8315696012550399,5901.91586392354
0.232,0.7817415949046492,5901.781927870577
0.236,0.746070029301915,5896.690209376523
0.24,0.7272409809656345,5902.409652048101
0.244,0.7266107933117971,5898.3028362618215
0.248,0.744374770254602,5911.665778242736
0.252,0.7793206397736685,5900.639030945551
0.256,0.828200195941818,5907.555789040286
0.26,0.8852944970506923,5887.804404061773
0.264,0.942895908057334,5901.177756602802
0.268,0.9929076211628274,5908.828918476207
0.272,1.0289725471573403,5901.75510692351
0.276,1.0481660083186655,5890.782405269737
0.28,1.0515587146388132,5900.375011298206
0.284,1.0435555412757558,5899.2599126681625
0.288,1.0303799292869524,5898.532145387122
0.292,1.0182111741112876,5899.886777710699
0.296,1.0114378649775528,5903.463644738496
0.3,1.0114540136808519,5901.556138955243
0.304,1.01635835203723,5906.860636528982
0.308,1.021687439210622,5899.835123938816
0.312,1.0219619491248517,5895.214739192206
0.316,1.012563912725505,5902.885756902212
0.32,0.9914172214286883,5901.427865110293
0.324,0.9600245913484382,5906.472635889298
0.328,0.9235068637005734,5895.313595525756
0.332,0.8894681704407049,5895.61834925217
0.336,0.8658782322847344,5897.551041386967
0.34,0.8585999474524784,5911.445998033552
0.344,0.8694405126826862,5903.642861275276
0.348,0.895503551691723,5902.512014523371
0.352,0.9301419510410124,5899.220295521633
0.356,0.9651087633599881,5885.911630495404
0.36,0.9929674388415254,5897.841665170237
0.364,1.008834920013586,5892.264980091558
0.368,1.0110490106709609,5899.069049332513
0.372,1.000918920599596,5899.145763175784
0.376,0.9819511870021426,5895.984387971708
0.38,0.95886037365399,5900.8829298449455
0.384,0.9365334394086666,5892.612915759114
0.388,0.91909201799436,5888.918025500857
0.392,0.9092618042111141,5898.121450518522
0.396,0.9082586391636395,5898.516245786421
0.4,0.9161929224029338,5907.091290806028
0.404,0.9326502438009704,5903.362453819366
0.408,0.956955358500518,5893.533089591128
0.412,0.9878904599098605,5898.331249910536
0.416,1.0231161513173679,5908.676357792876
0.42,1.0588287319153016,5901.372630965209
0.424,1.090074566639062,5906.385061133397
0.428,1.1117514001091395,5894.236206573137
0.432,1.1199596129215301,5899.587753866227
0.436,1.1132395179913726,5899.811477143001
0.44,1.0933154418688824,5902.527271715882
0.444,1.0651082660333338,5907.525124656514
0.448,1.0358921964511907,5895.978938118132
0.452,1.0136238726587545,5896.468507548017
0.456,1.0047607982836493,5898.827425877013
0.46,1.0122130162720986,5905.92516682261
0.464,1.0341795112641796,5901.673343533295
0.468,1.0643960057215744,5895.82394012758
0.472,1.0938507149170245,5902.580715852177
0.476,1.1134619902187588,5903.063848686398
0.48,1.1167818741885525,5906.1064823721
0.484,1.1017339188504518,5894.069491113433
0.488,1.0707726641087552,5908.737432219842
0.492,1.0294914775101434,5905.766901735314
0.496,0.9843200515205809,5899.902144425157
0.5,0.9402946487217821,5897.197443540056
0.504,0.8998269054796848,5890.563756848056
0.508,0.8629407699825361,5896.640155202264
0.512,0.8287389856851892,5912.83196804877
0.516,0.7972468906577636,5902.055510447657
0.52,0.7706525455963559,5896.939246746787
0.524,0.7533701537610943,5897.215469224155
0.528,0.7509187592918918,5906.610458499245
0.532,0.7679756915551098,5895.931973158363
0.536,0.806174476531587,5903.433918986736
0.54,0.8624179535678083,5887.362899745412
0.544,0.9285106988370585,5901.665686188348
0.548,0.9925200326271414,5895.154840398608
0.552,1.0415710632380786,5898.566856515915
0.556,1.0652060528437506,5916.210447536607
0.56,1.0582589825841038,5895.381277651239
0.5640000000000001,1.0223678029647867,5899.516515556357
0.5680000000000001,0.9656591242086279,5895.668623701635
0.5720000000000001,0.9006914408266935,5908.583852082805
0.5760000000000001,0.8412631256105587,5893.364213758909
0.58,0.7990329017087568,5907.382953772243
0.584,0.7810019748792788,5896.674417463391
0.588,0.7886591338342807,5900.526396746482
0.592,0.8188994510382455,5896.447687023795
0.596,0.8659722136715661,5904.049383095175
0.6,0.923303743373626,5902.865760010212
0.604,0.984393116527435,5901.405572982819
0.608,1.0427870520600808,5892.566161908699
0.612,1.0918150953989265,5906.369849401623
0.616,1.124871937410007,5902.199642866247
0.62,1.1365284607354098,5899.875964894479
0.624,1.1240501458262309,5898.583980325351
0.628,1.0885582445845654,5898.916431390039
0.632,1.035278303872731,5896.858962137375
0.636,0.9727775518206667,5898.061360886967
0.64,0.9113849821699815,5903.443922681202
0.644,0.8610639816645785,5903.805042359021
0.648,0.8291478729614433,5906.094875572708
0.652,0.8186247881999907,5900.391281127487
0.656,0.8277040565195924,5898.573068316166
0.66,0.8509340532836107,5916.9647408440205
0.664,0.8814248899260821,5895.743942637933
0.668,0.9132567217782803,5900.900572543627
0.672,0.943168455322576,5904.986396781258
0.676,0.9709960362531397,5897.518615143189
0.68,0.9988113432742691,5897.927029431709
0.684,1.029154292403696,5894.786686266819
0.6880000000000001,1.0630711619942694,5901.699484519944
0.6920000000000001,1.098744809114659,5890.043651410006
0.6960000000000001,1.1312610509242125,5909.109805047324
0.7000000000000001,1.1536224738402843,5893.616982377154
0.704,1.1586927638144267,5898.57891563036
0.708,1.1414567752237526,5899.402902237891
0.712,1.100893030182893,5904.554525796393
0.716,1.0409017735129915,5900.733937971375
0.72,0.970016126603021,5895.330914252282
0.724,0.8999181787744106,5903.996538712369
0.728,0.8430545169482132,5911.614979484584
0.732,0.8099039698850219,5897.150675884831
0.736,0.8066179126549442,5904.448772590863
0.74,0.8336740985253225,5898.357568389871
0.744,0.8858182257910361,5903.07747419015
0.748,0.9531458552052872,5901.50231182444
0.752,1.0229807640817972,5904.595883474229
0.756,1.0822302097701806,5901.278469472442
0.76,1.1199102986859533,5906.5029615961885
0.764,1.1293891078107479,5893.77445922578
0.768,1.109732897105246,5900.757388847975
0.772,1.0656516708274757,5909.910625084786
0.776,1.005992452058008,5901.765311159682
0.78,0.9412881430869421,5890.459792375151
0.784,0.8812431251639272,5907.889401845639
0.788,0.8330043253880289,5904.382551737203
0.792,0.80060843559341,5899.837445987127
0.796,0.7854210786653252,5909.02806402136
0.8,0.7870679661760764,5906.339227972929
0.804,0.8043748110460743,5901.840200389034
0.808,0.8360074723709049,5895.174986744711
0.812,0.8806740279599422,5897.93047722058
0.8160000000000001,0.9368709974988174,5898.916799158283
0.8200000000000001,1.0022826293919227,5908.587385543424
0.8240000000000001,1.073128652855594,5894.673506721008
0.8280000000000001,1.1438996170355624,5905.159331544934
0.8320000000000001,1.2078197688365238,5899.822688236186
0.836,1.2580193559717798,5899.415411428936
0.84,1.2890146828472024,5900.271561596191
0.844,1.2979295061994869,5907.346934780089
0.848,1.285029519677978,5902.7301150262365
0.852,1.2534859990771958,5904.420928770843
0.856,1.208604043838148,5895.726488634408
0.86,1.15685625509132,5895.365947157648
0.864,1.104962664694585,5903.15311415701
0.868,1.0590903457926568,5897.26789886147
0.872,1.0241437832744837,5897.470398297353
0.876,1.0031401197178411,5903.917537912505
0.88,0.9967530248509419,5896.424477139248
0.884,1.0031528529492255,5910.154299743326
0.888,1.018256370683424,5895.943907129097
0.892,1.0364727312777724,5894.550025329872
0.896,1.0519479697815204,5885.049044157343
0.9,1.0601016456507844,5906.688859357572
0.904,1.0589885294546024,5907.203377825734
0.908,1.0498929067248457,5898.223582723721
0.912,1.0367403814545286,5894.275530888172
0.916,1.0244083994694777,5899.224724915397
0.92,1.016616139904527,5897.606937695741
0.924,1.0143946371735026,5896.7279242229015
0.928,1.0158877841177893,5906.184118703058
0.932,1.0175115932849652,5902.299152353404
0.936,1.0157906484609154,5902.111233140706
0.94,1.0089534473615267,5903.667633219357
0.944,0.9976336874495344,5901.87725092448
0.948,0.984503174749784,5906.761016234982
0.952,0.9730984512132841,5899.9860331631735
0.956,0.9663836175891255,5897.052626899108
0.96,0.9656455015911048,5897.617938547559
0.964,0.9701244396811249,5908.27956675772
0.968,0.9774465886683571,5905.836358230135
0.972,0.9845945084891204,5904.989610830438
0.976,0.9889491035537983,5903.7721867688215
0.98,0.9889623940338862,5897.433998077123
0.984,0.9842787936363907,5909.181861369764
0.988,0.9753981065588233,5909.658770795203
0.992,0.9630714725423195,5894.406307194579
0.996,0.9476348094472793,5895.952666920716
1.0,0.9285670898988831,5898.680544695171
1.004,0.9046047012339539,5903.077334172645
1.008,0.8745488820809787,5907.449748997152
1.012,0.8385292591669334,5910.3500412957565
1.016,0.7991892903244668,5906.330760246978
1.02,0.7621811544643184,5900.157083286783
1.024,0.7354885505270339,5906.262825174093
1.028,0.7274681590716151,5885.604832066702
1.032,0.7441165551891515,5899.545436252848
1.036,0.7866251448789623,5904.443889795675
1.04,0.8503243223203256,5904.980681903369
1.044,0.9255544966577075,5901.018894028283
1.048,1.000205063791887,5896.267500527899
1.052,1.0630282301678158,5896.51741760587
1.056,1.1065749649234218,5897.889252255359
1.06,1.1288174254359205,5897.428196393609
1.064,1.133104833686121,5900.168234996087
1.068,1.1266750277611364,5901.709135461005
1.072,1.1182440092755925,5897.648992548171
1.076,1.1153114118261525,5890.119011139249
1.08,1.1218924472687037,5890.992722609365
1.084,1.1373183175698707,5903.824121020467
1.088,1.156427659735138,5899.501895815928
1.092,1.1710452950297183,5909.485396405398
1.096,1.1723274316703782,5891.744827152715
1.1,1.1533813088729434,5904.824345994884
1.104,1.111500931852578,5899.516773167712
1.108,1.0494393106386708,5905.920849731166
1.112,0.975381162349654,5898.288851194006
1.116,0.9015814088912922,5898.38751690885
1.12,0.8418837307856999,5900.489699523521
1.124,0.8085509428725455,5901.635309693211
1.128,0.8091031010491154,5901.850094643464
1.132,0.8441058387609738,5891.900843596151
1.136,0.9068051383311001,5900.06205248099
1.14,0.9849318728106078,5900.929675818416
1.144,1.064084837911092,5899.620861237059
1.148,1.1314316155858974,5895.29942516557
1.152,1.178489277721165,5899.762998460395
1.156,1.2023282178454093,5904.940521378337
1.16,1.2052043620070285,5895.856611089051
1.164,1.1930525331679258,5899.427760316844
1.168,1.1734258206177905,5898.523098215422
1.172,1.1534250602694012,5894.224027818834
1.176,1.1380600267701597,5898.234214509361
1.18,1.1293946757953355,5900.682914222264
1.184,1.1266646300808945,5899.670683198775
1.188,1.127216221503329,5899.474525414997
1.192,1.1277552110065296,5896.7203318298
1.196,1.1253311953955392,5907.963944858184
1.2,1.1177914084090996,5895.098218634713
1.204,1.1037996200753437,5888.199894042566
1.208,1.0826556620803611,5896.241113260799
1.212,1.0541414794072623,5907.189138862253
1.216,1.0185787639048929,5900.880079792497
1.22,0.9771395227833984,5900.004836295116
1.224,0.9322341492988542,5902.359042951607
1.228,0.8877126060854573,5890.015679579682
1.232,0.8486756902157974,5895.190211747455
1.236,0.8207839479379243,5904.83596904944
1.24,0.8091022762864839,5900.186765809017
1.244,0.816754482062729,5899.248540932604
1.248,0.8438069535811727,5900.030149890834
1.252,0.8867448569495308,5897.502946487542
1.256,0.9387618483480188,5898.215355462962
1.26,0.990926878205592,5885.971657278374
1.264,1.0340588803311512,5895.994866164605
1.268,1.0608558573232072,5906.798546580885
1.272,1.0676357284770555,5898.008364704337
1.276,1.055070574703586,5905.342024234294
1.28,1.0275847604297754,5902.223059857608
1.284,0.9916079821575046,5897.019196564789
1.288,0.9533931347345173,5900.595017238682
1.292,0.9172719876420997,5899.782233106361
1.296,0.8849193891258317,5902.012508579747
1.3,0.8556932397631901,5898.625634582296
1.304,0.8277332556703402,5896.489842874287
1.308,0.7993500244911896,5904.351862861399
1.312,0.7702628496573282,5898.261358922478
1.316,0.7423345120293263,5896.242519212279
1.32,0.7195359197129707,5904.860996798587
1.324,0.7070321254553239,5909.332214870261
1.328,0.7096096563294652,5894.725306154155
1.332,0.7300229996255434,5901.3253285653645
1.336,0.7679193475009344,5902.453272850188
1.34,0.8197210084545571,5897.230430662072
1.344,0.8794382144709415,5899.172167124969
1.348,0.9400710307425254,5903.644474148242
1.352,0.9950944859495159,5899.044064835133
1.356,1.0395646371478637,5905.692303520793
1.36,1.070651753934005,5900.093085551652
1.364,1.0877022006718522,5908.435987495964
1.368,1.0920171726637629,5905.585029076468
1.372,1.0864355170445952,5891.68864882585
1.376,1.0747223222973685,5897.267911732188
1.38,1.060795137202445,5901.729073101805
1.384,1.0479095714927988,5900.983974258649
1.388,1.037998147496035,5901.090077188586
1.392,1.031358382017236,5905.606511092745
1.396,1.0267959298663134,5898.765012416585
1.4,1.0221861871455027,5895.513512098967
1.404,1.015283814486422,5906.196948960141
1.408,1.00451965742291,5897.304010308581
1.412,0.9895159451344708,5894.482536051212
1.416,0.9711548594865803,5906.288651039714
1.42,0.9512198959685572,5893.636463964871
1.424,0.9318039250847867,5908.900462385172
1.428,0.9147651076305725,5901.3733568396
1.432,0.9014668465665041,5896.67093529966
1.436,0.8928486153536308,5903.54116773189
1.44,0.8896409872170097,5901.452069767013
1.444,0.8924659562193746,5900.390686035062
1.448,0.901723846848179,5906.276660707848
1.452,0.9173671665791927,5900.226419520609
1.456,0.9387069773486323,5898.336649046539
1.46,0.9643379335100726,5897.548435996324
1.464,0.9922249164369468,5905.347265667227
1.468,1.0199585272367682,5897.328695698326
1.472,1.0451147959582467,5897.772338686343
1.476,1.0655847368176843,5903.844873287302
1.48,1.079749168714922,5902.411762257671
1.484,1.0864868296464654,5896.726427467647
1.488,1.0851254310602392,5905.6224774143
1.492,1.075435704579221,5905.2385727202245
1.496,1.0576452042703905,5906.52668593903
1.5,1.032412425272434,5906.1218169866925
1.504,1.0008358794777998,5912.868899214588
1.508,0.9646514521613601,5898.205975544666
1.512,0.9265735845537774,5903.895521347438
1.516,0.8904358922187494,5907.311216258173
1.52,0.8607664080149069,5903.937277755203
1.524,0.8417812008707496,5898.007016306871
1.528,0.836213217841087,5898.754124381621
1.532,0.8445593318942155,5902.557566824383
1.536,0.8650747960441042,5899.415728169106
1.54,0.8943557847787615,5894.44015228192
1.544,0.9280474634237628,5892.2657530115375
1.548,0.9613553002125945,5905.147052529547
1.552,0.989458081890992,5896.150202746758
1.556,1.0081846610050649,5895.370004445374
1.56,1.0151002552245008,5898.953912043276
1.564,1.010611779856515,5907.244294795968
1.568,0.9983921176826768,5898.013560366816
1.572,0.9846686910210553,5905.58717167755
1.576,0.9764907484319314,5893.374398541384
1.58,0.9795460540570101,5897.560077646761
1.584,0.9962586176945035,5895.99233553548
1.588,1.0248191735311818,5902.859459501095
1.592,1.0595237387354186,5903.08865832615
1.596,1.0923579511084576,5895.83523368137
1.6,1.115322787791165,5904.496787793052
1.604,1.1227487789314101,5905.122511286988
1.608,1.1128651499635966,5904.125440402165
1.612,1.0881352914026674,5898.962513460824
1.616,1.0542670400977698,5895.526462938704
1.62,1.0182421516913414,5898.091585831739
1.624,0.9860307558103493,5890.032079687011
1.628,0.9607640019376598,5896.46865239831
1.632,0.9420060246991083,5899.440011981691
1.636,0.9263976072089916,5895.710747275862
1.64,0.9094253759101106,5905.237637017228
1.644,0.8876012030900794,5903.797004576064
1.648,0.8601372725480159,5898.622860384807
1.652,0.8294243296941085,5904.117301147203
1.656,0.8002064254101907,5902.499127015065
1.66,0.777943753338529,5899.715408087878
1.664,0.7670946205528548,5893.305719820842
1.668,0.7698937074749385,5904.815661319353
1.672,0.7858821393952272,5901.860493712599
1.676,0.8121364040063369,5907.453416092411
1.68,0.8439377530827215,5893.073825679528
1.684,0.8756124564906503,5899.101557135385
1.688,0.9014379327632477,5903.260065727272
1.692,0.9166271498321704,5899.09649637901
1.696,0.9183039287868962,5897.003065516362
1.7,0.9062065074359767,5898.167511233605
1.704,0.8828505650276965,5904.004445462098
1.708,0.853053308733963,5900.682538391679
1.712,0.8228952144477674,5904.02856306372
1.716,0.7983080033445512,5896.282393120841
1.72,0.7836053365648714,5884.939050971559
1.724,0.7804224687079615,5902.903776861693
1.728,0.7875251119642865,5902.778733811118
1.732,0.8016405595715808,5896.281277897999
1.736,0.8189919750258937,5904.519927487078
1.74,0.8368792068242397,5894.556463173529
1.744,0.8546141584215586,5898.668636216025
1.748,0.873383280043039,5901.532675088391
1.752,0.8951049072672979,5902.711823219644
1.756,0.920889856383737,5903.95030351855
1.76,0.9499660414414699,5903.686240554542
1.764,0.9796437758137433,5902.354699533767
1.768,1.0062352146821296,5905.9099852043655
1.772,1.0263219053740134,5897.838616117456
1.776,1.037766789332934,5905.059456773191
1.78,1.0402287520605786,5896.5465645835
1.784,1.035226500082154,5898.829198449905
1.788,1.0258365062146362,5898.142575264118
1.792,1.016046334492454,5896.664706468451
1.796,1.0098145487170684,5896.951479927266
1.8,1.010051135817023,5905.78520109593
1.804,1.01786275959392,5901.062650136289
1.808,1.032300757508811,5902.53628299566
1.812,1.0505788736881077,5899.089151245061
1.816,1.0685707412573358,5903.618070826275
1.82,1.0814224033706281,5906.652223316938
1.824,1.0841912092109582,5891.3474254328
1.828,1.0725270790169168,5906.7551499484525
1.832,1.0435284579316324,5898.917039565602
1.836,0.9968286610013929,5894.364620987508
1.84,0.9355951065764363,5899.700472383423
1.844,0.8667585268455031,5895.057287737474
1.848,0.7998802436279433,5902.752021800918
1.852,0.7446936617012836,5908.441659378011
1.856,0.7081359499313541,5904.423439824762
1.86,0.692125344560373,5899.354785035039
