时间(s),电压(V),幅值(高频80K)
0.0,0.9984479056774302,5904.80914275131
0.004,1.1143173769483163,5906.815618612863
0.008,1.2201864637544686,5903.579617411227
0.012,1.3072993103961512,5900.448481975771
0.016,1.370609445862431,5900.862902073521
0.02,1.4083449985655494,5894.555875817335
0.024,1.4205032943903013,5897.877313689298
0.028,1.407457902255705,5902.472502500471
0.032,1.369532043213435,5902.439420838656
0.036,1.307773976868773,5904.110452497485
0.04,1.2255915288313128,5890.721001738206
0.044,1.1304401601782756,5902.263873677367
0.048,1.0344772317962903,5892.051127368678
0.052,0.9532934131658944,5898.003488461086
0.056,0.9027270227167016,5896.325381008486
0.06,0.8948776258494662,5898.702911448245
0.064,0.9348663931132432,5895.621958650644
0.068,1.0193600558120608,5907.286788866377
0.072,1.1369765755061207,5901.512892096772
0.076,1.2701497987947576,5894.124925001237
0.08,1.3980198952269924,5896.112797041247
0.084,1.5000611566107869,5909.174278102617
0.088,1.5600544989243583,5898.189519008237
0.092,1.5696577858306195,5891.168044288389
0.096,1.5305572870409034,5899.392551926675
0.1,1.4542946120540021,5902.637667897055
0.104,1.3593914420965185,5896.349501911056
0.108,1.2662234596019155,5908.750553256315
0.112,1.1910614401346464,5895.588397960595
0.116,1.1414061549382624,5899.56880458059
0.12,1.1145799089251747,5898.719088597188
0.124,1.1002710382685448,5899.689333742584
0.128,1.0859757537762629,5897.928064609469
0.132,1.0630569849216425,5900.567415525975
0.136,1.0310081738155508,5897.963978576659
0.14,0.9983425524178043,5893.432439082432
0.144,0.9798486491793323,5893.175749993314
0.148,0.991247044520789,5895.224771611018
0.152,1.0431442703585667,5901.478473103495
0.156,1.1364195628838214,5904.228089771089
0.16,1.260754441951352,5897.566981456583
0.164,1.3968985655608643,5894.766139488183
0.168,1.5217351624069038,5905.18151485555
0.172,1.6140922755097864,5900.486783804104
0.176,1.6592942900326295,5893.797718233981
0.18,1.651473058825538,5913.47723563561
0.184,1.593745442564724,5899.260448057135
0.188,1.4968753220704738,5903.108493641653
0.192,1.3770223317627723,5899.889624084339
0.196,1.2529908661244193,5890.731384004916
0.2,1.1433197600793117,5896.972990556815
0.204,1.0636571092492426,5903.172078014098
0.208,1.0248821958193362,5908.679572774966
0.212,1.0321216372365682,5896.905161274916
0.216,1.0844351983186495,5908.204290706012
0.22,1.1749606711968563,5899.821111113172
0.224,1.2916012708510707,5898.931768448635
0.228,1.4184556319810357,5898.683343354121
0.232,1.5379825364348176,5892.421902198174
0.236,1.6336089845621111,5907.742053512233
0.24,1.692384448233837,5898.883523916737
0.244,1.7072968640840258,5904.811972413874
0.248,1.6787519898293624,5911.763132311858
0.252,1.6145510996928043,5895.8115688510015
0.256,1.5279589392166308,5892.603357580945
0.26,1.4342710025604015,5886.658115981163
0.264,1.347024531845108,5892.085411617439
0.268,1.2750221468214042,5901.614043192488
0.272,1.2208561613154751,5904.54542018888
0.276,1.1812042635132287,5896.97800275478
0.28,1.1489044937796375,5897.683136519761
0.284,1.1164098403435405,5907.066058222708
0.288,1.0795871743819008,5893.02509290899
0.292,1.0403458906576082,5904.794811390389
0.296,1.0067948459155267,5899.430753031037
0.3,0.9906227471393635,5896.430551997873
0.304,1.0026361012705949,5895.420236143841
0.308,1.0481821795404918,5897.9479560239615
0.312,1.1242008401047419,5894.621382664487
0.316,1.2189927613116023,5906.625080324156
0.32,1.314810094301547,5886.801981844887
0.324,1.3924172701000064,5898.177366337586
0.328,1.4361137280444765,5894.561837104075
0.332,1.4376048133729291,5897.893287427315
0.336,1.3976247584463075,5894.781564253782
0.34,1.3251039128134192,5901.977005886406
0.344,1.234498114513621,5906.189723011169
0.348,1.1423105128274929,5897.62362458865
0.352,1.0637513763389943,5901.805613727855
0.356,1.0101241899734414,5891.586721581928
0.36,0.987211223665948,5911.841117399603
0.364,0.9947716636250891,5884.332790109925
0.368,1.0271681106756636,5902.499945083389
0.372,1.0749963424303586,5895.368377546008
0.376,1.1273780377329823,5896.085507937233
0.38,1.1743516486371706,5898.969135094207
0.384,1.2087212076956222,5904.248640549295
0.388,1.2269118691106542,5905.25094789543
0.392,1.2287647639168302,5901.752027107617
0.396,1.2165960197639873,5910.936867611621
0.4,1.194090247418837,5900.326345413102
0.404,1.1655818346344484,5902.469576665481
0.408,1.1359201906916612,5904.234687130812
0.412,1.110581729792108,5895.073924156352
0.416,1.0954492981586685,5900.651610965804
0.42,1.095981949969642,5894.337005639741
0.424,1.1159656884122522,5892.740755653874
0.428,1.1561990238409205,5904.0664408474095
0.432,1.213443750220076,5900.225661720186
0.436,1.2800905874825783,5899.760949414834
0.44,1.3450802888814601,5898.717431796037
0.444,1.3962723554712004,5896.356825914995
0.448,1.4237429226574074,5899.02357046613
0.452,1.4229306531410255,5903.237530201283
0.456,1.3964713197366425,5900.921243839802
0.46,1.3539484145330083,5895.144394245787
0.464,1.3094638955639666,5890.477787562002
0.468,1.2776757767679996,5897.877940936905
0.472,1.2695216997225287,5891.641779200316
0.476,1.289033029698249,5908.5052799911255
0.48,1.3322763887282525,5897.726803386435
0.484,1.3886404084042827,5900.680248518781
0.488,1.4438972913299692,5901.219292235624
0.492,1.4841175875287345,5895.387876108394
0.496,1.4994851770117819,5903.387494777024
0.5,1.487053716697888,5904.409308623021
0.504,1.4515816794726526,5907.962609545829
0.508,1.4040672786578137,5897.765648261309
0.512,1.3584317894574078,5895.620451758561
0.516,1.3275029086556318,5901.590884733285
0.52,1.3196163471769713,5893.116016915535
0.524,1.3368031472303084,5896.021173842005
0.528,1.3749261993704547,5895.157241249478
0.532,1.4254779868473357,5900.797786410511
0.536,1.478240577904986,5900.387633672634
0.54,1.5238523553204657,5902.064414347355
0.544,1.5555700906990373,5904.093814389215
0.548,1.5699570280064612,5895.166838478574
0.552,1.566618624532533,5902.228497198833
0.556,1.5473499205847328,5912.570640479545
0.56,1.5151600309070274,5907.302515978843
0.5640000000000001,1.4735761837630883,5895.643802202256
0.5680000000000001,1.4263838414054963,5894.344606091949
0.5720000000000001,1.3776333695751792,5903.092170432178
0.5760000000000001,1.3315228173601654,5905.685966174626
0.58,1.2918050897238393,5908.662333437297
0.584,1.2607181610274096,5902.080474394263
0.588,1.237942417199754,5900.851012282278
0.592,1.2203520404265318,5901.861616611276
0.596,1.2030134076161514,5897.3276209609785
0.6,1.1811434385753796,5904.904354364845
0.604,1.1521537759682992,5904.032818724857
0.608,1.116906816483268,5894.388500093612
0.612,1.0797816394556985,5896.501051477014
0.616,1.0476658229604912,5905.703124188896
0.62,1.0282902242052432,5902.92415766904
0.624,1.0283845547307942,5907.808982338263
0.628,1.0520009099177878,5901.663718771613
0.632,1.099181937121649,5903.534338303502
0.636,1.1651759706576923,5901.746776806571
0.64,1.2406177931619151,5900.384808503475
0.644,1.3131125459130717,5902.315079133866
0.648,1.3701522401076915,5900.700212658555
0.652,1.4025059427138358,5908.782416571316
0.656,1.4068025599595002,5903.774369838111
0.66,1.3863250772554705,5897.309169584806
0.664,1.3498269932345903,5901.709350167327
0.668,1.3089569404577814,5899.971137284535
0.672,1.2752426362010978,5898.391381571618
0.676,1.2574779275530599,5891.338171360665
0.68,1.2600255014990789,5890.350281072346
0.684,1.2822745717114847,5888.313851518917
0.6880000000000001,1.319309965618834,5911.356275425421
0.6920000000000001,1.3635788190440612,5895.273619439648
0.6960000000000001,1.4069577282143808,5895.495246289825
0.7000000000000001,1.4424519523004105,5895.049607197644
0.704,1.4650874379422896,5899.081917696962
0.708,1.4721558486766526,5908.374315674396
0.712,1.463285998582535,5908.287011427171
0.716,1.4405782261873814,5905.974397009085
0.72,1.4085287598378997,5902.078931491211
0.724,1.373229493954508,5905.239697086448
0.728,1.3407045194355924,5901.3781128372
0.732,1.315011239750086,5889.333967955582
0.736,1.2971342293837915,5888.205792251236
0.74,1.2852384428695103,5907.049239664487
0.744,1.2759760583456703,5893.067082102739
0.748,1.2660834901593812,5902.224026119537
0.752,1.253629859210566,5895.03383077066
0.756,1.2385803034532015,5900.152921563731
0.76,1.2225859723539003,5894.249682034684
0.764,1.2081513844986553,5898.365856300741
0.768,1.197559242533109,5900.3523604445945
0.772,1.1920725023058254,5905.096875436287
0.776,1.1918648398120604,5896.830852593997
0.78,1.196728834957174,5904.634454537077
0.784,1.2070244669380852,5905.928917129577
0.788,1.2240536876593648,5895.930468336467
0.792,1.2494040596147387,5899.743131450114
0.796,1.2835611059495544,5897.0747327881445
0.8,1.3246931899476522,5904.958470690687
0.804,1.3685007332163168,5896.214912944198
0.808,1.4093214850523934,5908.445688017899
0.812,1.4418007908024675,5892.359954371636
0.8160000000000001,1.4621266946904106,5905.967295387984
0.8200000000000001,1.4683394928102305,5904.7439333046095
0.8240000000000001,1.460005931926834,5903.778955842371
0.8280000000000001,1.4378584527510334,5902.148532608682
0.8320000000000001,1.4036758359007464,5893.952585243081
0.836,1.360222949691889,5905.18724039324
0.84,1.3109939830402257,5895.608011122755
0.844,1.2597777588866228,5903.130047848862
0.848,1.2102625305680244,5901.447015991279
0.852,1.1658137986106865,5896.166858030807
0.856,1.129380108195926,5900.702037017323
0.86,1.1034155997236819,5901.245343212434
0.864,1.0897439148455041,5891.27973008139
0.868,1.0893707597282771,5908.70886225075
0.872,1.1023658782504158,5903.118451823492
0.876,1.1279788582015202,5898.611232689035
0.88,1.1649933293008792,5895.696386271345
0.884,1.2120214968376395,5899.966251428864
0.888,1.2673146617060602,5902.39621911982
0.892,1.32799186229043,5902.67156383404
0.896,1.389189926948248,5898.41737348889
0.9,1.443956154229351,5897.241787065916
0.904,1.4843842490384933,5900.606826285903
0.908,1.503736472219948,5902.776955121904
0.912,1.4986392746379233,5895.796650929669
0.916,1.4703329621229935,5898.785471879576
0.92,1.4244485353643788,5899.803614259849
0.924,1.369521889360056,5904.446644634711
0.928,1.3149898829824482,5898.588767486699
0.932,1.2694968584272297,5892.9640558516085
0.936,1.2399789416094669,5898.401647515286
0.94,1.2314349246010317,5898.823300566868
0.944,1.24689872698266,5910.106702455268
0.948,1.28709127907261,5905.276620016831
0.952,1.3495519338510824,5901.903527596575
0.956,1.4276581772833938,5893.305449530314
0.96,1.5104737011260074,5890.926093472622
0.964,1.584224898767121,5901.712854435399
0.968,1.6352864811900292,5898.375882129777
0.972,1.6535458258539262,5906.457524492384
0.976,1.634747317756663,5886.974574069402
0.98,1.5810834991415936,5895.80855290479
0.984,1.5003015895800456,5904.325901713484
0.988,1.4041235677303052,5901.499616061817
0.992,1.30655328650277,5908.762872303157
0.996,1.2220788565647764,5898.446581585855
1.0,1.163505821238745,5894.22178685429
1.004,1.13942911512678,5910.81373097225
1.008,1.151883906999329,5903.900630981661
1.012,1.1950659498644483,5895.218544445552
1.016,1.2559480960773688,5904.579966919965
1.02,1.3171090952446192,5902.1486213087765
1.024,1.36127921898145,5903.099422982376
1.028,1.3763508032689495,5905.894876879868
1.032,1.3592427333980461,5900.797249751185
1.036,1.3171814054904978,5887.817340078223
1.04,1.2657150818260052,5898.443658261961
1.044,1.223995627880048,5894.959297940003
1.048,1.208971340336588,5906.621848149325
1.052,1.2304514197605962,5899.638676267464
1.056,1.2884508870184268,5897.096282161706
1.06,1.3733130013681054,5894.6830827354
1.064,1.4682721436280672,5903.854537619805
1.068,1.5535185334197177,5898.174857584799
1.072,1.610603772728401,5895.197765544492
1.076,1.626267128413537,5897.138220846786
1.08,1.595156894061731,5898.158454716309
1.084,1.5210314475964748,5897.693172557329
1.088,1.4159661764168316,5899.030723682236
1.092,1.2974285684197622,5902.213156271907
1.096,1.18395527085035,5902.092302009796
1.1,1.0909538829429708,5905.069094516231
1.104,1.0281279228133824,5901.864696746704
1.108,0.9991287247044138,5898.275429830094
1.112,1.0029288649183474,5894.441561307822
1.116,1.035778894148915,5893.4410569763695
1.12,1.0926515027772246,5902.880930459858
1.124,1.167627621471055,5898.460014742837
1.128,1.2534801561886144,5906.091230574061
1.132,1.341366358246376,5904.130204587554
1.136,1.421534213166633,5902.4781046853095
1.14,1.4851580743292765,5903.010830024689
1.144,1.526468820922514,5900.15364102484
1.148,1.5440417962162898,5894.4614571200245
1.152,1.540600194419377,5902.099185575879
1.156,1.5214759082267275,5902.42171034583
1.16,1.4924394427505563,5899.477666223908
1.164,1.457795851580703,5903.519599085438
1.168,1.4194444401366677,5895.120672470819
1.172,1.3771061808375065,5905.751272647767
1.176,1.329411840777295,5900.968759372663
1.18,1.2752975044771742,5895.250516769526
1.184,1.2151656886599476,5900.41957702723
1.188,1.151398973613598,5897.691848301063
1.192,1.08808608171296,5905.798034192674
1.196,1.0302346217228802,5899.436738848815
1.2,0.9829689890958001,5900.127778182944
1.204,0.9509736089898584,5903.614154548654
1.208,0.9380328300559684,5900.530782541777
1.212,0.9464026798903671,5905.108418206603
1.216,0.9759534851960218,5891.788095411837
1.22,1.023342589376577,5906.291766026812
1.224,1.0817854808827116,5901.557827879851
1.228,1.1420379333602662,5904.27162151472
1.232,1.1946921775612573,5897.86461695665
1.236,1.2330135511680556,5905.57427684602
1.24,1.2549766065768948,5902.473157226088
1.244,1.263447859156766,5902.540359528828
1.248,1.2644511099237443,5904.584951747877
1.252,1.2643687262697825,5899.957875875212
1.256,1.2672131455356102,5896.086089648356
1.26,1.2729259729184437,5906.774569060047
1.264,1.2773621507187403,5884.05655976458
1.268,1.2740893390562527,5907.097617821449
1.272,1.2573230674538745,5902.071077141842
1.276,1.2247102321517525,5895.316930058258
1.28,1.1787553945182838,5894.725245336341
1.284,1.1263434488652189,5908.197802671584
1.288,1.076586625894439,5906.939869059588
1.292,1.0378113015380344,5895.2548978594095
1.296,1.0148054956286183,5912.46983174088
1.3,1.0073964921117362,5905.106781895961
1.304,1.0109613087945075,5899.164229163527
1.308,1.0186828677610926,5900.433522438752
1.312,1.024581883082543,5902.956535253376
1.316,1.0260180098148286,5905.003852520486
1.32,1.0246267603560342,5902.06028112879
1.324,1.0253281301597834,5910.808003166399
1.328,1.0338634465752612,5899.8627139757145
1.332,1.053991536698532,5907.483301052122
1.336,1.0855068431415917,5903.858729253402
1.34,1.1235549363256938,5901.132063078236
1.344,1.1590479955835542,5906.539096476705
1.348,1.179949657743143,5897.1482265005725
1.352,1.173491697685228,5897.93962540496
1.356,1.1293347539368872,5901.003061593181
1.36,1.0432016697996915,5902.223291320001
1.364,0.9199992199350082,5904.994259174501
1.368,0.7752026975009102,5897.269933954127
1.372,0.6334508775218475,5908.062383104525
1.376,0.5240214111283358,5895.649640904047
1.38,0.47398247044062974,5906.249355016373
1.384,0.500815245990678,5900.753038927769
1.388,0.6067298476970848,5906.663859167849
1.392,0.7766438151666495,5903.94731669935
1.396,0.9808525836214208,5907.334784552967
1.4,1.181936289740703,5898.249414144242
1.404,1.3439731315279735,5901.30308071812
1.408,1.441353818879173,5897.596708885154
1.412,1.4646382274549334,5902.006962721634
1.416,1.4217526339207998,5901.036565854817
1.42,1.3342067901687564,5903.572490091134
1.424,1.229686215875537,5900.376702778778
1.428,1.133706787907271,5900.963049320548
1.432,1.0632452184220944,5899.65573596536
1.436,1.0242087210150483,5897.557973217212
1.44,1.0128585399996373,5902.188234131547
1.444,1.0197535154607344,5897.560486950682
1.448,1.034146676292828,5903.4429688689215
1.452,1.047200337546147,5907.434573584216
1.456,1.0534092513867142,5901.483792278306
1.46,1.0505510167418362,5909.70484417637
1.464,1.038902889731793,5910.365425435326
1.468,1.0203560218923438,5910.4093909186
1.472,0.9976790052566751,5900.977347256841
1.476,0.9738868091830786,5903.918778279078
1.48,0.9516656750548976,5904.914463572412
1.484,0.932964273016061,5901.605989717852
1.488,0.9188845545664647,5905.168756159894
1.492,0.9098135605372635,5898.54287977707
1.496,0.9055803286916579,5900.485251418183
1.5,0.9055163835775667,5911.67497673061
1.504,0.9085084529411688,5896.1833312090685
1.508,0.9131612230006005,5901.860622182615
1.512,0.9180531308352777,5906.279988140617
1.516,0.9220771864577071,5906.362218585283
1.52,0.9249659802477735,5903.595471292919
1.524,0.9278826109650864,5891.738646990836
1.528,0.9335527495173046,5900.459173166709
1.532,0.9455506825106996,5901.486086932135
1.536,0.9670652795243281,5911.931755104356
1.54,0.9998541204001669,5904.794906336715
1.544,1.043726978387262,5897.652054978281
1.548,1.0964182715078912,5903.0327007871165
1.552,1.1536908397288872,5900.345062477939
1.556,1.2097450433331536,5910.287424617379
1.56,1.2580340813548683,5895.222396315131
1.564,1.2923558122977192,5898.705312000639
1.568,1.3078821610897238,5898.133666113837
1.572,1.3018209110267587,5913.527642497737
1.576,1.2736074944189317,5906.565316013289
1.58,1.224664584483792,5900.081166779246
1.584,1.1578123602506036,5919.298939234897
1.588,1.0765139322390387,5902.065527910851
1.592,0.9842711551410473,5901.569721654685
1.596,0.884466646962289,5899.119715702349
1.6,0.7807671111070597,5908.108434152312
1.604,0.6779488674717846,5905.322038819098
1.608,0.5827041683605249,5902.716141741875
1.612,0.5038003702233418,5901.671320250332
1.616,0.451163511207898,5914.167902598629
1.62,0.4339676357239845,5907.074181458811
1.624,0.45824783584705714,5907.796569137137
1.628,0.5247470484922153,5902.879340354195
1.632,0.6277104817862335,5903.913373830225
1.636,0.7551312110335188,5904.594585499354
1.64,0.890519803278465,5903.148526479238
1.644,1.0158034608011646,5908.769122769041
1.648,1.1146684626945413,5903.824379684022
1.652,1.1755981320507598,5907.715134505681
1.656,1.1939143427214423,5902.015435723879
1.66,1.17224073079187,5905.415131230885
1.664,1.1191728829514245,5900.249428000877
1.668,1.0466679092398836,5901.539127089544
1.672,0.96726340794255,5902.496513018201
1.676,0.8921060385388384,5898.281746117295
1.68,0.8300532148679786,5903.431309566412
1.684,0.7874775659283453,5905.053967572946
1.688,0.7682243868756065,5905.201016278766
1.692,0.7733454471040832,5898.021471467872
1.696,0.800568197543708,5905.676558600315
1.7,0.8438419976543573,5901.203950774986
1.704,0.8935576099826515,5905.69648595371
1.708,0.9379342014546332,5908.355172455789
1.712,0.9655644867197611,5906.6914639533625
1.716,0.9684482690190023,5911.34979079806
1.72,0.9444043330313373,5896.832477302239
1.724,0.8978462071986478,5898.957185532964
1.728,0.8385851379880599,5907.616458014746
1.732,0.7791895673187879,5898.235921049997
1.736,0.7319058693653471,5907.085958328563
1.74,0.7060265954453727,5905.717944898811
1.744,0.7061696702774655,5910.941546357319
1.748,0.7315792360899368,5909.903201883476
1.752,0.776432132175639,5906.877780026111
1.756,0.8311440110966085,5911.611786638864
1.76,0.8845610192486307,5901.769474929902
1.764,0.9265730616150103,5917.51951547968
1.768,0.9503678863473268,5907.517483736561
1.772,0.9536211579813739,5908.970126937413
1.776,0.9383500041215744,5900.746584032167
1.78,0.909652865456917,5904.197987346929
1.784,0.873922733167244,5913.999478527036
1.788,0.837222695938454,5918.620344951742
1.792,0.8042741219886272,5914.838378468421
1.796,0.7781115805183095,5898.647906283547
1.8,0.7601989178157688,5896.7542512000855
1.804,0.7507301941619802,5912.158571058061
1.808,0.7488762001002969,5907.996283591702
1.812,0.7528900714849907,5904.893521499
1.816,0.7601927756397969,5912.072018242073
1.82,0.7676377650429445,5904.803065042807
1.824,0.7720576883360429,5905.1268938476005
1.828,0.771029801028233,5908.326628135795
1.832,0.7636039235577994,5906.75233247414
1.836,0.750579564298194,5899.446075126882
1.84,0.7340437520122096,5898.253047594159
1.844,0.7163887310594449,5911.848266652477
1.848,0.6994629009015678,5904.98051950124
1.852,0.6843161941480337,5913.719764798393
1.856,0.6713998102961507,5906.123884679399
1.86,0.6608292795661606,5902.284183730228
