时间(s),电压(V),幅值(高频80K)
0.0,0.8892905524285277,5895.00858125738
0.004,0.9728416628254821,5909.70212924125
0.008,1.0491068987629928,5901.742493739973
0.012,1.1118160744102599,5894.321641147763
0.016,1.1562194036522027,5901.510083273503
0.02,1.17932435892032,5903.077576551277
0.024,1.1801808486366212,5899.472277538762
0.028,1.1603205424877248,5904.587467193621
0.032,1.1240677141031639,5905.743601579872
0.036,1.0782756408024,5906.548880663428
0.04,1.0313229997272082,5901.614592820559
0.044,0.9916530704984716,5893.810552737681
0.048,0.9663063052415873,5901.900456521096
0.052,0.9597581284884612,5892.113604619359
0.056,0.9732668116075797,5896.751162781568
0.06,1.0049175728623154,5904.507125780411
0.064,1.0503325484244275,5900.1747065545815
0.068,1.103616020610811,5904.765417507055
0.072,1.1579793805370873,5899.614202025606
0.076,1.2059066866020578,5902.974352145682
0.08,1.2393502562915657,5909.084616682053
0.084,1.250682166978318,5905.055736771756
0.088,1.234651607381591,5898.730219927645
0.092,1.1906978575275486,5901.927803701215
0.096,1.1243789491205904,5899.068354144385
0.1,1.0469340897039534,5899.86311050116
0.104,0.9729097141287694,5893.597735230976
0.108,0.916631745772996,5892.983748658552
0.112,0.8886122388688443,5895.396593571245
0.116,0.8928628977451946,5896.120723314524
0.12,0.9258704629580478,5907.281187445728
0.124,0.9776407860443631,5896.846671435781
0.128,1.034573604328434,5896.673893327199
0.132,1.083222026711079,5907.49143624047
0.136,1.1137080789662706,5904.600814887987
0.14,1.121844304009068,5891.418784457629
0.144,1.1095480811453153,5898.678515056573
0.148,1.0836499712070333,5904.244692969642
0.152,1.053635186393537,5900.465835334387
0.156,1.02913734525884,5901.111898744764
0.16,1.0179297859097363,5895.960326522913
0.164,1.0247322696340382,5900.10212768393
0.168,1.0507143484523023,5890.971773975627
0.172,1.0934520337452813,5899.169791883166
0.176,1.1472329922428877,5902.788536302005
0.18,1.2037504930385836,5899.8890258906185
0.184,1.2532342150253353,5896.663117542234
0.188,1.2859691913902096,5902.63799611136
0.192,1.2940423817470876,5899.994554633876
0.196,1.2730525813163265,5908.221734817355
0.2,1.2233933104274048,5913.301405215946
0.204,1.150650475564079,5895.540302977449
0.208,1.0648275344700244,5895.875691033507
0.212,0.9785283870626038,5901.667944773689
0.216,0.9046333938947698,5910.111939628241
0.22,0.8541143900867851,5893.677702974484
0.224,0.8344017192437309,5901.875193264888
0.228,0.8483731580453273,5903.893661073081
0.232,0.8938903028622865,5903.068019606161
0.236,0.9639345585256082,5912.009743059828
0.24,1.0475538386734367,5892.553975975528
0.244,1.1317372351714732,5909.592087961343
0.248,1.203948619046425,5896.620645340166
0.252,1.2546208274071147,5895.370337012061
0.256,1.2787814578339871,5899.222305188666
0.26,1.276308761284117,5899.730234873631
0.264,1.2509290548289118,5908.455300741868
0.268,1.2085837402798791,5893.961968604886
0.272,1.1559209757315885,5898.853336246998
0.276,1.099397014912394,5893.963191718259
0.28,1.045035831260366,5904.756676832772
0.284,0.99853538029832,5907.691903935465
0.288,0.9652210094700939,5905.203571375999
0.292,0.9493912560732052,5894.132635250679
0.296,0.9530010500911271,5889.806338962454
0.3,0.974289112932488,5899.8208400435415
0.304,1.0073637440750032,5897.860428770932
0.308,1.0434332698211295,5902.154730407767
0.312,1.0734648738518884,5905.622728652015
0.316,1.0912440699664676,5899.276846795472
0.32,1.09557941178923,5901.119580270697
0.324,1.0907468110908691,5903.100270165972
0.328,1.0849331171843752,5907.915266931903
0.332,1.0871716759625607,5893.981069141198
0.336,1.1038385030871307,5896.7518233329465
0.34,1.135971208260014,5899.509512593322
0.344,1.1783722870325106,5910.39775835812
0.348,1.2208021626693315,5901.719429477636
0.352,1.2508713099158209,5907.535380478369
0.356,1.2577370187750971,5898.033694679381
0.36,1.235476239934758,5902.942392893968
0.364,1.1851080902184663,5904.277694297189
0.368,1.114686192490379,5896.478305891715
0.372,1.037484557293628,5903.414720629998
0.376,0.9688202480273732,5901.767089797967
0.38,0.9223841152284487,5902.206800412757
0.384,0.907043516639669,5901.107921243929
0.388,0.9248968965489593,5899.847113030431
0.392,0.9709785803782618,5892.895606067935
0.396,1.0346194394629997,5892.560749862583
0.4,1.1021388366023785,5896.718299381737
0.404,1.1602072310359122,5898.062520300796
0.408,1.1989290932210548,5896.277856649177
0.412,1.2137076123641486,5900.900929682588
0.416,1.2054103824433047,5893.812026608814
0.42,1.179049094323668,5891.722017959448
0.424,1.1417108370432225,5905.853998225013
0.428,1.1005507859282395,5902.637827936308
0.432,1.061339252853433,5895.237709684397
0.436,1.0277026630231285,5895.11263410185
0.44,1.0010390725747573,5898.370551252265
0.444,0.9810052199454186,5898.8606737776845
0.448,0.9663302225883716,5897.293727761845
0.452,0.955627245912909,5897.8726132594575
0.456,0.9479572679174717,5905.587211824054
0.46,0.9430481251071811,5893.942148627444
0.464,0.9411740909450427,5896.324130649374
0.468,0.9427802509966672,5896.240047338134
0.472,0.948030022289762,5898.864090654761
0.476,0.9564958442925288,5903.371393723413
0.48,0.9671235873517285,5895.591897056497
0.484,0.9784458957468589,5901.627843159235
0.488,0.988937893990131,5904.463823313377
0.492,0.997415567960803,5898.725167939669
0.496,1.003392438561979,5897.0491338334
0.5,1.007310114709138,5902.861807952787
0.504,1.0105467949605322,5904.353275713622
0.508,1.0150899935813562,5904.274813562901
0.512,1.022831327878302,5902.021330545421
0.516,1.0346763185140808,5890.73542408782
0.52,1.0499074253122007,5911.681450034094
0.524,1.0662392325408843,5896.788934624891
0.528,1.0806813096815164,5906.63454539823
0.532,1.090827846636997,5905.209356985489
0.536,1.0958350731684028,5899.486650270815
0.54,1.0964561451638088,5897.19680382643
0.544,1.094106037834959,5899.696537897786
0.548,1.089598289882339,5892.851775468326
0.552,1.0824150448181789,5902.303685090943
0.556,1.0710098170910893,5895.792995937068
0.56,1.0539820302774074,5897.976850074098
0.5640000000000001,1.0314274881204777,5893.744233148094
0.5680000000000001,1.0056678089255797,5892.815333045465
0.5720000000000001,0.9809244459129949,5902.461031344603
0.5760000000000001,0.9620793454399234,5898.747680230888
0.58,0.9531074170151747,5903.8968689232925
0.584,0.9558596862524689,5898.042410907957
0.588,0.9696435590553153,5897.427013995117
0.592,0.9916615324209813,5894.569510063348
0.596,1.0180059128928869,5902.199477750155
0.6,1.0447155825969423,5895.438234639927
0.604,1.0684931393095316,5900.852758558285
0.608,1.0870005216498193,5892.526874616526
0.612,1.0989512879900318,5895.94149522757
0.616,1.1042531898910586,5890.497372996451
0.62,1.104205905718673,5903.538099869628
0.624,1.1014781544624415,5900.401657231688
0.628,1.0995702277173953,5903.973936808693
0.632,1.1017515786571435,5891.8640639709065
0.636,1.1098251566019934,5900.619320489714
0.64,1.1232531974166398,5904.793080702023
0.644,1.1390683248765572,5896.387092563925
0.648,1.152660645930678,5893.263765936448
0.652,1.1591722647344984,5895.691560926909
0.656,1.1550323984156634,5898.881599358047
0.66,1.1391842579834421,5894.602347222743
0.664,1.1136948631262817,5901.159879745419
0.668,1.083581197359462,5902.381386881005
0.672,1.055822824401772,5902.924601348842
0.676,1.0377240631377684,5903.743388647623
0.68,1.0350053170662865,5897.815625285994
0.684,1.050113983403676,5895.260186229332
0.6880000000000001,1.0812128457850914,5895.004124378319
0.6920000000000001,1.1221997353783955,5898.998366436346
0.6960000000000001,1.1639207134119138,5903.529673422225
0.7000000000000001,1.1963887323090698,5904.836498398718
0.704,1.2114121024784563,5899.249300539793
0.708,1.2048129477834701,5893.0839661779255
0.712,1.1775243140343596,5898.533123218594
0.716,1.1352438364534456,5895.737650381124
0.72,1.086807973416587,5894.559426578964
0.724,1.0418545044504806,5898.713459285507
0.728,1.0085248679800145,5898.645146220923
0.732,0.9918410982339215,5893.44395813246
0.736,0.9930650943577783,5898.740904678276
0.74,1.0100258972638656,5905.205182313644
0.744,1.038182483612826,5899.199826947334
0.748,1.072028090679649,5895.316473840159
0.752,1.1063428325136402,5900.657786892932
0.756,1.1368686894117574,5896.133606041294
0.76,1.1602572177346488,5900.442756210467
0.764,1.1735304339582573,5910.136146825804
0.768,1.1736206188354996,5910.215153701297
0.772,1.1575824867530997,5896.19587179515
0.776,1.1236553515950152,5899.966670884196
0.78,1.0727023145685133,5899.492128239088
0.784,1.0091726022612764,5904.722624263464
0.788,0.9409394463316111,5900.411446631455
0.792,0.8779623172950839,5904.3190143062975
0.796,0.8302250802167489,5898.488561969054
0.8,0.8055492235731584,5897.226972546798
0.804,0.8078251145155089,5897.6859699458
0.808,0.836146068793571,5902.588026530221
0.812,0.8851756159511261,5897.810601667265
0.8160000000000001,0.9466768293399126,5904.596773080447
0.8200000000000001,1.0116518144781161,5900.859589909144
0.8240000000000001,1.0723228375946183,5898.706233048428
0.8280000000000001,1.1233620949209198,5897.88893433826
0.8320000000000001,1.1621808031747545,5897.361362170636
0.836,1.1884714161796663,5902.208511125929
0.84,1.203385782392629,5896.126999325624
0.844,1.2086832058028292,5895.486495273629
0.848,1.2060159892222435,5893.945682163119
0.852,1.196431002560274,5899.6030751147255
0.856,1.180206520935111,5900.798198929204
0.86,1.1571620279813195,5899.062127607572
0.864,1.1274198487607532,5901.074674975453
0.868,1.0923176317654733,5903.473583032323
0.872,1.0550048493435982,5892.912983602636
0.876,1.0203738052875702,5896.918725294121
0.88,0.994299080192558,5907.693540131635
0.884,0.9824351288253118,5896.511767023063
0.888,0.9888755091367045,5897.740320219783
0.892,1.0149002860990977,5897.924354791447
0.896,1.0580501190619627,5903.508494257723
0.9,1.111890436210145,5892.733574456494
0.904,1.1668292912736848,5895.100726746344
0.908,1.2120343244169824,5893.097422877248
0.912,1.2379950209154382,5899.240935745904
0.916,1.2389484086098712,5899.876105682337
0.92,1.2144124967633514,5891.233581941623
0.924,1.1693492610390648,5900.59257414203
0.928,1.1128850940830834,5898.876222698181
0.932,1.0559985091680109,5906.550836186044
0.936,1.0089364231154874,5900.293872660833
0.94,0.9790835871476986,5900.230944028624
0.944,0.9696856683749306,5908.368176443506
0.948,0.9795645424743679,5898.122152141094
0.952,1.0038322657865268,5906.755497806062
0.956,1.0354054735990579,5901.51219463896
0.96,1.0668610784774364,5905.305226704208
0.964,1.0921155384936305,5900.225054339554
0.968,1.1075890983578454,5899.644816184117
0.972,1.1126772227262731,5901.460440580073
0.976,1.1094005780401648,5899.875228778463
0.98,1.1012471858125013,5906.599697335755
0.984,1.0915473499248805,5898.408733713486
0.988,1.082010945981056,5895.184845751251
0.992,1.072058260319526,5903.890152460983
0.996,1.0592541274359144,5900.474495067799
1.0,1.0406627580317365,5903.119091529899
1.004,1.0145239681807658,5898.533019171399
1.008,0.9815289079981588,5899.442921338499
1.012,0.9451949844700542,5897.991258499671
1.016,0.9112495971507226,5904.252170493787
1.02,0.8862855135324945,5897.250749246039
1.024,0.8760961174278372,5895.141742261072
1.028,0.884071164918556,5896.738952497777
1.032,0.9099922340796985,5906.149044164528
1.036,0.94960510124027,5904.413322224156
1.04,0.9953210610567065,5907.86813626085
1.044,1.038081986400434,5904.136843905573
1.048,1.0698810778053487,5901.316670112403
1.052,1.086050476800192,5897.228223475912
1.056,1.0864933053323056,5902.938123655986
1.06,1.0754838433058962,5904.470104840435
1.064,1.0602209008467285,5900.04642078307
1.068,1.048717642648871,5903.25144681663
1.072,1.0476823667467872,5905.78017890255
1.076,1.0608752537666164,5908.107161767191
1.08,1.0882289156931497,5903.309716441782
1.084,1.1258556011505514,5894.276093302854
1.088,1.1668743248863716,5897.535409611841
1.092,1.2028135198249927,5903.887072620099
1.096,1.2252723283800757,5906.750643799262
1.1,1.2275605229404605,5906.293465707416
1.104,1.2060959182305102,5901.721164133708
1.108,1.1613275901215403,5906.2235242596125
1.112,1.0978972629545964,5894.240893139542
1.116,1.0238386356690456,5896.507086196925
1.12,0.9489808843299469,5899.418274133815
1.124,0.8831435560619355,5898.635016685188
1.128,0.8347391347283255,5906.705387958086
1.132,0.8099534736082259,5894.720813817266
1.136,0.812227297406225,5901.281740236057
1.14,0.8417540600050567,5899.190466389156
1.144,0.895037101959439,5898.108916117752
1.148,0.9648241506644402,5897.680629505796
1.152,1.0407500205809357,5899.241691200803
1.156,1.1108018691727544,5898.004684688163
1.16,1.163407414460207,5899.209868340836
1.164,1.1896840548944823,5904.185153744649
1.168,1.1852884163916466,5905.336028552444
1.172,1.151398593636947,5905.956589504822
1.176,1.0945928515575611,5909.654941392448
1.18,1.025667447583941,5893.821405954103
1.184,0.9576706515848935,5899.311887676188
1.188,0.9035708534040483,5894.800699308178
1.192,0.8740237370331984,5898.321414586889
1.196,0.8756528321022546,5902.98970467159
1.2,0.9100993761974647,5905.1851268886185
1.204,0.973889471215097,5902.618358718151
1.208,1.0590181528759048,5908.611660308444
1.212,1.1540990902054444,5898.246469733907
1.216,1.245923569757777,5906.956547448349
1.22,1.3212738982405139,5904.821438712319
1.224,1.368838735651222,5901.513856282933
1.228,1.3810500873077014,5897.35525786527
1.232,1.355577792160781,5892.399561720971
1.236,1.296131086332278,5895.273155195292
1.24,1.2122260744930369,5901.725270795191
1.244,1.1177443528213697,5896.409180428665
1.248,1.0284251265540594,5906.452764711789
1.252,0.9587920404907218,5900.111900699315
1.256,0.9192333507471163,5904.010686718582
1.26,0.9139414218122559,5897.604397639802
1.264,0.9402495194081932,5901.68051571744
1.268,0.9896244164771887,5903.845641339816
1.272,1.0501107960099965,5911.340821267804
1.276,1.1094674432802036,5899.370629784402
1.28,1.1579498181239871,5905.162772440237
1.284,1.189910219952303,5902.845315729311
1.288,1.2039325161655094,5897.930156492019
1.292,1.20178950136457,5892.776171706736
1.296,1.1869056131975226,5908.550960244615
1.3,1.1630637163697977,5905.642467090839
1.304,1.1337465748530504,5897.573410085392
1.308,1.1019836891273176,5897.279262837026
1.312,1.0703273255626011,5901.674467737698
1.316,1.0407885178503775,5892.122245728887
1.32,1.0148606226803463,5900.272986586668
1.324,0.9937109455499212,5896.944876713136
1.328,0.9783468538806053,5896.701163235901
1.332,0.9695044639930015,5899.145988277717
1.336,0.9672645826146553,5907.725219189125
1.34,0.9706621865739431,5898.107033608275
1.344,0.9775595637072884,5896.6315817617005
1.348,0.9848554193327873,5897.013250569329
1.352,0.9889633217260643,5897.250070246585
1.356,0.9865458471779496,5896.214524440861
1.36,0.9755473956474363,5901.7548621601945
1.364,0.9563736349822266,5901.972717059171
1.368,0.9326985235481845,5905.916487425455
1.372,0.9112307240982565,5898.2670184243925
1.376,0.900109763121801,5899.440901671727
1.38,0.9062835987156791,5904.1577924214325
1.384,0.9328196773546021,5894.915469644837
1.388,0.9772589854955783,5883.810732572524
1.392,1.031755977468525,5903.964574699693
1.396,1.0850594756283711,5896.629016055035
1.4,1.1257093685589636,5902.243248258139
1.404,1.1454089249441244,5902.044197659464
1.408,1.1414872160430383,5900.628195892137
1.412,1.1176801304116166,5905.311406980216
1.416,1.083016678878521,5904.3295879965335
1.42,1.049184888167533,5905.192633807007
1.424,1.0271797396063715,5896.581644537968
1.428,1.0242252052265586,5901.982322008676
1.432,1.0418717699816629,5907.975634318716
1.436,1.0757971035435507,5901.057946868516
1.44,1.1173060387102929,5902.675573017452
1.444,1.1560301578975867,5893.401325338319
1.448,1.1830004052125667,5901.1085698139
1.452,1.1931818740192643,5896.479251848077
1.456,1.186753173694305,5899.83967500803
1.46,1.1688262528920939,5901.360070160489
1.464,1.1477978510741205,5908.817237047101
1.468,1.1329408402607606,5899.433094744288
1.472,1.1319993751919915,5898.139880165312
1.476,1.1493647425717093,5903.234797775664
1.48,1.185099831222797,5904.170915272557
1.484,1.2349353087655879,5899.153141811079
1.488,1.2912790425160927,5889.97548672102
1.492,1.34497980826065,5897.272133940268
1.496,1.3872019204697406,5900.668475859188
1.5,1.4107562031278675,5895.944089137788
1.504,1.4107068256346935,5901.17722785676
1.508,1.3846063992328033,5895.500825998399
1.512,1.332821759344741,5902.483702187655
1.516,1.259049332021873,5896.884915546029
1.52,1.1706595232834391,5894.245744274555
1.524,1.0783571859423706,5893.123784723098
1.528,0.9948716200142513,5905.722408050028
1.532,0.9327766651205417,5904.209170478134
1.536,0.9018779481652444,5901.125201412158
1.54,0.9068168010170192,5899.191880883267
1.544,0.9455955377995867,5902.959404206567
1.548,1.0095820905136375,5903.777116856465
1.552,1.0851976400082644,5906.34050327306
1.556,1.1569882686542747,5888.043209770137
1.56,1.2112738323698837,5905.0288429898455
1.564,1.239291461376982,5892.53608936452
1.568,1.2389114820360065,5906.738065226249
1.572,1.214548353693899,5901.818594207397
1.576,1.1754872431518577,5898.854789982844
1.58,1.1331806875920187,5895.327200975983
1.584,1.0981450556078918,5901.15126554468
1.588,1.077151977991951,5899.910065419035
1.592,1.0715314868946635,5904.016428644822
1.596,1.07729388232394,5905.252531753785
1.6,1.087182188472907,5903.4389473975
1.604,1.0938793604951014,5899.59919485533
1.608,1.0929705164872126,5906.1504814152
1.612,1.084363132897177,5894.835784366081
1.616,1.0716798921110706,5896.299450802178
1.62,1.0601703289575504,5894.18726848943
1.624,1.0543312947542307,5890.403339205885
1.628,1.0563517443580488,5899.43186535579
1.632,1.0658400599135212,5907.27056633739
1.636,1.0805215724781683,5899.640368506946
1.64,1.097174101948186,5893.33976358664
1.644,1.1122107369041332,5894.268855012235
1.648,1.1218767539750336,5895.506696442607
1.652,1.1225056257478587,5898.609774936876
1.656,1.1111896847981102,5899.821849895302
1.66,1.086664902259616,5897.288365280558
1.664,1.0498443724749114,5903.648044465152
1.668,1.0036740833151168,5903.379232552156
1.672,0.9525151738444302,5904.042694599142
1.676,0.9015209987887057,5896.553073102708
1.68,0.8563037113087656,5897.100542681612
1.684,0.8227938391103291,5904.854672915134
1.688,0.8068937716854301,5902.739914063374
1.692,0.8135525713458935,5907.361402138359
1.696,0.8452873013845963,5888.504541082694
1.7,0.900666176385451,5906.724713736125
1.704,0.9734696716000013,5901.894039755553
1.708,1.053057263160142,5904.023120606524
1.712,1.1260743144621268,5901.283287479279
1.716,1.1792070016018368,5905.990843626429
1.72,1.2022994242390161,5893.685260900796
1.724,1.1908940746225363,5898.178228190107
1.728,1.1473183092681696,5905.055702069393
1.732,1.0798982638689034,5905.076789138505
1.736,1.0006070346920972,5904.896079006701
1.74,0.9220845490630386,5897.892832925643
1.744,0.8550978845788042,5897.941555467066
1.748,0.8070902683712842,5900.553325142277
1.752,0.7818771252780348,5899.629317401866
1.756,0.7801579384051296,5899.992197625864
1.76,0.800366442834727,5908.021462307506
1.764,0.8393871361480392,5891.893027335463
1.768,0.8928274392860701,5905.8178776344375
1.772,0.9548735716094713,5899.22098283737
1.776,1.018135506512771,5901.49028559506
1.78,1.0740392874348967,5908.357407148402
1.784,1.1140973948452082,5896.104831632697
1.788,1.1318681034285862,5909.135508790803
1.792,1.1248658759932524,5902.081834546023
1.796,1.0954351863010054,5902.721086146118
1.8,1.0499342293657785,5894.2034383163455
1.804,0.9964571972906028,5903.541050568878
1.808,0.9421827995306024,5898.8873322378095
1.812,0.8915850742215982,5898.92466231698
1.816,0.8461273234184657,5906.201759740485
1.82,0.8052583622967361,5892.95304459389
1.824,0.7680325790454633,5908.319403292818
1.828,0.7345602337452551,5907.413491091297
1.832,0.7066708227192211,5908.564817618521
1.836,0.6875363382152146,5890.220653009425
1.84,0.6804226816507356,5895.661066787002
1.844,0.6871026560464818,5898.767673713042
1.848,0.7066727787029425,5907.793328742159
1.852,0.7354167069896178,5905.744465752137
1.856,0.767871713258666,5901.212876278179
1.86,0.7986116851315936,5907.18415842044
