时间(s),电压(V),幅值(高频80K)
0.0,1.6150764400940503,5905.01273370054
0.004,1.3958061400828539,5904.2395952391735
0.008,1.1956593859969475,5904.539081647283
0.012,1.03094693740193,5896.953267189085
0.016,0.9128217536464404,5904.299412528273
0.02,0.8461599586679276,5897.894485834948
0.024,0.8294075895536187,5908.919871788447
0.028,0.8552269312249529,5906.998221698263
0.032,0.9116829660547946,5907.489820559045
0.036,0.9839256671090606,5899.423998874416
0.04,1.0565429952043313,5897.101190621269
0.044,1.116498847188917,5897.8205188183165
0.048,1.1558566164634336,5901.491172022276
0.052,1.1730301830023409,5903.2998903013895
0.056,1.171804525981147,5908.045141172915
0.06,1.1586502664335665,5899.062595482895
0.064,1.139870659685901,5902.89241197896
0.068,1.119981966804059,5897.627384936526
0.072,1.1016190922139726,5906.019782247078
0.076,1.0862101174907235,5896.313243425986
0.08,1.074512462016679,5893.471983915158
0.084,1.0667022425363215,5891.935201495725
0.088,1.0622571461358712,5915.09078869181
0.092,1.0599213114276984,5907.10624803106
0.096,1.0578420719387474,5901.481972803733
0.1,1.053898444508934,5899.953535087938
0.104,1.0462683068778706,5891.984717611514
0.108,1.034147992892042,5900.419001355006
0.112,1.0182472503706228,5895.968246326205
0.116,1.0005720512805636,5897.908113834513
0.12,0.983336658915898,5905.055527731724
0.124,0.9674614557419543,5898.937396975232
0.128,0.9515513118427469,5899.939953119849
0.132,0.9321038408427884,5906.533570790854
0.136,0.9049974193158895,5894.539213155191
0.14,0.8675902172716659,5895.565327436653
0.144,0.82053778689948,5910.550559421415
0.148,0.7686531980441605,5898.823915852026
0.152,0.720433541793448,5895.681268336803
0.156,0.6861969615610402,5896.549759924408
0.16,0.6752614941142822,5895.286070352876
0.164,0.6931079012856672,5903.050380599069
0.168,0.7395755285523821,5892.231540725479
0.172,0.8086823112844572,5893.593214823443
0.176,0.890008008052916,5907.3693995608455
0.18,0.9711395664743465,5901.829997714656
0.184,1.0404298450640355,5891.769783030917
0.188,1.0891910877099018,5893.544764424409
0.192,1.1126868578273164,5899.290348169682
0.196,1.1099843586097258,5902.754062229146
0.2,1.083330196436959,5898.286161997827
0.204,1.0376292697221539,5900.589373031811
0.208,0.9800309897823904,5895.111728150668
0.212,0.9192676866965813,5893.2865311788
0.216,0.8645668997977651,5897.088433379267
0.22,0.8243536564197382,5895.537289967823
0.224,0.8051284549148484,5904.521755536672
0.228,0.8107548324067433,5901.059536274069
0.232,0.8421644430052572,5894.68872630084
0.236,0.8974224119664366,5897.034853594571
0.24,0.9721198818108218,5897.580908139881
0.244,1.0599703851995108,5902.536654277192
0.248,1.1533492174503348,5898.612846242009
0.252,1.2436323987040776,5902.185846329324
0.256,1.3215931342252474,5906.744962980561
0.26,1.3783394631530053,5904.282670137141
0.264,1.4069253851149968,5889.524121840241
0.268,1.4041234923545913,5895.817221309139
0.272,1.3715801638704872,5901.645082894441
0.276,1.3158736241674007,5901.374539195901
0.28,1.2474431897092269,5901.325187964418
0.284,1.1786039103011166,5893.445623704578
0.288,1.1209814387134616,5903.223550572989
0.292,1.0829017513305463,5900.699997329881
0.296,1.0675048796527253,5900.582147489878
0.3,1.072323738390644,5896.597523044861
0.304,1.090557111283794,5898.60002939541
0.308,1.113465166598649,5901.729806473198
0.312,1.1327950758187397,5902.541275002212
0.316,1.1423266379219208,5900.91367015832
0.32,1.138345773285508,5894.346830164473
0.324,1.1195171380306081,5906.556596958966
0.328,1.0867502531219166,5903.644554621928
0.332,1.0432236220586306,5898.96739574519
0.336,0.9942043384084507,5901.662529160067
0.34,0.9462022317927157,5900.749986449417
0.344,0.9054364826197435,5902.42101260581
0.348,0.8761704211095215,5900.093888202749
0.352,0.859669477736385,5892.969944372503
0.356,0.8542034265582685,5893.742018247808
0.36,0.8559526145156643,5899.140978747112
0.364,0.8603159349314282,5897.536547410253
0.368,0.8631395968877196,5905.308053744309
0.372,0.8616293988593462,5904.017298797007
0.376,0.8548787251814263,5898.617160242316
0.38,0.843964106236899,5901.946780463626
0.384,0.8316123758018275,5890.896181350979
0.388,0.8215931693337208,5905.372666210122
0.392,0.8180459035610248,5891.935673412586
0.396,0.8248220102629062,5894.951773496206
0.4,0.8447985231988895,5899.396106959101
0.404,0.8791407018116372,5899.851629310871
0.408,0.9265895318596565,5902.04702156452
0.412,0.9829693283662597,5900.20453638168
0.416,1.0412482463595027,5902.588782009092
0.42,1.0924836113470429,5900.72561120717
0.424,1.1276557614578153,5903.489923966156
0.428,1.1398836623610085,5898.998449297742
0.432,1.1262447366252657,5903.112540678077
0.436,1.088599733927069,5898.543367950723
0.44,1.0332475803243084,5905.22454485534
0.444,0.9696045855704359,5899.381916737406
0.448,0.9083031216094403,5905.257743538942
0.452,0.8591730980825539,5898.894627245624
0.456,0.829568816079266,5890.254068283841
0.46,0.8234338390236418,5890.780397122226
0.464,0.841279236876924,5900.298370192974
0.468,0.8808848136219868,5902.22151868434
0.472,0.9382124072354807,5896.791669989248
0.476,1.007987253810368,5895.904525092679
0.48,1.083732308027607,5905.087147307977
0.484,1.157562178857842,5897.102864752446
0.488,1.2203869293901224,5891.51355267492
0.492,1.26301475133921,5903.328726262791
0.496,1.2780693675195516,5904.997527855511
0.5,1.2621212577136665,5898.096908927831
0.504,1.2172825632503583,5902.674108897837
0.508,1.1516527016492943,5902.205616834253
0.512,1.0782760856664306,5896.859154929186
0.516,1.0126695617809685,5902.053088797283
0.52,0.9694236594768689,5893.973532494405
0.524,0.9586911360711792,5897.634809330698
0.528,0.9834645846127147,5895.799316145213
0.532,1.0384545652595207,5899.480406411944
0.536,1.1110875312766648,5897.406406810756
0.54,1.1845819428746507,5902.221763837263
0.544,1.2423342918001334,5899.07989454245
0.548,1.2722955104283333,5891.944329236328
0.552,1.269989760662342,5900.79568956865
0.556,1.2393333509098754,5901.169514989932
0.56,1.1911411656904314,5895.767281744584
0.5640000000000001,1.1398621378326343,5896.446315403906
0.5680000000000001,1.099497237465554,5900.968817289347
0.5720000000000001,1.0797602960666948,5894.033133408875
0.5760000000000001,1.0834467046107648,5891.57390862551
0.58,1.10577647447141,5902.898173987707
0.584,1.136021947881628,5887.625984241565
0.588,1.1609289181482123,5900.062611954865
0.592,1.1687110145688613,5901.802184802691
0.596,1.152289649802389,5898.857878402989
0.6,1.1109514079335445,5892.621779135178
0.604,1.0502191522756672,5895.924807435249
0.608,0.9801836084758109,5895.040365700662
0.612,0.9128758794548479,5903.419533103529
0.616,0.8594895278344782,5906.390583656095
0.62,0.828194102299065,5901.540404113551
0.624,0.8228896624284721,5898.637253460267
0.628,0.842840185449897,5907.6275504725545
0.632,0.8829847391056457,5897.925570511859
0.636,0.9348366766260724,5904.095482417514
0.64,0.987997100642607,5900.843074904372
0.644,1.0321872906515146,5903.584496518463
0.648,1.0593617836475506,5901.367458682777
0.652,1.0652499806588764,5894.910721877143
0.656,1.0498705562046962,5908.581927634932
0.66,1.0170028934817688,5899.631108865063
0.664,0.9729405363176452,5893.379497945841
0.668,0.924984345862326,5905.5788283030615
0.672,0.8801018241816283,5901.593083030202
0.676,0.8440024703953373,5904.2591468791215
0.68,0.8206327901727689,5900.593313794863
0.684,0.8119383719144668,5897.456201491813
0.6880000000000001,0.8177872457433867,5893.649344732924
0.6920000000000001,0.8361380301486453,5899.5368522435065
0.6960000000000001,0.8636002977727789,5896.936127184687
0.7000000000000001,0.8962945305517022,5899.112502198259
0.704,0.9306406017536066,5892.535047714592
0.708,0.9637771384187535,5901.721922946464
0.712,0.9936589694696343,5909.256729435969
0.716,1.0190710782399277,5892.284997489303
0.72,1.0396424214211788,5895.285959014395
0.724,1.055670708521933,5898.064610133534
0.728,1.067557977124551,5910.02530517702
0.732,1.0750179463848717,5891.733916489336
0.736,1.0766076788597199,5896.894973231579
0.74,1.070117411022052,5908.398563952177
0.744,1.0538855946174146,5899.44085140092
0.748,1.0285139470978877,5899.847868217229
0.752,0.998055798350663,5892.893834326107
0.756,0.9697641378941224,5892.912133629278
0.76,0.9520584074360378,5903.543318582726
0.764,0.9513384569685072,5900.413145165224
0.768,0.9690640411939715,5905.841490761592
0.772,1.0005366684371693,5901.134763407285
0.776,1.0360202016292697,5903.7357470229845
0.78,1.063777228888531,5900.013734571181
0.784,1.0738952232246342,5900.019921683257
0.788,1.0616078773763242,5897.960180944237
0.792,1.0290303124106592,5891.13385364853
0.796,0.9847030119415602,5898.027243222873
0.8,0.9410442561498098,5904.8147263197525
0.804,0.910573724789692,5890.4447538607055
0.808,0.9022345620658323,5900.13906102557
0.812,0.9190413477500267,5902.146915047729
0.8160000000000001,0.9576858777100871,5899.372729295498
0.8200000000000001,1.0099680148301053,5898.66729630631
0.8240000000000001,1.0653398399703884,5895.218088227972
0.8280000000000001,1.1136690021498075,5893.21428019801
0.8320000000000001,1.1474979141717148,5908.600615472848
0.836,1.163371484619774,5908.340199888856
0.84,1.1620815834480223,5907.234622847103
0.844,1.1479312802488348,5901.533334533287
0.848,1.127304784441987,5904.651394542791
0.852,1.1068536347313729,5894.240203356598
0.856,1.0915757337579135,5905.052545014314
0.86,1.0831743659858313,5900.1388809902455
0.864,1.0792849732144758,5896.38571431335
0.868,1.0741002984852912,5900.231172182928
0.872,1.060416445741411,5894.053369985474
0.876,1.0324371703840547,5894.31287981649
0.88,0.9882715481395301,5905.256126498255
0.884,0.9311323479625996,5898.724519055812
0.888,0.8686894325375987,5900.427056036796
0.892,0.81072171052826,5899.571281265329
0.896,0.7659568074610924,5904.586478720741
0.9,0.7393810558745706,5889.320550736725
0.904,0.7310081502030481,5910.902382230297
0.908,0.736342091457945,5899.466074274006
0.912,0.7481258305615909,5901.752733662192
0.916,0.7586853386508398,5903.284200209917
0.92,0.7621727757700385,5901.717783097638
0.924,0.7561969932805562,5904.354488672544
0.928,0.7425870675008147,5896.8887937859445
0.932,0.7271628282204851,5902.716045002961
0.936,0.7183922445924833,5913.229316115307
0.94,0.7249924928203135,5900.465460734863
0.944,0.7530183157230924,5901.174085980966
0.948,0.8034413434444388,5895.069136846323
0.952,0.8711959313265242,5900.982254721014
0.956,0.9460985785394936,5885.8735649873
0.96,1.0153012665900447,5889.527595854387
0.964,1.066437005480021,5904.601800705644
0.968,1.0905639451971911,5898.131927613793
0.972,1.0842682999799655,5895.791819345609
0.976,1.0505361471461638,5906.724503057184
0.98,0.9981871867980737,5900.997193084329
0.984,0.9399614886069035,5893.329894973195
0.988,0.8897579221588621,5896.71663509078
0.992,0.8597553135217126,5895.6966821440055
0.996,0.8580327274516459,5906.554379054906
1.0,0.8870164477970692,5903.585247214331
1.004,0.9428810227208979,5900.786880446861
1.008,1.0159730663376663,5895.633940162363
1.012,1.0923257696547117,5897.846159214385
1.016,1.1563020534625188,5903.775610523186
1.02,1.1941634865114548,5891.39576726926
1.024,1.1977890635504962,5891.970142338116
1.028,1.1672164184506097,5898.465086522464
1.032,1.1107842773590877,5892.000444582654
1.036,1.0425923873058673,5896.254963418342
1.04,0.9782302497469619,5900.171808015931
1.044,0.9304730862196298,5907.016803631687
1.048,0.9064479441387531,5899.5649784991965
1.052,0.9068462141343901,5892.8075553448
1.056,0.9268099277645242,5888.708535382781
1.06,0.957747480987383,5897.585742579562
1.064,0.9895275739753276,5886.21783661515
1.068,1.012739294942537,5906.315552868382
1.072,1.02064965354318,5903.721802488032
1.076,1.0103905861264737,5897.295865495212
1.08,0.9831015043346656,5905.7601701667
1.084,0.9431014004937569,5903.235936052963
1.088,0.8963987050332101,5897.88509882901
1.092,0.849003795280284,5892.300592777694
1.096,0.8056238290807086,5909.92070613079
1.1,0.7691837710306539,5897.643194768892
1.104,0.7411831922971835,5904.819403259269
1.108,0.7224986637580949,5891.724564600822
1.112,0.7141483784468096,5906.662784530333
1.116,0.7176604071020944,5902.203925872207
1.12,0.7348579220960194,5900.476169417773
1.124,0.7670830713317288,5900.967110428283
1.128,0.8141368793457587,5893.892894940204
1.132,0.8733940509874806,5899.623595028202
1.136,0.9395127812053341,5902.700189863618
1.14,1.0049307219185954,5897.541167859578
1.144,1.0610956682789987,5898.690108300272
1.148,1.1002145238959475,5897.887359563119
1.152,1.1171663240257286,5903.113801526875
1.156,1.1110869516490296,5897.371421971409
1.16,1.0860632051212207,5902.304007520605
1.164,1.0504922578689737,5899.338506204536
1.168,1.0150724095410826,5895.992973775121
1.172,0.9899963053083471,5894.591909062855
1.176,0.9823308578797708,5893.51876014148
1.18,0.9944528195170185,5897.495989226394
1.184,1.0238901190234189,5903.059284751401
1.188,1.0643999281276086,5902.890151712468
1.192,1.107792473868458,5896.428935492208
1.196,1.1458666022281816,5908.410388899857
1.2,1.1719099344756512,5901.954974063669
1.204,1.1815565058919344,5897.991999930578
1.208,1.1731408908497754,5893.887388983469
1.212,1.1477482660890461,5904.58466025548
1.216,1.1089773608213396,5899.603240572133
1.22,1.062286822134329,5895.640068179437
1.224,1.0138640075840932,5891.891505554493
1.228,0.9692184776097837,5900.17166660981
1.232,0.9319850012264755,5901.471283927854
1.236,0.9034735200741303,5910.218397481365
1.24,0.8831962475568405,5898.872437024494
1.244,0.8700760690058551,5900.27958872766
1.248,0.8636489810998828,5897.3841687584
1.252,0.8646194774171738,5899.798719348336
1.256,0.874568127882043,5894.727247182331
1.26,0.8950715091045651,5899.338311855351
1.264,0.9266654471256207,5898.887345190346
1.268,0.9680005882277172,5898.749946117571
1.272,1.0154238518207472,5892.866119407379
1.276,1.0631663598238243,5898.838457846262
1.28,1.1042430754629469,5904.297403236911
1.284,1.1319526424430773,5912.100026375199
1.288,1.141539155688752,5899.111786650934
1.292,1.1313864071127437,5896.81525789856
1.296,1.103303186786853,5899.339941703761
1.3,1.0619405185839166,5900.823098214612
1.304,1.0137469295567414,5895.191480979888
1.308,0.9658330650146937,5910.128100167111
1.312,0.9248809131671794,5903.025440578111
1.316,0.8961492093631297,5898.43125810583
1.32,0.882691283065781,5893.577506739318
1.324,0.8848979719230614,5900.799735525699
1.328,0.9003948184261983,5901.898273340731
1.332,0.924280566702354,5906.609710954037
1.336,0.9497086646037425,5902.299224917489
1.34,0.9688564426386626,5901.836267758579
1.344,0.9743579511508285,5902.897860140078
1.348,0.961152461048689,5904.831487948052
1.352,0.9283396761059242,5902.039665318768
1.356,0.8802622980177549,5893.602625007832
1.36,0.8260495881498494,5899.563230976719
1.364,0.7774239076615104,5903.157552101887
1.368,0.7454363874528027,5886.284891647601
1.372,0.7373986263772272,5897.136728136106
1.376,0.7551765112303198,5902.86139262905
1.38,0.7952695676561446,5900.841183331992
1.384,0.8502494936911712,5896.347463994717
1.388,0.9107556196564867,5902.264916200885
1.392,0.9674483644028364,5897.1941347918255
1.396,1.0126773531737794,5904.725366740778
1.4,1.0417283153372692,5902.869837567561
1.404,1.0534319844650288,5891.334603675955
1.408,1.0499470661768213,5898.723458118585
1.412,1.0357851876837938,5891.328807019365
1.416,1.016485161465933,5913.417370303671
1.42,0.9975112104199665,5908.42488694551
1.424,0.9837255867662253,5902.028369158329
1.428,0.9792379589693736,5885.487981379955
1.432,0.9870533079539295,5904.605650905547
1.436,1.0081902774878868,5890.336926605446
1.44,1.0406590989075462,5898.766493601701
1.444,1.0791748177365612,5902.184105122066
1.448,1.1161843320541351,5902.222697164147
1.452,1.1438600775939916,5901.276055750651
1.456,1.1559755244872185,5894.427460818037
1.46,1.14876518136885,5888.8558314043685
1.464,1.1208183092211155,5898.482382383451
1.468,1.0727911999364255,5905.032216761384
1.472,1.0075649005509844,5895.408888359811
1.476,0.9307425608125178,5889.353598884015
1.48,0.8508435148171181,5907.556074496485
1.484,0.7785630298582557,5898.342669555216
1.488,0.7248743893741503,5903.141187238255
1.492,0.698312956591017,5908.634716789797
1.496,0.7023265157069524,5899.1060900155735
1.5,0.7338278598924618,5894.576790143428
1.504,0.7837512164776935,5908.253455412778
1.508,0.8395891454135928,5910.872870530773
1.512,0.8890656219249135,5898.867827795933
1.516,0.9236801500450379,5898.717889006904
1.52,0.9409164972241283,5905.460945190363
1.524,0.9444026205812447,5903.249837495223
1.528,0.9420816014724855,5903.339300696475
1.532,0.943154257273123,5901.17733407341
1.536,0.9548602006544245,5899.375644391176
1.54,0.9800561208063623,5891.279414958683
1.544,1.0162194027927252,5910.052912945622
1.548,1.0561268414353062,5899.740302376236
1.552,1.09008958982496,5898.262661458766
1.556,1.109197681024608,5896.648604757148
1.56,1.1085484193870787,5903.582371499069
1.564,1.0892390194755124,5908.563654627059
1.568,1.0583396232130444,5895.442401187748
1.572,1.026891415439266,5893.912073973701
1.576,1.006601163542232,5897.956612913154
1.58,1.0061277737357233,5898.465799942987
1.584,1.02791336832488,5896.899713031303
1.588,1.066537856570105,5889.684632180503
1.592,1.1094226601566421,5893.617779072458
1.596,1.1401262035579083,5899.971157056549
1.6,1.1434344585932426,5895.378638455242
1.604,1.1104511617454162,5907.206649637042
1.608,1.0416930279791694,5909.944179350326
1.612,0.9470550571290131,5912.273008924466
1.616,0.8428922670453103,5898.475095454313
1.62,0.7475413473754311,5896.706303798208
1.624,0.6769033914036836,5903.519387527079
1.628,0.6413034074620633,5898.862810034139
1.632,0.6441560502052981,5900.854225149374
1.636,0.6823963648677638,5903.557835762003
1.64,0.7482928955157933,5896.610755257703
1.644,0.8320358221433128,5906.231856738213
1.648,0.924297805006975,5898.282309081169
1.652,1.0179048725130873,5888.569166291691
1.656,1.1080412725771651,5903.969418952678
1.66,1.1910824337680508,5899.422429067498
1.664,1.2628897656293734,5889.576311236572
1.668,1.3177211784945686,5895.506118482628
1.672,1.348548252956125,5899.414043605925
1.676,1.3487557114415023,5909.636459476479
1.68,1.3144914382829247,5899.409244271196
1.684,1.246702436812392,5907.29483359141
1.688,1.1520390043776683,5900.194064576332
1.692,1.042136560170549,5903.7052846677325
1.696,0.9313204068068854,5901.523119314141
1.7,0.8334717188786807,5895.694678367791
1.704,0.7592171450334587,5895.118390502189
1.708,0.7143746525060416,5900.765547078381
1.712,0.6998572402756593,5898.590872095248
1.716,0.7125373266845954,5900.444332234376
1.72,0.7463419804861565,5907.347792343405
1.724,0.7931378102683678,5904.712041765191
1.728,0.8434598649920377,5894.836473947283
1.732,0.8874261767517513,5898.968189463668
1.736,0.9160780482101578,5893.253917792434
1.74,0.9230377738914418,5897.424563679804
1.744,0.906053944003111,5908.04244335156
1.748,0.8678845598029373,5901.073311406443
1.752,0.8160877275120325,5905.634719779969
1.756,0.7616363025478289,5901.516430011248
1.76,0.7167246809390804,5892.031425008331
1.764,0.6924118926453442,5900.406569737143
1.768,0.6966579526180923,5903.011183903336
1.772,0.7329924533054446,5897.18109227327
1.776,0.7998016007237149,5891.515645859998
1.78,0.8902189629614996,5901.603763495119
1.784,0.9928076379960868,5905.2307807024445
1.788,1.0933318989349425,5902.148387196249
1.792,1.1776067322797814,5899.893722766154
1.796,1.2347512566756977,5902.789158376104
1.8,1.2596975635370504,5903.133935148986
1.804,1.253992261316452,5894.710577652296
1.808,1.224684301260491,5892.2859640594925
1.812,1.181914885888919,5900.4682131271065
1.816,1.1362482446451816,5901.902404727192
1.82,1.0966307171488425,5901.857281402159
1.824,1.069299242361614,5892.398898707259
1.828,1.0573991630551303,5900.392412186407
1.832,1.0609189145745017,5904.224536603788
1.836,1.0768189894302769,5895.480896390859
1.84,1.09950216092974,5900.464736977734
1.844,1.1216901895054365,5891.94984930228
1.848,1.1355319218914197,5894.669586253678
1.852,1.1337809686846523,5908.400474096193
1.856,1.111092271825266,5892.101550576962
1.86,1.065449332081848,5899.809682557558
