时间(s),电压(V),幅值(高频80K)
0.0,0.9514688762781816,5906.648680226385
0.004,1.0144127202206736,5894.778542190935
0.008,1.0786513389864796,5901.198292741089
0.012,1.1448848434376073,5893.985028999236
0.016,1.2119155361974179,5899.23307415156
0.02,1.2762261078387278,5886.701603692781
0.024,1.3324845146087398,5900.889718032431
0.028,1.374872767504341,5900.906636572059
0.032,1.3986775467933887,5900.49392980498
0.036,1.401574457130497,5901.50015738001
0.04,1.3843324031475357,5907.279968001513
0.044,1.3508524973538758,5905.455260194012
0.048,1.3074820312274744,5897.974873269621
0.052,1.2616680074574953,5911.43235471278
0.056,1.2203094828436423,5890.326044400983
0.06,1.1883821979102982,5899.691337052704
0.064,1.1682893298732409,5899.569215722789
0.068,1.1599940884321223,5896.83918127327
0.072,1.1616645504811387,5901.44607355804
0.076,1.1705536615047085,5899.260060558365
0.08,1.183962787808963,5894.322080114898
0.084,1.2000867837829987,5905.074951082966
0.088,1.2183740189701433,5896.5211915917625
0.092,1.2390978613869965,5894.497175300497
0.096,1.2622589466722145,5895.640643714183
0.1,1.2864364805936939,5896.287879397018
0.104,1.3083379915394773,5899.962789707252
0.108,1.323392153029797,5896.533278860568
0.112,1.3271088921332508,5894.341264292631
0.116,1.3165888291218357,5906.852371512941
0.12,1.2916372778781762,5899.76941345014
0.124,1.2551814099060528,5902.432833668256
0.128,1.2128921835517164,5908.522514115737
0.132,1.1720689968242999,5907.981817706383
0.136,1.1400118839567421,5894.760575186231
0.14,1.1222979425811856,5899.523092459895
0.144,1.1215008743294756,5904.152221979285
0.148,1.1367682090802091,5900.1220647538885
0.152,1.1642966987789578,5901.110218932105
0.156,1.1984015857546775,5896.524526729559
0.16,1.2327945021557254,5891.718367822213
0.164,1.2617973733875685,5894.38526174743
0.168,1.2813270243986858,5901.863952542947
0.172,1.2895096549667255,5897.20014331364
0.176,1.2867960663019122,5897.698848589953
0.18,1.2755510745638923,5907.48635636489
0.184,1.2592864644766848,5896.3106669113895
0.188,1.2418603054099275,5902.51065978625
0.192,1.2269237531701298,5898.302791590884
0.196,1.2176573742486925,5902.5066285864905
0.2,1.2165786757453163,5905.06118338611
0.204,1.225127664693167,5899.763022241246
0.208,1.2429386348082174,5894.340197463209
0.212,1.2670951210306092,5899.275336764959
0.216,1.2919560546110846,5903.734985112031
0.22,1.3100361488132357,5900.317699713987
0.224,1.31393560703091,5898.84467527462
0.228,1.2987649474664422,5903.931245868237
0.232,1.264189975703057,5900.677614769144
0.236,1.21523856350404,5886.985739195282
0.24,1.161392051354215,5904.802104109341
0.244,1.1141468315080705,5895.191646579475
0.248,1.083873245143903,5895.526255382038
0.252,1.0770594340135087,5903.226814002321
0.256,1.0948063883554708,5894.086371568721
0.26,1.1329195022086702,5898.097543493732
0.264,1.1833637261752203,5910.827193217837
0.268,1.236421486827854,5899.737352859338
0.272,1.2827856666314335,5901.470816152392
0.276,1.3150540999417986,5894.127748440318
0.28,1.3284813539608036,5897.942376043935
0.284,1.3211576799120712,5897.059213843266
0.288,1.2939053815907742,5898.4615016432645
0.292,1.2501055399006449,5907.99618783328
0.296,1.195481653496722,5901.887362153911
0.3,1.1377107792539025,5894.410831221753
0.304,1.0856770121128478,5899.858955286117
0.308,1.0482169377639268,5896.674470680334
0.312,1.032385951211615,5899.362099545088
0.316,1.0416484269694424,5891.764818331751
0.32,1.0747319457642437,5897.232181031045
0.324,1.1257828534680747,5907.350987585699
0.328,1.1858695166398934,5904.465901983544
0.332,1.2452392516217783,5903.416382990964
0.336,1.2954859758253472,5898.884800069754
0.34,1.3309838249170085,5903.996820553195
0.344,1.3493510885893352,5894.966887033444
0.348,1.3510763281327396,5907.131916079828
0.352,1.3386492167474255,5903.26010493082
0.356,1.315595532448372,5898.53035964
0.36,1.2857444679801595,5902.419898426517
0.364,1.2528722522397977,5904.835144071489
0.368,1.2206259185183657,5903.006945037919
0.372,1.1924642652641035,5904.156019358479
0.376,1.1713879386657,5901.488594130047
0.38,1.1594550792621732,5902.531665542606
0.384,1.1572992563689701,5903.005768570953
0.388,1.1638875910749078,5897.007974844403
0.392,1.176612138473143,5900.705171013544
0.396,1.1916928663683242,5890.703386986078
0.4,1.2048564103495336,5897.107889450341
0.404,1.2122308832861004,5912.706812056493
0.408,1.2112907169286269,5898.155302239388
0.412,1.2015688413120877,5909.111617340751
0.416,1.184845957558794,5903.200933066157
0.42,1.1646735946955025,5896.507253901397
0.424,1.1453260542503423,5902.2744516668745
0.428,1.1305030714368005,5903.475136190956
0.432,1.1222370586599169,5899.208736147842
0.436,1.120424927661676,5905.444791193471
0.44,1.1231818679044758,5898.328880805866
0.444,1.127886153208062,5899.338197767959
0.448,1.1324887982715244,5906.878546434839
0.452,1.1365207295853477,5907.910428535897
0.456,1.1413281914577567,5906.792213488996
0.46,1.1494082773739076,5899.459148928043
0.464,1.1631622362972234,5898.864818729522
0.468,1.183677965095238,5901.975405567102
0.472,1.2100923450320988,5907.575053264385
0.476,1.2397371958808545,5902.895235753769
0.48,1.2689151909088603,5904.497551043569
0.484,1.293947015835603,5904.487769991438
0.488,1.312074538022636,5900.8599299168745
0.492,1.3219217426713152,5900.794350248331
0.496,1.323482876681135,5905.949624985139
0.5,1.3178124450671378,5896.041344260726
0.504,1.3065851605745196,5895.938280234205
0.508,1.2916062487933264,5903.196094668568
0.512,1.2743434176031534,5901.567104309397
0.516,1.2555914225824865,5902.913737225368
0.52,1.2353889971489658,5898.788266446842
0.524,1.213263526550251,5900.253598573437
0.528,1.1887761403226205,5903.723801896896
0.532,1.1622179862011601,5899.312224688944
0.536,1.1352341388648748,5901.5113827326695
0.54,1.1111302041955933,5893.557197489698
0.544,1.0946453015923132,5900.515580904271
0.548,1.0911085387832098,5887.482572293397
0.552,1.1051326895441043,5900.41418955185
0.556,1.1392163249167435,5897.653984744176
0.56,1.192693339773936,5903.386478747182
0.5640000000000001,1.261343904191106,5902.186489256672
0.5680000000000001,1.337741149397241,5897.252396451668
0.5720000000000001,1.412219835870322,5897.0575887005925
0.5760000000000001,1.4743063944395378,5902.876439913988
0.58,1.5144470822609517,5903.436630331589
0.584,1.5257791752482968,5897.833003751993
0.588,1.5055413755893088,5896.825118769479
0.592,1.455685278041662,5903.173152165429
0.596,1.382449392872126,5902.1376463519655
0.6,1.2950344484880454,5890.53880200025
0.604,1.203857778753313,5900.919197741703
0.608,1.1189311211912791,5902.378662070012
0.612,1.0486779286117247,5898.361483328768
0.616,0.9992238723922355,5898.009429234557
0.62,0.9740656872408943,5898.600463810889
0.624,0.9740226279501033,5902.482121135311
0.628,0.9974145202096825,5900.23101982712
0.632,1.0404644704969792,5895.130913098598
0.636,1.0979267955693046,5895.752578292014
0.64,1.1638324564640226,5901.40877545572
0.644,1.2321363470073414,5902.158897903892
0.648,1.2971107628195162,5904.37882456105
0.652,1.3535157130095132,5898.852378479145
0.656,1.3967046962030831,5896.539712996838
0.66,1.4228418769968263,5905.744358055188
0.664,1.4293634870968976,5900.129494111226
0.668,1.4156788493703876,5904.323261057356
0.672,1.3838620380358286,5900.13493562792
0.676,1.3389038765659071,5900.728255087322
0.68,1.2881696204258122,5898.858803355485
0.684,1.2400296793060566,5898.219526421763
0.6880000000000001,1.2020153140784064,5889.904475583599
0.6920000000000001,1.1791097453732267,5902.5875763142685
0.6960000000000001,1.1728001753620534,5898.317098210643
0.7000000000000001,1.1812419957611122,5898.790150864089
0.704,1.2004097259562232,5901.210358857293
0.708,1.2256830691053808,5901.812050610439
0.712,1.2531756175611657,5899.981800497007
0.716,1.2802891901358915,5894.383585408217
0.72,1.3053764113984865,5898.118834431728
0.724,1.3268849542488859,5898.47156563759
0.728,1.3426863961320537,5910.212045014408
0.732,1.3501836219290329,5901.767726917456
0.736,1.3472586311574408,5901.733974760934
0.74,1.333555509634699,5900.053622084638
0.744,1.3113947823522125,5911.655210079413
0.748,1.2858319521458197,5897.724876382358
0.752,1.263754837758192,5904.456299847072
0.756,1.2522463944848992,5900.879580335532
0.76,1.2566658789616625,5896.342337754582
0.764,1.2790008517218798,5899.424643629971
0.768,1.3169874347680732,5901.316890154084
0.772,1.3643081144915916,5899.6719225717525
0.776,1.4118953869648398,5896.653605118275
0.78,1.4500353521908618,5898.155799053805
0.784,1.470691422037193,5906.625134366623
0.788,1.4694027525947073,5897.078210103975
0.792,1.446280330585534,5900.363868739552
0.796,1.40590873873347,5902.484824676989
0.8,1.3562370303051383,5901.501669929762
0.804,1.3067506981830324,5906.014438549604
0.808,1.2663410165786626,5892.792494169241
0.812,1.241330289390362,5894.829217118961
0.8160000000000001,1.2341002654827504,5886.489265927814
0.8200000000000001,1.2427000174509395,5906.496128828828
0.8240000000000001,1.2616021279970107,5896.435343551164
0.8280000000000001,1.283423574416067,5905.930351742377
0.8320000000000001,1.3010888910531537,5908.052870772405
0.836,1.3097579757807698,5906.554960660291
0.84,1.307913434195765,5894.86603660757
0.844,1.2972862843045279,5901.406146530196
0.848,1.2817322349738838,5895.596411413071
0.852,1.2655761814874256,5903.032105441474
0.856,1.2521053848276065,5894.976629748271
0.86,1.2427338718457828,5902.004306365685
0.864,1.2369980112661914,5903.712715321934
0.868,1.2331844552237694,5903.297089435286
0.872,1.2291896229268524,5909.000673263118
0.876,1.223219524592322,5892.864457836178
0.88,1.2141448237178583,5897.785913560831
0.884,1.2016024169700623,5904.041101292973
0.888,1.1860563220334377,5903.149662529467
0.892,1.1688914483780597,5895.834094902872
0.896,1.1523880757344684,5895.42285909864
0.9,1.1393808358206374,5893.4414363714695
0.904,1.1325946429815537,5893.871980554864
0.908,1.1338662879172767,5898.379109217992
0.912,1.1435064492211755,5903.240587145152
0.916,1.1599684451253918,5901.573132064266
0.92,1.1799257317342078,5898.675833669397
0.924,1.1988301222942983,5902.009168336477
0.928,1.211909143047685,5894.81127044749
0.932,1.2153818064510353,5898.691353312122
0.936,1.2075846098451852,5901.2392238163375
0.94,1.1897378743738791,5899.78480437586
0.944,1.1661325168766135,5901.648901243638
0.948,1.1435511730765289,5898.518955518918
0.952,1.12986430428406,5900.204601380159
0.956,1.1320192101294684,5894.199681690441
0.96,1.1539521196029079,5905.49351904842
0.964,1.1950968479944135,5898.497329258594
0.968,1.25003405594051,5895.554299101941
0.972,1.3094894961338215,5903.843387839031
0.976,1.3624732167419809,5902.521434208986
0.98,1.3989624046760891,5905.232242030868
0.984,1.4123101342553266,5897.690056984294
0.988,1.4006597430006096,5902.121658113783
0.992,1.3670458210892509,5900.226824028627
0.996,1.3183410412065344,5906.897184914793
1.0,1.2635248269736814,5898.197462824784
1.004,1.2118261548059395,5900.032835131924
1.008,1.1711581573594168,5903.153840520416
1.012,1.1470006297948518,5905.9499004191175
1.016,1.141677226779601,5900.180825883026
1.02,1.153983425185052,5892.496888734597
1.024,1.1792854797180297,5893.17601984783
1.028,1.2102923280934121,5905.519008967482
1.032,1.238563862680197,5904.158977011784
1.036,1.2564983863975612,5899.990602478906
1.04,1.2591954926369813,5897.472228704844
1.044,1.2454998973590024,5897.046183391703
1.048,1.2178937758197845,5904.899400952385
1.052,1.1814786694376858,5898.681836177392
1.056,1.1425921601652085,5901.252338447807
1.06,1.1075065489564286,5900.812321294336
1.064,1.0814150049354854,5892.007389209288
1.068,1.0677468710593676,5893.499775146138
1.072,1.0678081408457731,5898.199142388926
1.076,1.0807753194478187,5909.792390528751
1.08,1.104087307210102,5901.758423495452
1.084,1.1341984153211364,5897.690855240616
1.088,1.1675056060787976,5899.280008396047
1.092,1.201149344589305,5908.365543061952
1.096,1.2333889015124135,5897.17658898716
1.1,1.2633922173778447,5896.979783932178
1.104,1.2905366414599984,5900.654962863626
1.108,1.3135920848585712,5901.540860027463
1.112,1.3302653912381102,5898.8510759317805
1.116,1.3374152173793852,5895.428028844909
1.12,1.3319295258532413,5892.048442670871
1.124,1.3119906899431681,5901.961482257844
1.128,1.2782720964170284,5907.113232194756
1.132,1.2345228010148737,5899.400981472739
1.136,1.1871586813922643,5902.906237238776
1.14,1.1439452994316335,5903.55547726971
1.144,1.1123120953735919,5901.048957329459
1.148,1.0978911597878256,5909.761848397954
1.152,1.1035665747031516,5910.278440183764
1.156,1.1290287908086913,5893.171097662055
1.16,1.1707677524311404,5902.869235804733
1.164,1.2225156756039781,5903.674564614219
1.168,1.2761931874437056,5901.324620835171
1.172,1.323335447506266,5897.46845138515
1.176,1.3567952994277017,5901.447188809181
1.18,1.37231783827854,5908.021801816389
1.184,1.3694688520517668,5904.0622881508525
1.188,1.3515141350541806,5897.384591345334
1.192,1.3242293852659675,5900.019468138866
1.196,1.2940855114708683,5890.966353045833
1.2,1.2665009752081147,5900.9265892196245
1.204,1.2447516597302895,5901.872905927571
1.208,1.2298064658129675,5902.631295467425
1.212,1.2209911215595568,5906.137816468775
1.216,1.217067417437573,5905.3086835499225
1.22,1.217157117152337,5910.874171119267
1.224,1.2210622861319023,5897.952896395193
1.228,1.228903415969313,5907.285379155579
1.232,1.2403929975174668,5890.352027083778
1.236,1.2542356423398395,5900.930841900329
1.24,1.2679920776791245,5904.851730589691
1.244,1.2784223481287234,5896.966462670501
1.248,1.2821332098175366,5893.318884161553
1.252,1.2763697443828017,5903.548575336701
1.256,1.2598007822110546,5903.05728423653
1.26,1.2330559858407681,5907.401731400792
1.264,1.1987484058677846,5906.36986701061
1.268,1.160881153565951,5892.731292650744
1.272,1.1237993748579276,5907.9453815537445
1.276,1.0910654650969325,5898.455322692879
1.28,1.0647204005205235,5893.809562410928
1.284,1.0452683999733168,5901.989794787309
1.288,1.0323485614046397,5908.4018022171085
1.292,1.0256248416363045,5911.597902090684
1.296,1.0252972759326524,5895.556884455952
1.3,1.0319403652351113,5893.155235871183
1.304,1.0458414763180381,5904.483566963787
1.308,1.066303477167234,5898.29684465465
1.312,1.0913550223173225,5901.584791916874
1.316,1.118039417347258,5899.412537720279
1.32,1.1431209630868688,5905.097772266436
1.324,1.1638666596372438,5890.576326956989
1.328,1.1785947546570712,5900.437255775344
1.332,1.1868444256974138,5905.309593644547
1.336,1.1892082134184452,5906.276890685789
1.34,1.1869762834423592,5896.445063704588
1.344,1.1816888305605513,5899.998535294928
1.348,1.1745904383231076,5896.630241644586
1.352,1.1660658512126951,5901.755141877341
1.356,1.155377155860929,5897.2640880022
1.36,1.1410521342489341,5901.723555879425
1.364,1.1219025310816937,5898.694399805074
1.368,1.098175292941668,5895.1104657424885
1.372,1.0721897781626666,5900.287217788772
1.376,1.0480740657796745,5902.069899830375
1.38,1.0306388844788221,5898.345462793395
1.384,1.023794528083904,5892.860494848178
1.388,1.0291310229107211,5907.370263470743
1.392,1.045244847073359,5901.753793774749
1.396,1.0680667187744286,5901.687106365597
1.4,1.0920214425768844,5901.331862239913
1.404,1.111602148163178,5899.240601317626
1.408,1.122898563729495,5905.632748959481
1.412,1.1246471816085266,5901.54952363014
1.416,1.1184549031009812,5894.165255333626
1.42,1.108074719341573,5899.6378295215945
1.424,1.0979610713128465,5899.793537015106
1.428,1.0916508750361777,5896.473822575942
1.432,1.0906286733587698,5895.411348246903
1.436,1.0941234732718736,5904.606317279557
1.44,1.0998059178940305,5896.780610705678
1.444,1.1048993997508938,5897.455043897314
1.448,1.1071148387258387,5906.959989500279
1.452,1.105108169977581,5896.699635745843
1.456,1.0985471912523594,5902.215986632636
1.46,1.088040780040292,5904.509073217834
1.464,1.075088354260972,5896.67623666237
1.468,1.062019735852061,5905.034813057547
1.472,1.0517592867110896,5907.281724602827
1.476,1.0472442235069541,5907.384843872493
1.48,1.050502919528914,5898.941727767982
1.484,1.061690449245436,5905.015689660881
1.488,1.0785729027697464,5906.046100424118
1.492,1.0968306883239958,5896.956581198652
1.496,1.1111358347552853,5905.7061544605895
1.5,1.1165669124451165,5899.801366036036
1.504,1.1098521225178546,5905.570692876277
1.508,1.0901341265767355,5902.34974622015
1.512,1.0591847191868022,5906.761326090395
1.516,1.0211282785372782,5897.496252994352
1.52,0.9817684414972631,5904.0093501452775
1.524,0.9475921568372634,5885.873127564109
1.528,0.9245148577107437,5900.479540014789
1.532,0.9165128249049602,5900.774761011186
1.536,0.9244638434198431,5899.048762900901
1.54,0.9456488481900721,5906.106902866858
1.544,0.9742709402002518,5894.427741833699
1.548,1.0029645567579246,5889.182033001102
1.552,1.0247789034334296,5895.636750100299
1.556,1.0348673901402659,5902.114502393826
1.56,1.0313277404664922,5894.806962122003
1.564,1.0151828198496669,5907.122787312914
1.568,0.9899204301070385,5897.900956234608
1.572,0.9609696310346053,5904.615939686539
1.576,0.9351160471722647,5904.855963976803
1.58,0.9195961200854963,5901.401630598349
1.584,0.9206964629234047,5888.700158629297
1.588,0.942004061760141,5897.833117463255
1.592,0.982805772546062,5904.20986572015
1.596,1.0373470162902885,5901.942000336134
1.6,1.0955324207998616,5895.963204449395
1.604,1.1451224620675382,5901.520586359959
1.608,1.1748149618730792,5897.607669549059
1.612,1.1772214642205794,5899.430610297573
1.616,1.1508363864045767,5906.801905108749
1.62,1.100457738707211,5905.65247369457
1.624,1.0359005092240063,5912.634787531383
1.628,0.9692508874373498,5900.880171542974
1.632,0.9114246438485695,5904.174838781428
1.636,0.869226909038533,5905.2251421561305
1.64,0.8440850019687216,5896.933211879655
1.644,0.8329735336855606,5903.430823172914
1.648,0.8310241353707943,5907.093561540597
1.652,0.8344759293234071,5902.865108570597
1.656,0.8425120006113543,5905.140344550687
1.66,0.8572166945670758,5900.65529641397
1.664,0.8819001270142345,5904.776349153481
1.668,0.9187596192563747,5900.058803309862
1.672,0.9669861995765751,5910.488302180208
1.676,1.0220529497223658,5911.220901591343
1.68,1.0763279991723016,5905.415151284184
1.684,1.1206642623951113,5908.804382310515
1.688,1.1464251258794687,5900.899531832153
1.692,1.1474755595533164,5907.808053586739
1.696,1.1217932309526466,5903.934025998384
1.7,1.0723699057729668,5909.588390460547
1.704,1.007067511616905,5903.735435544972
1.708,0.9372821896616371,5904.245514723083
1.712,0.875654996560248,5907.591026252414
1.716,0.8334069275348253,5895.013424325169
1.72,0.8179730113849765,5901.406532543426
1.724,0.831464522898595,5904.702585544765
1.728,0.8702248428587279,5894.739593230621
1.732,0.9255064182708076,5901.496851642427
1.736,0.9851435695615799,5901.59400041414
1.74,1.0359818398077576,5897.558581440115
1.744,1.0666869081562744,5909.551943806596
1.748,1.070394723185417,5907.462412217225
1.752,1.046539072408908,5900.899167028049
1.756,1.0012171433746644,5905.02542358646
1.76,0.9457610928227995,5906.903583392111
1.764,0.8937653032811324,5906.624101498067
1.768,0.8574138075261344,5907.598590056113
1.772,0.8442319462089215,5909.676612195917
1.776,0.8552361704634232,5900.853222360647
1.78,0.8849959850670308,5900.500431934477
1.784,0.9235305969782326,5907.127796457785
1.788,0.9594050376767018,5910.28794888349
1.792,0.9830496922758053,5907.1267709803205
1.796,0.989324751627013,5903.656527081819
1.8,0.9786314677731955,5894.646013673591
1.804,0.9562919453103882,5896.4107590426775
1.808,0.9304166732398677,5901.005666430639
1.812,0.9090062920432774,5903.37676819183
1.816,0.897367463454907,5902.127931371906
1.82,0.8967712764712049,5909.270460980372
1.824,0.904657646751336,5900.477839047702
1.828,0.9159934515309686,5908.07034493865
1.832,0.9250459531832774,5903.2824447559815
1.836,0.9269162154424301,5912.369034673067
1.84,0.9184959991222077,5902.070542681512
1.844,0.8988527605224388,5912.597554660959
1.848,0.8692393802236319,5903.982061941233
1.852,0.8328641873155346,5894.870740448345
1.856,0.794361312796396,5911.617846493784
