时间(s),电压(V),幅值(高频80K)
0.0,0.772786876044039,5903.549162326318
0.004,0.7869322379998187,5901.85562057933
0.008,0.8073533551065672,5899.2949867187945
0.012,0.8398731116077623,5905.988705460218
0.016,0.8878867747922542,5896.617009514002
0.02,0.9511622581886388,5909.607520420166
0.024,1.02524668017351,5904.756831818455
0.028,1.1020206146088674,5905.625199075854
0.032,1.171459487015685,5911.616397511274
0.036,1.2240735401103784,5900.499539222951
0.04,1.2532133994523418,5888.086054793006
0.044,1.256505041557329,5898.140722031452
0.048,1.235967307102266,5893.983998910276
0.052,1.1968241096049548,5903.875607171415
0.056,1.145583581979022,5899.092081241775
0.06,1.0882952507222479,5899.780671243549
0.064,1.029709659562175,5899.360600819198
0.068,0.9734673263836974,5900.8840509114925
0.072,0.9228634389617006,5902.385479892127
0.076,0.8815201409508282,5897.662025510137
0.08,0.8534955055203711,5892.603891022514
0.084,0.8427285902877178,5893.615359469441
0.088,0.8519954919551647,5896.575218813123
0.092,0.8816934509056232,5902.683633442032
0.096,0.928877993498929,5898.807326415705
0.1,0.987026706063258,5900.781498323203
0.104,1.0468441759485414,5896.39001337013
0.108,1.098033616343442,5894.924139999373
0.112,1.131547282108592,5896.213570972413
0.116,1.1416217526248222,5901.877035910678
0.12,1.1269742001219258,5902.513014389435
0.124,1.090816251946436,5901.422331112919
0.128,1.0397127383878393,5895.39308220398
0.132,0.9816642173625761,5905.612486887457
0.136,0.9240711977359957,5894.8204095995725
0.14,0.8723376651606383,5897.426646135963
0.144,0.8295879551940414,5897.790836271291
0.148,0.7973349357195181,5894.44441897771
0.152,0.7764221066184654,5904.700387507201
0.156,0.7675943130218883,5899.870231658527
0.16,0.7714844299792243,5905.8281829069965
0.164,0.7881887824197993,5899.316058388062
0.168,0.8167425325487876,5902.787163436023
0.172,0.8547762691940239,5900.35849621363
0.176,0.8985430553408114,5898.601790665384
0.18,0.9433856592382571,5905.417968132848
0.184,0.9845515971055618,5898.37578504233
0.188,1.0180825324297842,5901.884318217667
0.192,1.0414312111176702,5890.287955668483
0.196,1.0535978972604403,5900.989504158013
0.2,1.0548415065427024,5908.014800480985
0.204,1.046216800615023,5901.492313364208
0.208,1.0292189519007138,5890.991148827021
0.212,1.0056695707918526,5905.79926078683
0.216,0.9777219070517413,5899.497468198592
0.22,0.9477213383688509,5904.056970057752
0.224,0.9178028371608152,5894.564096155344
0.228,0.8893824403067483,5896.767652278956
0.232,0.8628370330734345,5889.749735225174
0.236,0.837627198527029,5909.71439052079
0.24,0.8129673934848067,5901.908554908368
0.244,0.7888635415512799,5890.911536217581
0.248,0.7669828851616811,5896.671446252112
0.252,0.7506915320783899,5900.350978857576
0.256,0.7439662846288453,5894.617773053433
0.26,0.7496325233515136,5894.989411200681
0.264,0.7679402339192687,5904.257307501566
0.268,0.7963413893591688,5909.542731220166
0.272,0.8305622542094687,5903.1372702706085
0.276,0.8663274438571388,5890.011926272622
0.28,0.9008904623895999,5902.902452638536
0.284,0.9337764890320243,5895.197383783535
0.288,0.9665181494615721,5903.670434792485
0.292,1.0015138516615945,5899.910737929478
0.296,1.0404363328730195,5901.810304371626
0.3,1.0827678206001619,5899.330545256533
0.304,1.1249585116768968,5905.090885335223
0.308,1.1604928378959218,5897.76074785046
0.312,1.1809590915668173,5893.585005886158
0.316,1.1780585859872974,5897.221761692892
0.32,1.1462201306641813,5891.735548647796
0.324,1.0850820683052151,5907.265295092269
0.328,1.0008566510282233,5900.078358891487
0.332,0.9058262432428429,5899.646608069976
0.336,0.815895890039855,5902.0431508503925
0.34,0.7468834647165206,5898.359339112286
0.344,0.7106982810812162,5898.163822887283
0.348,0.7125468556316856,5898.577312182638
0.352,0.7498775396694294,5913.907163908725
0.356,0.8132155461813428,5898.723723796522
0.36,0.888603532168589,5903.015863613126
0.364,0.9610657525588086,5898.500374644653
0.368,1.0182288353650943,5901.734184942492
0.372,1.0530496861426264,5901.689068142346
0.376,1.0648341555254528,5895.018880030029
0.38,1.0584024890752075,5896.332762028084
0.384,1.0419420756589737,5903.025861497825
0.388,1.024403616859128,5902.973737553194
0.392,1.0132259994707669,5900.640197311996
0.396,1.0128905783723008,5892.80568766497
0.4,1.0244786864235234,5894.224037766194
0.404,1.0461299832048991,5902.090088213045
0.408,1.0740736492138794,5905.09623477489
0.412,1.1037581856466196,5905.820005752592
0.416,1.1306554920677658,5902.1482428042855
0.42,1.1506062326025683,5885.663730882192
0.424,1.1599570471848093,5902.587596466947
0.428,1.1559477335441726,5900.277852809562
0.432,1.137617977585802,5896.94531772348
0.436,1.1069473373034024,5906.648674646746
0.44,1.0694181634846796,5912.926637575039
0.444,1.0332178374799867,5901.722587262541
0.448,1.0069719601777773,5912.760381647752
0.452,0.9967543289330065,5898.603656984261
0.456,1.0036068914980576,5896.722897855522
0.46,1.0227224441705511,5898.900482473638
0.464,1.044851897889824,5900.123633672814
0.468,1.0595742212914747,5903.076397141108
0.472,1.0591926736436053,5891.205670826692
0.476,1.0416835131049451,5905.5159040106655
0.48,1.0115211231397838,5902.637082355923
0.484,0.978076501901034,5901.581392897056
0.488,0.9521914944249108,5902.674373178544
0.492,0.9421473725605679,5903.574651724017
0.496,0.9504337572913475,5907.031089030704
0.5,0.9724691170719831,5888.185465543079
0.504,0.9977893479092638,5901.962153215988
0.508,1.0133579929892214,5903.0847020539
0.512,1.007874798250376,5902.6374618159625
0.516,0.975632184547428,5885.291742281489
0.52,0.9186831213529282,5902.277713744884
0.524,0.8466329935717738,5903.000044510382
0.528,0.7740795985117797,5904.622918021149
0.532,0.7165056881975291,5892.133997691783
0.536,0.6860137497884101,5909.08676949848
0.54,0.688331936376305,5895.956450728471
0.544,0.7219458600130292,5895.371686637618
0.548,0.7793494892456203,5903.769590102219
0.552,0.8497132386222044,5892.644748231756
0.556,0.9219809987973222,5905.867049618439
0.56,0.9874718950119232,5903.50832667679
0.5640000000000001,1.0413259433360862,5895.225849823613
0.5680000000000001,1.0825443757728113,5894.455062052535
0.5720000000000001,1.1128781474040161,5905.511771859895
0.5760000000000001,1.1351790932665164,5907.160932831767
0.58,1.1518453597458755,5904.055933446748
0.584,1.1638066410028631,5901.334551092829
0.588,1.1703446116002438,5901.020279277437
0.592,1.1698405102125937,5903.894699232941
0.596,1.161123696291726,5904.610403598731
0.6,1.144708486834794,5909.3267774931455
0.604,1.1232434660757638,5903.398912417359
0.608,1.1009476165252963,5902.445132318105
0.612,1.0823216174791077,5907.438717600428
0.616,1.070707214549712,5896.727486158759
0.62,1.06724722648532,5894.9698034909325
0.624,1.0705774983014127,5910.234243712988
0.628,1.0773161890699814,5895.062582110949
0.632,1.0831749911791224,5903.765865459485
0.636,1.0843045965501574,5897.830460130537
0.64,1.0783730124594444,5901.626567573884
0.644,1.0650011545936158,5899.852640075103
0.648,1.0455524742193854,5907.385634335606
0.652,1.0226188376247818,5896.040757703519
0.656,0.9995405875637086,5900.606711373135
0.66,0.9799717235894455,5902.8588134260135
0.664,0.9672459057922237,5892.786291969395
0.668,0.9634368644974527,5913.083007927726
0.672,0.9684145874966833,5895.828060125798
0.676,0.9794572362591313,5901.028145883497
0.68,0.9918262068915582,5908.034402010437
0.684,1.0002319792011771,5899.189301648211
0.6880000000000001,1.0006072163686863,5893.924602669553
0.6920000000000001,0.9914214743311137,5901.000831994636
0.6960000000000001,0.9741074018406971,5897.950905652702
0.7000000000000001,0.9527304447515438,5889.139924199747
0.704,0.9332598579827338,5902.220848054433
0.708,0.9225562030758763,5900.125056244776
0.712,0.9269504597873969,5896.731820659861
0.716,0.9504551532696354,5893.326170920509
0.72,0.9930522863069182,5903.839765737964
0.724,1.0497274354349717,5899.462588502681
0.728,1.1107939815829677,5896.471059388644
0.732,1.1636606179067448,5899.313227341192
0.736,1.1956853898277184,5895.215404508404
0.74,1.1973475452997813,5891.082546458
0.744,1.1648572046422159,5902.362346292254
0.748,1.1014823862622793,5902.633091682584
0.752,1.017162556379202,5898.4352997254255
0.756,0.926407594994187,5901.853678320864
0.76,0.8450477537034288,5904.442962242572
0.764,0.7868198771059098,5908.568529412193
0.768,0.7607290768643857,5894.278420026322
0.772,0.7696961683648311,5898.933307363494
0.776,0.8105536231684707,5896.660323616417
0.78,0.8751639758428559,5903.490429841403
0.784,0.9522647055308451,5903.9086451062885
0.788,1.0295965789039185,5889.936248390197
0.792,1.0959565892784242,5905.821075692876
0.796,1.1429271686249463,5904.091548623347
0.8,1.166086577783106,5901.037224832085
0.804,1.1655256219053538,5896.737719734387
0.808,1.1455166416522906,5897.7477417514665
0.812,1.1132489303391235,5896.709685649676
0.8160000000000001,1.0767852441529058,5897.246304499238
0.8200000000000001,1.0428213327788336,5900.027004104846
0.8240000000000001,1.015141271264671,5899.620473186323
0.8280000000000001,0.99447139206331,5901.843194950315
0.8320000000000001,0.9797286757323914,5902.947550657892
0.836,0.9698848565107513,5890.535883568095
0.84,0.9653705998690485,5901.608259599976
0.844,0.9682911810175044,5907.203720703437
0.848,0.9814041309571636,5896.2838559733045
0.852,1.0063846807604966,5914.77677681885
0.856,1.0421633031060056,5902.560728993662
0.86,1.0840792205013443,5896.341886142996
0.864,1.1243369870779163,5893.874915028591
0.868,1.1538215662855704,5904.1558582985535
0.872,1.1647681078638221,5896.861661329174
0.876,1.1532989601531072,5910.915231868711
0.88,1.1207680404835443,5908.169205521725
0.884,1.0733370283600667,5900.985619991729
0.888,1.0199797366786942,5892.146309584194
0.892,0.969729643647763,5900.273753519403
0.896,0.9292259251612165,5907.807989158102
0.9,0.9014682678905092,5904.4452494421785
0.904,0.8861643202212758,5894.222623287565
0.908,0.881261713500287,5900.081297613747
0.912,0.8846380585013591,5894.336324828158
0.916,0.8949777331756542,5895.313245943479
0.92,0.9115934563577767,5903.201668323864
0.924,0.933756457680037,5903.043911215142
0.928,0.960343010409817,5906.673169002835
0.932,0.9901614064433896,5903.756478477258
0.936,1.022605316108219,5896.171814302321
0.94,1.0578766441479392,5897.897381540839
0.944,1.09626959469482,5903.80255725501
0.948,1.1367395520752255,5899.345746145364
0.952,1.1756544746446105,5902.386438179942
0.956,1.206726363200606,5894.973659177809
0.96,1.2225218574494583,5898.155365674226
0.964,1.2170543461686383,5899.425812795274
0.968,1.1883825747303987,5901.841133982457
0.972,1.1401656088334864,5893.938275206962
0.976,1.0815586620870543,5897.400244390097
0.98,1.0253683217507075,5890.464708649145
0.984,0.9848693787164958,5911.732168041765
0.988,0.9701042102889077,5899.336744711864
0.992,0.9848004655659657,5906.644299062911
0.996,1.0250399424737113,5899.993289532551
1.0,1.0802555020057307,5908.821389694835
1.004,1.1362097577619759,5903.964010561983
1.008,1.178906180076334,5902.274202389365
1.012,1.1982418433498416,5905.451858151702
1.016,1.1904505368739893,5908.947922421253
1.02,1.1587361460842087,5895.250688928729
1.024,1.1119395087387587,5903.603453282761
1.028,1.0616737577240172,5898.411824424942
1.032,1.018932654865091,5892.078863198615
1.036,0.9913569876085138,5905.623167388938
1.04,0.9819562925406055,5894.515523316949
1.044,0.9893708088892114,5901.681135295352
1.048,1.0091703724995513,5894.949200443627
1.052,1.035501476433576,5902.74521168989
1.056,1.0625575332174075,5891.103025840243
1.06,1.085608318161524,5901.728508876596
1.064,1.1015001132526727,5897.615254797382
1.068,1.1086327500312543,5900.14072236011
1.072,1.1065051182103227,5903.996423387844
1.076,1.0950171176830101,5901.464296147843
1.08,1.0738132755391732,5901.362715545652
1.084,1.042012832432641,5900.834008764821
1.088,0.9985925586028123,5903.101869427384
1.092,0.9434081803456934,5890.7176326341305
1.096,0.8784733701267038,5896.718808353371
1.1,0.8088894898710133,5895.8136156028295
1.104,0.7428558896203842,5902.761555799612
1.108,0.690454419599437,5902.151010767398
1.112,0.6613369833242084,5902.380503468898
1.116,0.6619616358865479,5902.016531444477
1.12,0.6933729317412811,5903.961323399561
1.124,0.750438291793507,5912.491074013537
1.128,0.8229405298213921,5896.558566500893
1.132,0.898264184830416,5891.042441101288
1.136,0.9648542664961777,5896.317129443987
1.14,1.0152892314548896,5901.614868549301
1.144,1.0478557680606864,5906.785991922457
1.148,1.0660883791306965,5906.022054819012
1.152,1.076615429374146,5897.259945799629
1.156,1.0863042177433442,5897.660978857052
1.16,1.0998140136727528,5904.0838746264335
1.164,1.11833067036157,5899.705442390646
1.168,1.1396977499083019,5900.778721906306
1.172,1.1596208994591701,5898.744295655308
1.176,1.173310548494713,5905.117720549094
1.18,1.176921553155947,5905.1023731331
1.184,1.1683986047354702,5895.739183251571
1.188,1.147684954341301,5907.393537964526
1.192,1.116474886852153,5903.991478749532
1.196,1.0776901057972785,5898.275833402019
1.2,1.0347728907348654,5890.551890475467
1.204,0.9909003025925035,5892.772059147315
1.208,0.948354317361248,5908.117667149307
1.212,0.9083721961531839,5901.843919366029
1.216,0.8716609612914029,5902.9902823257335
1.22,0.8393903986220279,5899.658241609137
1.224,0.8141226888794417,5899.331505919035
1.228,0.8000525878720819,5900.649223230148
1.232,0.802199027004462,5901.727430017868
1.236,0.8247008637891196,5903.21049592501
1.24,0.8688422103615138,5906.161269802166
1.244,0.9315544527985595,5904.148167668559
1.248,1.0049232086075701,5896.148283955411
1.252,1.076955543804162,5903.438605802878
1.256,1.1336350747743567,5897.479601604789
1.26,1.1619861060035088,5902.421035172798
1.264,1.1534940140087375,5900.531982087986
1.268,1.1069643885719758,5895.4061708001045
1.272,1.029888737990037,5897.040564544596
1.276,0.9376742428959152,5892.156562772402
1.28,0.8506570138908768,5893.7757075547615
1.284,0.7895054693825958,5900.890814695364
1.288,0.7701963806880378,5895.503063319378
1.292,0.7999816299600697,5894.172955604513
1.296,0.8755418354814564,5904.219342126605
1.3,0.9838732953535151,5900.464297201477
1.304,1.1055700705575269,5906.142580848373
1.308,1.2194003330343028,5895.677584716165
1.312,1.3067939743542045,5899.630109464664
1.316,1.3551641598448048,5898.9500342410565
1.32,1.3596135262056295,5907.321119761792
1.324,1.3230635970393465,5898.791469440987
1.328,1.2549951287522665,5899.662042300883
1.332,1.1690531150565864,5895.307789152942
1.336,1.0799966416780729,5906.456033191712
1.34,1.0007052511800414,5903.820610208619
1.344,0.9399308468211013,5906.411293823459
1.348,0.9012042162673447,5896.348217100158
1.352,0.8829563559832515,5905.929864853983
1.356,0.8796876827598644,5902.044506447583
1.36,0.8839356047071141,5907.499578751149
1.364,0.8886502394320278,5909.536174716221
1.368,0.8892901162894804,5896.195204300967
1.372,0.8848022442218756,5902.397845062714
1.376,0.8770229424354581,5903.026100008015
1.38,0.8688368559954428,5898.272779790216
1.384,0.8621526021860132,5899.81835523669
1.388,0.8568754830959361,5897.102044935845
1.392,0.8514334079373654,5891.1940616824895
1.396,0.8444439707483671,5897.641520387526
1.4,0.8364571078033894,5909.962518693952
1.404,0.8307302599668286,5894.903535876738
1.408,0.832567907358973,5889.525157615598
1.412,0.8474907117464485,5902.695131688228
1.416,0.8790014457618145,5905.557964952194
1.42,0.9268212100911735,5889.563568328724
1.424,0.9862751961374426,5901.65797158419
1.428,1.0491540667091317,5897.082039874404
1.432,1.105894629716433,5892.376750831346
1.436,1.1483562539707015,5895.000253532435
1.44,1.1720779261418692,5893.65435436625
1.444,1.1770447621213203,5901.010728339528
1.448,1.1667210144177427,5905.910210267204
1.452,1.1459940835435531,5903.539051804421
1.456,1.119160420058486,5908.95518108438
1.46,1.0889076902639994,5908.958153305348
1.464,1.05657018761238,5905.824710231662
1.468,1.0231979519918655,5902.749867579199
1.472,0.9906402511237516,5900.446150283156
1.476,0.962042896226005,5895.5610381965525
1.48,0.9416148373036088,5909.275356421709
1.484,0.9338638679686098,5895.813539903152
1.488,0.9426113339016884,5891.554981682114
1.492,0.9700335016858541,5892.047944577801
1.496,1.0158762261960899,5897.940721000009
1.5,1.077004139336547,5899.069244621922
1.504,1.1475375717924219,5905.334229802581
1.508,1.2197434119475083,5896.306636733493
1.512,1.2854959726869593,5897.226915847461
1.516,1.3377917725838686,5905.622168664472
1.52,1.3717929498075814,5900.929084173103
1.524,1.3851660019056369,5897.074182408207
1.528,1.3778139254344988,5894.573994268403
1.532,1.3512753596344835,5904.244524057901
1.536,1.3080714749728912,5900.371350567612
1.54,1.2512003979872632,5899.659093085446
1.544,1.1839005388002997,5895.743588428189
1.548,1.109754484624055,5904.330718442473
1.552,1.0330831357354573,5903.240518672306
1.556,0.9593188226438053,5907.233068503054
1.56,0.8948594182356803,5896.588338438083
1.564,0.8461044408300694,5896.118829180269
1.568,0.8178984539869311,5904.969370896356
1.572,0.8120276498583582,5899.305449737621
1.576,0.8264368191313732,5894.465884678995
1.58,0.8555302651598374,5900.708061200261
1.584,0.891506807967673,5895.956649177772
1.588,0.9263133204892614,5900.919467707341
1.592,0.9536032634070247,5888.975813951621
1.596,0.9701408348273187,5886.671090929679
1.6,0.9763469571600722,5901.113749223474
1.604,0.9759445739198223,5911.36371955557
1.608,0.9747879279153195,5894.914280018909
1.612,0.979043213374244,5912.120702193507
1.616,0.993081992149864,5899.649388730069
1.62,1.0177089360328413,5888.182125976899
1.624,1.049460487589985,5901.285707561243
1.628,1.0814789878380642,5908.394294776868
1.632,1.105825774893352,5899.559816884677
1.636,1.1163276753012528,5904.37510530043
1.64,1.1107184218497033,5898.070730271857
1.644,1.0912193900705405,5906.3015953321765
1.648,1.063483556453674,5898.399400052944
1.652,1.03450095102181,5897.306429664919
1.656,1.010373356049798,5895.814373358912
1.66,0.99476415309429,5894.646914390811
1.664,0.9884126717591156,5903.195308471474
1.668,0.9896215073807282,5904.741785197555
1.672,0.9953083181461284,5899.438523891813
1.676,1.0021109215643766,5890.494354820538
1.68,1.0071289502860883,5906.224192662906
1.684,1.0081394538383128,5892.427376907003
1.688,1.0034013735300762,5901.880851438322
1.692,0.9913517545899057,5901.385603703116
1.696,0.9705755057081284,5907.385053025498
1.7,0.9403142699066119,5895.217901191911
1.704,0.9014165759392776,5902.731418051402
1.708,0.8572408655326071,5894.23106586714
1.712,0.8139004706184624,5900.685738874447
1.716,0.779455673115788,5902.183941857491
1.72,0.7620932118018225,5900.390448683261
1.724,0.767796896741103,5896.541617783353
1.728,0.7983076021175616,5897.257209030063
1.732,0.8501671723053398,5899.017411103433
1.736,0.9152969602754749,5910.336532838883
1.74,0.9829691265514785,5897.882341171621
1.744,1.0424652232068459,5904.918462571375
1.748,1.085504719501691,5891.756726010194
1.752,1.1077730425058006,5903.03714793342
1.756,1.1093613418523485,5894.509275108378
1.76,1.0942770869646379,5898.15607843535
1.764,1.0692517792109857,5902.355642935043
1.768,1.0420570043699706,5901.870861491602
1.772,1.0196450346694632,5898.963795383214
1.776,1.0065809356998878,5899.671659872648
1.78,1.004214200480998,5902.54162918669
1.784,1.0107824226021551,5900.139615731494
1.788,1.022314383415553,5895.4442618383255
1.792,1.0340082402753075,5901.945249937798
1.796,1.0417303988025228,5901.772989466915
1.8,1.0433136086992578,5905.443070439509
1.804,1.0393411131607517,5901.299391666323
1.808,1.0330738333998033,5902.5924634118455
1.812,1.0292646075640044,5905.023046960686
1.816,1.0320354112011068,5909.599973366382
1.82,1.0426441219629194,5908.946112728623
1.824,1.0582738991805858,5909.166468018124
1.828,1.0725661939898923,5909.255339263275
1.832,1.0777519397079682,5897.184612495537
1.836,1.0674791308687528,5897.850691348054
1.84,1.0391732860321878,5899.427453292932
1.844,0.9950759632241241,5900.760882037211
1.848,0.9417453448001784,5901.105252339879
1.852,0.8883547922119139,5898.219621663378
1.856,0.8443659807970761,5892.109957318129
