时间(s),电压(V),幅值(高频80K)
0.0,1.2768844958206307,5897.20578547449
0.004,1.1553836962036665,5901.719357198002
0.008,1.0494804045738666,5899.076323433189
0.012,0.9708392442681394,5899.076745025645
0.016,0.9247991319903008,5889.960361254535
0.02,0.9092378280297837,5887.761077018466
0.024,0.9156200071299199,5893.727293282546
0.028,0.932136193366142,5901.369080649348
0.032,0.9477653802745094,5896.541294025819
0.036,0.9556068670145262,5901.050024100095
0.04,0.954377669616702,5905.008117535708
0.044,0.9479999408920536,5905.65598007704
0.048,0.943817276649256,5904.454545736252
0.052,0.949982696994852,5897.027102519731
0.056,0.9725194454122134,5895.615348659887
0.06,1.0128327116144173,5899.601915068893
0.064,1.0666219905503411,5900.766028082635
0.068,1.1247041103413031,5892.545642654605
0.072,1.175438793858061,5899.870382764189
0.076,1.2078649663724879,5901.346146296783
0.08,1.2145387925717692,5904.591506684764
0.084,1.1932716965270045,5902.405476689672
0.088,1.1473484775844194,5900.753940734402
0.092,1.084261552082928,5896.218560959561
0.096,1.0134533983683127,5901.865185520259
0.1,0.9439311562897967,5898.176850805689
0.104,0.8826673772439998,5896.246175403075
0.108,0.8342307336698757,5898.287288446943
0.112,0.8013691009166523,5895.683158291746
0.116,0.7858596588855341,5895.025305948015
0.12,0.789056130824019,5904.252815681363
0.124,0.8119029657996683,5897.40044876097
0.128,0.8544241365688053,5894.116320744432
0.132,0.9148437971276764,5896.47107293506
0.136,0.9887255789208197,5908.530454597554
0.14,1.0687423503256774,5905.874666727778
0.144,1.1455639935941881,5892.937351640789
0.148,1.209762070173201,5895.612757849281
0.152,1.2539871209594817,5899.293758868475
0.156,1.2745104893467494,5890.696862502527
0.16,1.2716216433286076,5907.726839326172
0.164,1.2489622953525372,5899.654997151978
0.168,1.2122723884648383,5901.949232484789
0.172,1.168082621565376,5895.410062083571
0.176,1.122686258949129,5896.685436808169
0.18,1.0814478451888576,5890.607578893723
0.184,1.0483355643109535,5896.634978453863
0.188,1.0255438744400385,5903.04124050529
0.192,1.0131750876573509,5891.991602707582
0.196,1.0091371532913793,5905.91884889604
0.2,1.009559515065091,5904.881163804569
0.204,1.0099094626858185,5902.321823764545
0.208,1.0065509492963347,5897.885307989151
0.212,0.9980438114882079,5897.586158260265
0.216,0.9855013869671547,5898.625693050044
0.22,0.9718721069321575,5900.53194108992
0.224,0.9605980847767537,5901.146811204884
0.228,0.9542577430866682,5898.9394591777855
0.232,0.9535774246427802,5902.843417421288
0.236,0.9569927252351823,5895.544603141586
0.24,0.9609279742075948,5898.790080982313
0.244,0.9609230708692046,5901.307007135316
0.248,0.9534412312479341,5901.243926827218
0.252,0.9377500011655621,5903.403814810565
0.256,0.9170185357501603,5905.588264910199
0.26,0.8979629231329266,5902.66188533255
0.264,0.8889598722644951,5899.966936567098
0.268,0.8972310257309086,5899.192371257877
0.272,0.9261297142850651,5898.776056644707
0.276,0.9735546092747607,5910.960266640514
0.28,1.0320520402325735,5899.687908014538
0.284,1.0904531581616919,5903.744660534529
0.288,1.1363797706973562,5893.166461960253
0.292,1.1589546524486156,5897.824429261662
0.296,1.151322565078307,5900.287746668511
0.3,1.112649322371519,5900.652162468486
0.304,1.0490605511193232,5895.995379097031
0.308,0.9729240057196631,5904.82549901753
0.312,0.9003121259226973,5892.001899339114
0.316,0.8472383705001519,5903.350202714724
0.32,0.8257950225858078,5904.179398265144
0.324,0.8412700512984642,5896.430295807029
0.328,0.8908741584648592,5899.703962892323
0.332,0.9642818148144563,5905.805957556106
0.336,1.045890439051388,5907.45812053682
0.34,1.1183707023807146,5903.847076939297
0.344,1.1666891671723305,5905.007232858549
0.348,1.181525469281512,5900.175560866525
0.352,1.161119580628848,5895.289663880622
0.356,1.1111416623553307,5901.301994095687
0.36,1.0428794652470958,5901.626154502676
0.364,0.9704131595305239,5910.537262601423
0.368,0.9074239178895644,5902.128599264635
0.372,0.864221315602258,5902.288586438472
0.376,0.8456328914414484,5895.646612378656
0.38,0.8503395507317353,5888.92972274696
0.384,0.8718834563660258,5900.800476309199
0.388,0.9010416643329033,5901.526350095509
0.392,0.9288120119533507,5902.44465842997
0.396,0.9490928996178357,5902.472100360524
0.4,0.9602585961539901,5901.551339250253
0.404,0.965129685507092,5895.41450566379
0.408,0.9692957815373325,5894.069094065857
0.412,0.9783607117122328,5895.374255323906
0.416,0.9952084633508942,5896.833563710534
0.42,1.0184406758420277,5904.558602778408
0.424,1.042586235588552,5909.434998895683
0.428,1.0598717513884397,5898.488163260095
0.432,1.0627738285074886,5906.4597233639
0.436,1.046450685929682,5898.791409043138
0.44,1.010328490995462,5894.507095844113
0.444,0.9584384578043277,5895.146323464419
0.448,0.8984967372843153,5897.607918436223
0.452,0.8400672046259029,5897.103059266216
0.456,0.7923083578473584,5894.231650237054
0.46,0.7618267353257714,5906.2929932578645
0.464,0.7511971075604619,5909.637788359366
0.468,0.7586826116330944,5901.523776415677
0.472,0.7793202681932172,5906.484092401267
0.476,0.8069038386416135,5898.227548848875
0.48,0.8359972880822627,5888.504535579719
0.484,0.8632295728506509,5897.235350165856
0.488,0.8875467607572234,5907.170330438238
0.492,0.9095345898301154,5901.652153546801
0.496,0.9302286949194365,5901.723995662865
0.5,0.9499507184835169,5903.198744106466
0.504,0.9676680135617751,5896.170709762053
0.508,0.9811805702048033,5896.709855637986
0.512,0.9880789614142065,5901.534386179421
0.516,0.9870352770504933,5896.052068409372
0.52,0.9788160731096213,5894.624035183188
0.524,0.966507833316327,5898.87261873575
0.528,0.9547352102804777,5899.739880289339
0.532,0.9480407313091708,5896.088157053119
0.536,0.9490101088817631,5892.389636394189
0.54,0.9570260473520688,5896.2278391857935
0.544,0.9684346684645952,5902.820824600862
0.548,0.9782489418723828,5904.125671095306
0.552,0.9826279032760611,5895.539675906909
0.556,0.9808935748842416,5907.393796391203
0.56,0.9760915731789575,5892.149989691027
0.5640000000000001,0.9738537567930612,5897.428093055515
0.5680000000000001,0.9801233711362575,5898.911848145363
0.5720000000000001,0.998740148550659,5900.532524677859
0.5760000000000001,1.0297757780898504,5900.435465549995
0.58,1.0690316020324218,5906.477697461523
0.584,1.1086551291450466,5896.840387385557
0.588,1.1386497725235467,5891.347119687968
0.592,1.1490464385357606,5898.436984509402
0.596,1.1324371131408801,5902.148858529153
0.6,1.086362557219173,5902.672086115216
0.604,1.0148499722129067,5896.136737765276
0.608,0.9284338599950732,5897.373014353221
0.612,0.8423672468152446,5901.984014359654
0.616,0.7733311040443698,5906.453646632597
0.62,0.7354895111527257,5884.267528728906
0.624,0.7369579575493208,5900.597732475061
0.628,0.7776435377305211,5908.825120164353
0.632,0.8491188108461699,5892.485945437919
0.636,0.9367181005629982,5909.34453984893
0.64,1.0233510106142212,5905.78946607832
0.644,1.093836772021154,5902.409771385113
0.648,1.138321887181115,5888.536156522428
0.652,1.1537664382275634,5895.818200015836
0.656,1.1433302795761433,5902.064429207971
0.66,1.1142967586757033,5892.845971361345
0.664,1.0755512442351585,5892.240542966078
0.668,1.0354624027783976,5907.973670010584
0.672,1.0005263908042128,5907.771235365468
0.676,0.9747235004984405,5902.081076703169
0.68,0.9594346173455885,5901.7046170378135
0.684,0.9538945672882989,5901.803245697252
0.6880000000000001,0.9562071237247299,5900.993339712392
0.6920000000000001,0.9646839327023774,5896.509480250772
0.6960000000000001,0.9789264741953285,5904.728779309876
0.7000000000000001,1.00009928036241,5900.443092307774
0.704,1.0302718062312817,5898.331914058265
0.708,1.0711239958441612,5905.390253951067
0.712,1.1224730458888483,5896.18626512691
0.716,1.1811165904484748,5905.721677752023
0.72,1.2405232681305816,5900.607995062214
0.724,1.2918021380887275,5897.235417148603
0.728,1.325959233812837,5895.742754293371
0.732,1.3367831740966545,5894.737508468952
0.736,1.3231970098418517,5905.875265224417
0.74,1.2899713511780413,5898.151119257008
0.744,1.2463401329994832,5901.014206838381
0.748,1.2029584270607199,5902.325741381157
0.752,1.1683562286421791,5901.944333634047
0.756,1.1462422813416469,5899.497200400118
0.76,1.1346360034574776,5909.90718581347
0.764,1.127083443552876,5903.580389102045
0.768,1.1154470684963205,5903.569710617784
0.772,1.0931975245445111,5906.081942831589
0.776,1.0579914347057664,5895.176799593134
0.78,1.012648747808886,5900.375601446492
0.784,0.9642655230343539,5895.3096344622845
0.788,0.9218565377441926,5898.349715065084
0.792,0.893416300712393,5903.143499002735
0.796,0.8834637719742168,5897.518766836443
0.8,0.8919100825295958,5897.520249969215
0.804,0.914522158719992,5895.556698623947
0.808,0.9445905896883778,5899.194041698192
0.812,0.9749765636357652,5903.234281224477
0.8160000000000001,0.9997280017695134,5901.913877193555
0.8200000000000001,1.0148674823878554,5891.755477385591
0.8240000000000001,1.0184765579461088,5902.1956227113615
0.8280000000000001,1.0105145022860826,5900.781792902417
0.8320000000000001,0.9927498781269978,5899.082183925347
0.836,0.9688150222722264,5890.620160202043
0.84,0.9440264439605114,5902.2769912563945
0.844,0.924602656147949,5897.885315538486
0.848,0.9162729272672896,5899.970946435795
0.852,0.9226853810893904,5903.852867785738
0.856,0.9442196330641205,5893.974880874356
0.86,0.9777148328128689,5898.698115343679
0.864,1.0172903417356383,5901.380422429822
0.868,1.0560274238919805,5894.347706487425
0.872,1.087954002626382,5895.064104807509
0.876,1.1095911076674676,5896.786299204399
0.88,1.12041052827099,5902.942486150171
0.884,1.1220797674051595,5896.604940341423
0.888,1.1170932710924348,5899.874401924855
0.892,1.1076816682958301,5903.939700854312
0.896,1.095490611679449,5899.304005075586
0.9,1.0818901588042178,5897.689946914471
0.904,1.068463089609495,5900.035389787803
0.908,1.057274595351455,5888.944923113999
0.912,1.0507259541245486,5897.452710879399
0.916,1.0510268169377484,5908.547587249287
0.92,1.0595283696510545,5891.431069011042
0.924,1.076234482688119,5901.084491047204
0.928,1.099709642024642,5887.7445449542565
0.932,1.1274361663159798,5896.602249856762
0.936,1.1565325960377435,5896.055670556821
0.94,1.184603540108591,5902.017984421542
0.944,1.2103478604347495,5896.877469766908
0.948,1.2335500293050967,5900.893522766286
0.952,1.254342569977079,5892.002668158901
0.956,1.2720468031192407,5900.950291728305
0.96,1.2842018476295387,5905.763738626603
0.964,1.2863979220412056,5904.070435813079
0.968,1.2732372355821564,5907.107546592518
0.972,1.2402329433476906,5901.983710640595
0.976,1.1859171504329422,5911.51040265349
0.98,1.1132223910069552,5888.461423310753
0.984,1.0295383871529746,5903.627015633787
0.988,0.9454636990456805,5893.268825677807
0.992,0.8727182624352754,5895.100862808798
0.996,0.821796796988212,5886.549912358709
1.0,0.7998357758853467,5909.789917161953
1.004,0.8089954396261794,5902.7829004189325
1.008,0.8455809964137373,5904.1330541602
1.012,0.9002063330260052,5899.962765537423
1.016,0.9593448039557879,5902.980550757311
1.02,1.0083011243971238,5910.487276306953
1.024,1.0349697317012785,5903.797266529364
1.028,1.0331752430662169,5905.028274150444
1.032,1.0043896185196568,5900.127535164957
1.036,0.9571734499145791,5904.236989712324
1.04,0.9044440455102091,5899.570282963383
1.044,0.8593939505153374,5902.998162654808
1.048,0.8314418803699903,5900.334195440276
1.052,0.823712730440101,5893.496161287168
1.056,0.8329655542359427,5899.117491853025
1.06,0.8518216675100686,5905.7337786158205
1.064,0.8721784634550945,5905.538591893458
1.068,0.8883186685128518,5900.242931843007
1.072,0.8985327645255279,5908.831294397005
1.076,0.9048248375136431,5894.977216443411
1.08,0.9110890067750349,5897.676820467355
1.084,0.9206764160478232,5900.053266739244
1.088,0.9343667313761534,5898.6328203223065
1.092,0.9494918610829185,5901.27447499069
1.096,0.9604997822580832,5902.9630436747775
1.1,0.9607417637646917,5902.332644922163
1.104,0.94485532371608,5900.438951325183
1.108,0.910898217002191,5901.312980242778
1.112,0.8614408339294597,5899.63431054174
1.116,0.8032174316185582,5895.068213068728
1.12,0.745554698902272,5899.974353784666
1.124,0.6982500681999945,5898.251938649289
1.128,0.6695704845062194,5899.52714740535
1.132,0.66474483397196,5898.76834476475
1.136,0.6851097951718631,5907.309942819739
1.14,0.7280421004555083,5896.807382838866
1.144,0.7877454367272335,5906.981777904935
1.148,0.8567181288725105,5903.818202893891
1.152,0.927443215619384,5900.855865973291
1.156,0.9937022869682238,5898.304725769372
1.16,1.0510377669817703,5904.632836100975
1.164,1.0963369682794375,5902.532864775769
1.168,1.1270911294857613,5898.848786445164
1.172,1.1411069428603515,5904.5249154564
1.176,1.1370370670042576,5904.993797076829
1.18,1.1153761643056628,5896.688956300032
1.184,1.0791501765143123,5896.013677084677
1.188,1.0337125189152332,5903.261986935577
1.192,0.985663063906688,5901.598071448292
1.196,0.9414549977130868,5889.704489234612
1.2,0.9063457615352731,5904.516652887157
1.204,0.8839597617556448,5891.756510303183
1.208,0.876255831794791,5898.931716023627
1.212,0.8835429875227978,5899.671716468436
1.216,0.9043753360634318,5902.668870919395
1.22,0.9353906024004884,5906.631660867966
1.224,0.971274201756909,5907.817636056793
1.228,1.005081572105816,5908.310797395589
1.232,1.0291248300403009,5893.957476488936
1.236,1.036429152451579,5905.053949194893
1.24,1.0224385363101252,5890.079989921813
1.244,0.9864110924327084,5900.367372724207
1.248,0.9319626940524441,5908.161268194312
1.252,0.8664983135561569,5895.947350625434
1.256,0.7996685450258638,5897.649437933487
1.26,0.7413174194788255,5894.50117993167
1.264,0.6995207557471322,5906.256465135466
1.268,0.6792150296546133,5896.922783662071
1.272,0.6816322673125964,5899.196652023402
1.276,0.7044540088483728,5902.472807620376
1.28,0.7424863066769997,5898.679990654627
1.284,0.7887354412492427,5895.475015023198
1.288,0.8358028395278435,5904.084133350269
1.292,0.8774137874301065,5896.910841819982
1.296,0.9097810984585329,5905.995356129217
1.3,0.9324665756444586,5894.682002579006
1.304,0.9483950400967255,5900.176136143966
1.308,0.9627788920059801,5899.978253555114
1.312,0.9811165545756546,5893.865975077119
1.316,1.007001905999248,5904.9207116216085
1.32,1.040689393819153,5903.988935282549
1.324,1.078925304490174,5898.332818521032
1.328,1.115899641768596,5889.250206597475
1.332,1.1448582091785247,5900.571869973514
1.336,1.1599470587285776,5901.157521093237
1.34,1.1578753414778036,5904.0466032335735
1.344,1.1388989566367078,5895.024510442426
1.348,1.1067459486487834,5894.925388468621
1.352,1.0675335039142322,5901.779427548023
1.356,1.0281192449253287,5904.109223513759
1.36,0.9943986989425246,5896.784914497381
1.364,0.9699522463036482,5893.39812891869
1.368,0.9553456521520317,5896.314226410948
1.372,0.9482288090210232,5897.1542958908685
1.376,0.94414837095012,5900.364044826438
1.38,0.9378498928170294,5900.915134826974
1.384,0.9247826660872472,5901.944772564118
1.388,0.9023924468751476,5899.396998435028
1.392,0.8707072499122648,5909.6620712824215
1.396,0.8319762387944314,5891.416453718897
1.4,0.7896696552547366,5895.391779274204
1.404,0.7475279303196325,5896.915536246383
1.408,0.7092007887508706,5896.782386893152
1.412,0.678484575192985,5909.510233288303
1.416,0.6596835831721892,5900.872692748017
1.42,0.6574982885115657,5898.38311746034
1.424,0.676102635359475,5903.966688345623
1.428,0.7175376332364367,5900.122477570261
1.432,0.7800171624065448,5896.799661706347
1.436,0.857028770152937,5905.576504089949
1.44,0.9379709831044687,5892.419232788369
1.444,1.0103876603942306,5896.331794189574
1.448,1.0630064763256446,5895.487026439912
1.452,1.0883922551471927,5901.3010381264685
1.456,1.084330508082195,5893.727823545952
1.46,1.0537284738773811,5902.638186428839
1.464,1.0033676642138831,5905.653536771432
1.468,0.9420421400626886,5895.752818998545
1.472,0.878587814104175,5896.496544190862
1.476,0.820243071135805,5899.888481213455
1.48,0.7716827585031759,5897.57487377766
1.484,0.7348637473044027,5904.448269244688
1.488,0.7095809461509568,5898.296122927191
1.492,0.694435509658452,5893.130416018523
1.496,0.6877784612203632,5899.38965150009
1.5,0.6882521006556468,5901.978107307374
1.504,0.6948839802145577,5900.7002287327705
1.508,0.707000166561334,5895.08610103575
1.512,0.7241990531133398,5902.529606835562
1.516,0.7464008309144157,5898.059308587494
1.52,0.7738904060816527,5898.803466246338
1.524,0.8072946789642844,5910.008048960844
1.528,0.8473651691763914,5893.398224101593
1.532,0.8943736942461905,5898.187259879807
1.536,0.9471660176149413,5896.862251573046
1.54,1.0023483089275715,5897.725655542655
1.544,1.0542450615506098,5909.006229740963
1.548,1.095965705333163,5909.871687030211
1.552,1.1213496718389573,5899.164298135389
1.556,1.1270132678286657,5902.482059623046
1.56,1.1134857262437665,5897.565939747551
1.564,1.0847859010128817,5903.788860545961
1.568,1.0466999089953213,5900.218316654303
1.572,1.0048206988893431,5902.469165051401
1.576,0.9633865218804135,5911.891461268883
1.58,0.9251682267919314,5895.055749603258
1.584,0.8919073754971512,5898.553848022491
1.588,0.8647000001433884,5902.398563151996
1.592,0.8440859946099537,5901.165225107285
1.596,0.8299644819171809,5904.778743464784
1.6,0.8216237565207704,5903.36113699727
1.604,0.8181514215082414,5890.356169273613
1.608,0.8192136450142932,5891.5587127546905
1.612,0.8257532832992259,5899.869291660982
1.616,0.8399661748429693,5911.582531528798
1.62,0.8642895564221833,5897.075926300683
1.624,0.8998232435168002,5895.111269477245
1.628,0.9450021740589725,5894.338601154707
1.632,0.9951805926889753,5900.873679660316
1.636,1.0433426591214587,5900.217176375556
1.64,1.0817492139007314,5903.17186060486
1.644,1.1040101979045296,5905.837648351686
1.648,1.1068418896079955,5896.233000315974
1.652,1.09081926722624,5895.19585837187
1.656,1.0598778000251305,5901.334783029579
1.66,1.0199102259669666,5890.641872579994
1.664,0.9771428997444311,5896.414182473522
1.668,0.9368777933567569,5894.406198911772
1.672,0.9027875363276135,5900.576421675949
1.676,0.8766077184617804,5906.138906723852
1.68,0.8580813359667367,5906.02005606832
1.684,0.8452614728612439,5896.839934134107
1.688,0.8353339760309575,5906.849246330009
1.692,0.8257962376870456,5884.561273911506
1.696,0.8154435549032125,5904.4591893795705
1.7,0.8046186073773076,5896.573811951953
1.704,0.7946452980126816,5895.937978233636
1.708,0.7868999325317104,5903.696590624522
1.712,0.7821318871107834,5906.721683323386
1.716,0.7803900656031373,5893.467562249455
1.72,0.781480697569623,5901.179917285643
1.724,0.7855151857887419,5901.857006002552
1.728,0.7930396856243211,5897.381126288438
1.732,0.804582234097432,5892.910190865551
1.736,0.8199462248133175,5911.272845315546
1.74,0.837796238311599,5891.717460937789
1.744,0.8558888175878671,5907.454917789005
1.748,0.8718916833603876,5896.6479983151885
1.752,0.8843766568971207,5898.543649597756
1.756,0.8934549351412295,5909.191439452169
1.76,0.9007029873891406,5899.270382360667
1.764,0.9083868087232114,5908.468487185214
1.768,0.9183457322830492,5907.386235175969
1.772,0.9311057429637716,5903.945526689707
1.776,0.9457288923103004,5896.462204573228
1.78,0.9605017160475382,5890.095811987759
1.784,0.9740476899518721,5905.360487719857
1.788,0.9862480345153972,5900.074278806966
1.792,0.9985697073850853,5901.041660554527
1.796,1.0136721525629808,5901.363749631941
1.8,1.0342745020921769,5904.436361602753
1.804,1.061421359762925,5901.40009867656
1.808,1.0926793154616556,5896.825337393985
1.812,1.1212202895294323,5899.997601519366
1.816,1.136740734403759,5901.22908103694
1.82,1.1284469379703734,5895.184013081297
1.824,1.089211807137257,5906.858015201952
1.828,1.01923890633948,5885.730435371037
1.832,0.9276484780952797,5898.989753729415
1.836,0.8311725104317146,5897.561852845953
1.84,0.7501780930375238,5900.833972235474
1.844,0.7031714683401945,5905.262097958435
1.848,0.7014794951845832,5904.633524691456
1.852,0.7457802061088757,5898.134595880359
1.856,0.8255972326554878,5903.396766210251
