时间(s),电压(V),幅值(高频80K)
0.0,1.1728628924866866,5899.939165324824
0.004,1.1106428837410165,5912.135654087004
0.008,1.0543929295772272,5890.336566012658
0.012,1.009475204545745,5903.910467822511
0.016,0.9798115901782593,5900.609927379249
0.02,0.9671792589168577,5895.090454285276
0.024,0.9708487707890379,5895.356804714588
0.028,0.9877501479682663,5901.446950382957
0.032,1.013063187165571,5894.689247382533
0.036,1.0410504463447368,5892.431798955094
0.04,1.0660975658302223,5896.789918576595
0.044,1.0839191100356382,5903.501990736629
0.048,1.0925817541933158,5903.63185889282
0.052,1.0927882363166723,5902.89536967551
0.056,1.0871629044822486,5897.547837840077
0.06,1.0789034701551727,5890.929628300854
0.064,1.0705470840053812,5895.854529608027
0.068,1.063437499357368,5906.133358570332
0.072,1.0579783907541027,5896.365563888395
0.076,1.0543191183760534,5898.124030556812
0.08,1.0529703784968307,5909.465244822352
0.084,1.054970586763586,5906.75385461441
0.088,1.061495431792386,5901.359533649638
0.092,1.0730963145331627,5903.899055269294
0.096,1.088960574695303,5904.887951475726
0.1,1.1066163287302562,5899.282762839056
0.104,1.1223149497668534,5902.827041013787
0.108,1.1319958576392082,5902.991712560754
0.112,1.1324742553199307,5899.087740635964
0.116,1.1224504434053935,5888.644295403948
0.12,1.1030663865808534,5896.7528554720375
0.124,1.0778482609822637,5893.420465780461
0.128,1.0519293937826044,5900.473359055393
0.132,1.0306178153323902,5896.773886983052
0.136,1.017730426698824,5901.636243023412
0.14,1.0143835331480382,5894.775771305871
0.144,1.0187707317553094,5898.58596151523
0.148,1.026939367246903,5896.823430167191
0.152,1.0341145026726906,5904.323280682623
0.156,1.0360398279104448,5905.4283765416
0.16,1.030047591583321,5895.706936738791
0.164,1.0157913046504399,5902.360694697232
0.168,0.9955377935399836,5911.802003794191
0.172,0.973772788333426,5906.404974306291
0.176,0.9559872223977465,5904.772348623189
0.18,0.9469649802846652,5904.523334199061
0.184,0.9493133425935851,5901.732908063798
0.188,0.9629132330671925,5906.955281992621
0.192,0.9854069508210243,5898.326818134955
0.196,1.0132629022460815,5898.133285755736
0.2,1.0428143589772194,5896.025085538308
0.204,1.0709351819357014,5907.297794060853
0.208,1.0953359312581752,5898.706735530841
0.212,1.1146091661519653,5905.514951437438
0.216,1.1281334598704016,5901.580738906737
0.22,1.135875140392032,5903.84347285858
0.224,1.138128321291664,5889.993428126136
0.228,1.1353139989022514,5900.294110876323
0.232,1.1279633818186339,5903.591261850635
0.236,1.1168681464277537,5888.56623273715
0.24,1.1032454756118544,5893.663536106577
0.244,1.0887652944457493,5902.030941779139
0.248,1.0753597934055639,5901.665198908711
0.252,1.064814859948093,5889.458622476876
0.256,1.0582484241695633,5899.773858819259
0.26,1.0556890888665897,5904.771736177559
0.264,1.0559845841815239,5910.13858970182
0.268,1.0571427809095928,5894.906314512312
0.272,1.0570027261057227,5897.610602362227
0.276,1.0539756675381424,5899.688295490184
0.28,1.0475762497431138,5897.181485962248
0.284,1.038579596568556,5901.16316769855
0.288,1.0287947965423063,5900.973331931547
0.292,1.0205348346054108,5907.127390402081
0.296,1.015894630381233,5900.881392521553
0.3,1.0160063520416132,5903.668473170266
0.304,1.0205289591915636,5899.80423279768
0.308,1.0276395866915464,5896.474454411721
0.312,1.0346341757462125,5897.361546072802
0.316,1.0389661664355925,5902.787545541644
0.32,1.0393373565680608,5896.374142231479
0.324,1.0364329579040295,5896.5721398063815
0.328,1.0330288160485233,5898.464239020454
0.332,1.0333942668835736,5897.506160723506
0.336,1.0421085111428086,5905.151618301185
0.34,1.062566322857289,5896.70642894594
0.344,1.095556157331191,5903.64218060378
0.348,1.1383555945795023,5899.745619659913
0.352,1.1847565999070544,5898.480616680818
0.356,1.2262047522227721,5901.096579201002
0.36,1.253822290958798,5899.37367482089
0.364,1.2606935735908025,5900.849874977348
0.368,1.2436688098561288,5896.895892079088
0.372,1.2041463188307844,5900.067010832861
0.376,1.1476842110428136,5906.730337758233
0.38,1.0826856333572117,5898.799506617047
0.384,1.0186445786401754,5899.631698593506
0.388,0.9644375425819991,5898.068933462535
0.392,0.9269744980948377,5902.14727713868
0.396,0.9103618306329443,5900.711180893497
0.4,0.9156246321846724,5902.42063198726
0.404,0.9409207587330767,5898.968160544218
0.408,0.982085243786207,5902.747969433583
0.412,1.0333425735731894,5906.643900275542
0.416,1.0880886548438344,5902.39058957201
0.42,1.1397086311144236,5897.95021576457
0.424,1.1824154114009304,5901.171159345688
0.428,1.212032460790165,5901.222459880142
0.432,1.22655258216896,5899.838540184147
0.436,1.226301605955788,5893.272208982799
0.44,1.2136512217709414,5903.459023784486
0.444,1.1923726345547048,5893.08341359368
0.448,1.1668146362500948,5894.743069839064
0.452,1.1411066307944517,5898.470946950599
0.456,1.1185736507377322,5900.76963327315
0.46,1.101511287194719,5891.107650572735
0.464,1.0913290770896835,5903.035625482728
0.468,1.0888571454439033,5901.78532420894
0.472,1.0945099303125347,5898.3134026073785
0.476,1.10812956308644,5905.603566235207
0.48,1.128611257478363,5890.187081040159
0.484,1.1536516954362441,5902.074979907562
0.488,1.1799409416687594,5900.4679813943785
0.492,1.2037936187470548,5900.423252999952
0.496,1.2218788830562457,5898.329790373904
0.5,1.2316981409494017,5900.868173930554
0.504,1.23172891288585,5904.255714964166
0.508,1.2213759827370638,5898.32114070445
0.512,1.200869324883074,5909.488560598368
0.516,1.171132427177342,5901.340913085396
0.52,1.1336002263777256,5910.097180114528
0.524,1.0900425788042378,5904.445460142443
0.528,1.0425356667905863,5901.366696092763
0.532,0.9936725329500024,5906.044758000534
0.536,0.946895397878543,5902.001451685432
0.54,0.9066274898609079,5903.805820036836
0.544,0.8778886878957595,5899.545251120942
0.548,0.8653453194937161,5895.8423351748725
0.552,0.8720918976911396,5910.046298767935
0.556,0.8986452349121928,5899.564920610527
0.56,0.9425396201394548,5902.872220941415
0.5640000000000001,0.9986316282614758,5900.500691213784
0.5680000000000001,1.0599634011679149,5907.191681282835
0.5720000000000001,1.1189582825657243,5889.4296862226565
0.5760000000000001,1.168770226939958,5899.037246046929
0.58,1.2045631032125725,5901.796978563757
0.584,1.2243280446300344,5898.686286361691
0.588,1.2288278726630306,5902.142627999818
0.592,1.2206166850123727,5902.542397340779
0.596,1.2026442362291994,5902.053933495444
0.6,1.177239404511975,5895.989013293964
0.604,1.1459734628501064,5898.386339774847
0.608,1.1102517516698582,5899.5988758862895
0.612,1.0720207710563117,5895.044401555876
0.616,1.0340368603430117,5901.401478196479
0.62,0.9995509909770491,5903.665927918031
0.624,0.9716325524628143,5901.6590733507255
0.628,0.9524864931996991,5896.66447354135
0.632,0.943044689443058,5907.815646252792
0.636,0.9429141813385552,5901.375552374044
0.64,0.9505529647169293,5902.498449218258
0.644,0.9634960700889035,5903.643370097523
0.648,0.9786285506415587,5899.634954938783
0.652,0.9926702850532504,5903.02152475143
0.656,1.0029312719026695,5891.640454862077
0.66,1.0080861361107194,5895.540347376694
0.664,1.0085515777693446,5899.94094955906
0.668,1.0062256519742523,5902.704950884356
0.672,1.0037100651444648,5897.311739813231
0.676,1.003406474316983,5897.277861906145
0.68,1.006895876710198,5900.134272162451
0.684,1.0147928557741726,5909.6445042489895
0.6880000000000001,1.0269772214823136,5899.83050722003
0.6920000000000001,1.0429522126953639,5893.389798614711
0.6960000000000001,1.0621327624625039,5895.653355747625
0.7000000000000001,1.083999841918658,5900.069071244768
0.704,1.1081062514633386,5891.321255639726
0.708,1.13390431152382,5898.553925682831
0.712,1.1604251595654993,5903.651117245205
0.716,1.1859737849074057,5910.018642447801
0.72,1.208063938008303,5898.722907153939
0.724,1.2237363279338298,5915.532304069544
0.728,1.2302449451372774,5895.465767966654
0.732,1.225914125168914,5904.003155231094
0.736,1.210818317338749,5907.03259427624
0.74,1.1869345918333525,5904.543433741379
0.744,1.1576219765892033,5898.682496320156
0.748,1.1265941270445559,5903.7114139334135
0.752,1.0968270724907552,5896.347056292649
0.756,1.0699537255596272,5901.238464240025
0.76,1.0465015228769992,5891.641968016955
0.764,1.0268207155309017,5908.701148828766
0.768,1.0120498320539804,5900.801243294747
0.772,1.0044106751494115,5903.679549094089
0.776,1.006571306847529,5899.497137266283
0.78,1.0203780106105802,5895.583061147679
0.784,1.0455864504721908,5892.060664444158
0.788,1.0792287739783044,5898.372103913253
0.792,1.1159652708819345,5907.105876239626
0.796,1.1493195407839618,5899.309922859069
0.8,1.1733373308175175,5893.259076266609
0.804,1.1841050519965537,5907.162291971447
0.808,1.1806715975511086,5900.334252442099
0.812,1.1651279897282092,5891.950291879298
0.8160000000000001,1.141856224712126,5897.320349946233
0.8200000000000001,1.1162088692302705,5907.6400108128255
0.8240000000000001,1.093040261809658,5903.670855075121
0.8280000000000001,1.0755155308606146,5891.541291800231
0.8320000000000001,1.0644737724959363,5901.633491008817
0.836,1.058400848157667,5901.492778963487
0.84,1.053934000614839,5893.095332196649
0.844,1.046841659234416,5900.91208021761
0.848,1.0334274631991922,5888.824885521951
0.852,1.0120907535761363,5897.225769190344
0.856,0.984446394160147,5900.379730670321
0.86,0.9553581609373942,5898.953583012493
0.864,0.931673150021429,5896.155527001443
0.868,0.9200787139942099,5904.308723177154
0.872,0.9248877338402842,5900.565384920327
0.876,0.9465198327196082,5906.496938680572
0.88,0.9811223546312076,5898.112486921813
0.884,1.0213875667005368,5897.386181884529
0.888,1.0583164369416762,5896.061634675769
0.892,1.0834734099726373,5904.158898659584
0.896,1.0911503152371003,5916.628845473695
0.9,1.079852952787235,5901.826310934391
0.904,1.0526879821963528,5892.9286159093135
0.908,1.0165356031610209,5898.560048955312
0.912,0.9802678353995931,5900.474943756768
0.916,0.9525728546111113,5900.797920815807
0.92,0.9399991069578095,5892.120509185825
0.924,0.9456228727877445,5908.704747482473
0.928,0.9684878975720826,5898.686509819179
0.932,1.0038564806699666,5901.056685213448
0.936,1.0442798995686642,5898.707881909377
0.94,1.081370920232355,5897.734127596462
0.944,1.107917781513641,5895.377499277485
0.948,1.1197406964684473,5906.964217013823
0.952,1.1166409916036015,5906.242599962557
0.956,1.1020870803918088,5904.16116744714
0.96,1.0818401649103964,5904.7482680004805
0.964,1.0621562481917228,5906.336073871815
0.968,1.0481848445921123,5896.447579524699
0.972,1.042840503114834,5898.694285873733
0.976,1.046170125344693,5894.395587050647
0.98,1.0552948751235955,5893.491573301207
0.984,1.0651342890859417,5905.7861237912175
0.988,1.0699596235323556,5896.988283791028
0.992,1.0653944272212377,5907.13271110462
0.996,1.0501604038142205,5898.143966009168
1.0,1.0269058491195733,5896.0461130476415
1.004,1.0017658917922896,5897.702520545021
1.008,0.9827025109508282,5902.351476936651
1.012,0.9770743344400853,5903.466080189235
1.016,0.9892177205881955,5899.807805658405
1.02,1.0189008633468442,5901.340943779283
1.024,1.0612065375732511,5897.4751179741625
1.028,1.107833799717153,5900.598792811676
1.032,1.1492836796969184,5896.469021283108
1.036,1.1771298971967776,5903.282444658051
1.04,1.185662500765,5892.249010424936
1.044,1.1725959006424984,5902.482211684084
1.048,1.1390050980419537,5903.064117496284
1.052,1.0888596751176565,5897.57072928024
1.056,1.028383734534455,5901.847291243583
1.06,0.9652187997241936,5899.925611110692
1.064,0.9072910140429925,5901.147845640124
1.068,0.8614628180208171,5896.464644967609
1.072,0.8323038741705306,5907.217057061681
1.076,0.8213953351527433,5896.723597155481
1.08,0.827407400868286,5910.9228287807855
1.084,0.8468938781204455,5903.166527584818
1.088,0.8755034196129301,5904.14760725667
1.092,0.9091877362423563,5898.722826161729
1.096,0.945006596632509,5900.876635
1.1,0.9813239802414251,5901.327235319037
1.104,1.0175003193290537,5895.61710843107
1.108,1.0533864666729018,5912.674058447573
1.112,1.088870181669788,5903.165827328602
1.116,1.1235450329211853,5894.308559525184
1.12,1.1564769364791008,5905.434111722404
1.124,1.1860796659489927,5897.030269987676
1.128,1.2101721281542013,5905.9480514145525
1.132,1.2262789797432438,5904.817705421468
1.136,1.2321559126925765,5905.915409834493
1.14,1.226430349299222,5902.58161902137
1.144,1.2091636802307166,5902.411606548227
1.148,1.1820858380297283,5890.379613937713
1.152,1.148327304193533,5888.694358388483
1.156,1.1117016627482463,5899.898544663034
1.16,1.075808533486309,5903.979089075115
1.164,1.0432675792973558,5904.962687322888
1.168,1.0152885827362277,5898.973625076223
1.172,0.991679690284873,5895.107116136983
1.176,0.9713427133901817,5909.351353656445
1.18,0.953171426464179,5905.577788649982
1.184,0.9370030597242761,5901.310576446357
1.188,0.9241082752593556,5905.359092719156
1.192,0.9168827395534617,5903.128282826711
1.196,0.9178216920507106,5902.507148697098
1.2,0.9282169079498882,5902.702669643731
1.204,0.9471413891899347,5898.725255092986
1.208,0.9711832080423488,5908.037246048196
1.212,0.995128031054275,5893.402156898635
1.216,1.0134520775948173,5898.370360497617
1.22,1.0221457674395737,5900.690970396358
1.224,1.0201567426785245,5896.450689864041
1.228,1.0097956344943109,5904.921965313608
1.232,0.9958565970844617,5905.197864456144
1.236,0.9837853313438707,5899.713400199386
1.24,0.9776782567292509,5899.110547866195
1.244,0.9789832369590219,5900.768250391124
1.248,0.9864185724127188,5903.426902815923
1.252,0.9970018778832745,5903.563315081116
1.256,1.00755255084551,5906.426200032927
1.26,1.015900658281044,5899.735275601362
1.264,1.0213331276337967,5889.626517945705
1.268,1.0243246942510678,5901.250986408189
1.272,1.0259988489041783,5903.411735583125
1.276,1.0277685730111337,5902.318188226049
1.28,1.0312495239565642,5895.809839691004
1.284,1.0381792355794268,5904.667949161167
1.288,1.050050116136535,5897.844471945959
1.292,1.0674364791104858,5900.128606383988
1.296,1.0892822812690666,5894.986906421642
1.3,1.1125356137779654,5900.144897066156
1.304,1.1324566734327859,5901.344034873265
1.308,1.143707776385858,5897.774025470299
1.312,1.1419887142034926,5891.432781004929
1.316,1.1256262512377668,5902.552260640015
1.32,1.0963933286119476,5899.918695691929
1.324,1.0591297728873994,5902.236383286991
1.328,1.0203574777674422,5898.324829287407
1.332,0.9865665417087526,5900.394868703879
1.336,0.9628293413971367,5898.787500990058
1.34,0.9520071858823783,5893.279913790872
1.344,0.9544621666220118,5897.880145149243
1.348,0.9681159200962401,5898.44963209491
1.352,0.9888409979993036,5901.096092868916
1.356,1.0112994511775253,5901.592200460445
1.36,1.030256703772852,5904.268688790547
1.364,1.0420916186642106,5897.292787680673
1.368,1.045912116494482,5901.871236980235
1.372,1.0436584499767085,5898.438617351354
1.376,1.038984089688013,5896.567126065347
1.38,1.0353776721432812,5906.179641598832
1.384,1.034465915534093,5895.27618901481
1.388,1.0353419244355886,5896.569864844409
1.392,1.0351730016457208,5894.882665612221
1.396,1.0306780058710003,5912.130431099648
1.4,1.0197051234302996,5905.99892253054
1.404,1.0022036242803272,5893.140418754754
1.408,0.9802469177445379,5900.2365859871215
1.412,0.9572085536220744,5898.893932826343
1.416,0.9365345841819755,5899.507191620805
1.42,0.9206805470543333,5897.434529333616
1.424,0.9106387416381212,5902.577123486863
1.428,0.9061547574411427,5898.439800604295
1.432,0.9064150199055164,5890.7419650699785
1.436,0.9108094468077735,5895.17955824552
1.44,0.9193595518072929,5899.825540629999
1.444,0.9325663074663807,5897.192928352275
1.448,0.950753050535411,5897.968922331049
1.452,0.9733101849693708,5894.239964149454
1.456,0.9983565795678228,5899.223086344627
1.46,1.0230903596867997,5904.730769981871
1.464,1.044667272197258,5911.868826590477
1.468,1.0611473899174007,5896.3148468760055
1.472,1.0720620933559162,5900.189409693157
1.476,1.0783834648953285,5894.028108695523
1.48,1.0819611072228508,5898.985993186298
1.484,1.0847075818238985,5894.586982345528
1.488,1.0878902001166695,5894.231565012064
1.492,1.0918150687548906,5896.595720424927
1.496,1.0960069756083293,5906.435977372307
1.5,1.0997507042315535,5903.322015499967
1.504,1.1026911098466576,5905.447935520605
1.508,1.1052133920257048,5904.366141671967
1.512,1.1084686532699248,5898.996424037794
1.516,1.1140206232813423,5903.115450715293
1.52,1.1231886620705356,5902.968829519416
1.524,1.1363081325490234,5897.16561863218
1.528,1.152204818586738,5900.83924074158
1.532,1.1680800399282532,5901.609483554023
1.536,1.1798474681288311,5895.58487308534
1.54,1.182909252436724,5899.908463013961
1.544,1.17333329728696,5902.058596288354
1.548,1.1492246379362756,5897.638350874951
1.552,1.1118397215471305,5892.967428248084
1.556,1.0659274437792854,5894.02851393861
1.56,1.019003282757194,5906.027527151871
1.564,0.9796560378030437,5902.014058881956
1.568,0.9553623456925167,5895.154434694866
1.572,0.950479855641602,5901.067483138842
1.576,0.9650198759991236,5909.808624441583
1.58,0.994517798656732,5897.598351903098
1.584,1.030991152659829,5899.739006192467
1.588,1.0647268883679841,5907.110096208653
1.592,1.0864715843929795,5901.178063683187
1.596,1.0894976240296532,5904.845541492993
1.6,1.071039136904084,5904.526714982123
1.604,1.0327638008150575,5901.448006296557
1.608,0.980227016302431,5907.472836273726
1.612,0.9215585676405336,5901.312526556897
1.616,0.8658257457155372,5899.560189074976
1.62,0.8214922607423492,5900.400257030172
1.624,0.7952021226981795,5899.635117236649
1.628,0.7909245327061104,5900.525117682872
1.632,0.8094147586317719,5894.540172720619
1.636,0.8480104674602478,5895.603919511006
1.64,0.900919482094095,5902.019333170453
1.644,0.9601640429187803,5899.70822880432
1.648,1.017105580851557,5895.221561023904
1.652,1.0641483692941993,5892.639321845794
1.656,1.0961050697306327,5906.90342605445
1.66,1.1108863982966708,5897.310251121143
1.664,1.1094651986142798,5903.155833328075
1.668,1.0952564586070124,5893.965577513864
1.672,1.0731275075693667,5892.182742449751
1.676,1.0482916515271952,5902.573910571367
1.68,1.0253473716951824,5892.358995509074
1.684,1.00764677245437,5900.0077524208655
1.688,0.9970447508735736,5895.398431349635
1.692,0.9939741401223657,5900.033030489422
1.696,0.9977136445353135,5903.271018537366
1.7,1.006671414818134,5903.933036747351
1.704,1.0185697661756503,5904.012922889506
1.708,1.030567770229829,5907.502258536706
1.712,1.0394628955327,5904.83267249608
1.716,1.0421015231520383,5894.952110456679
1.72,1.036031436756939,5902.10617128332
1.724,1.0202728343381517,5905.63559435674
1.728,0.9959152000019308,5905.432900798195
1.732,0.9661959961705944,5893.665953447053
1.736,0.9358861333936439,5896.368979331151
1.74,0.9101185978844643,5899.168416746387
1.744,0.8930456496145253,5904.712818353934
1.748,0.8867621628795866,5902.211900260872
1.752,0.8908104575927955,5909.894538100283
1.756,0.90237761244158,5906.605007892593
1.76,0.9170753534457056,5892.033271760851
1.764,0.9300200206612633,5897.534599105405
1.768,0.9369046334650156,5887.960616981187
1.772,0.9348917327453504,5902.781104128529
1.776,0.9232851012879627,5902.784447873379
1.78,0.9038939310068,5901.865779870396
1.784,0.8808753890962052,5893.07082781072
1.788,0.8598649941822097,5906.950353995209
1.792,0.8464498407041191,5903.434863071547
1.796,0.8443854139576472,5896.692631615045
1.8,0.8542232344012952,5897.903585685466
1.804,0.8730068378274395,5898.5477548558365
1.808,0.8952954692176226,5902.630133081885
1.812,0.91514793641731,5904.778528199921
1.816,0.9282260945605534,5902.872609880132
1.82,0.9331525449649145,5900.204219883807
1.824,0.9316614815568952,5896.704362864257
1.828,0.927641844190269,5900.570934082906
1.832,0.9255724699073428,5905.82911704103
1.836,0.9289305222617255,5894.377795910515
1.84,0.939004083246884,5898.358524669579
1.844,0.9543704265698313,5897.828626492728
1.848,0.9711987242835043,5906.576329124467
1.852,0.9843836647814962,5896.114239924556
1.856,0.9892180647770822,5903.444347539411
1.86,0.9830105376234168,5906.7601462132025
