时间(s),电压(V),幅值(高频80K)
0.0,1.1022910952091276,5893.126872626716
0.004,1.0672200051561842,5896.580482718343
0.008,1.0410110460550837,5900.344830607004
0.012,1.0313241725235458,5900.550881692091
0.016,1.0426524992374273,5907.546100237861
0.02,1.0754261847724425,5903.416732043592
0.024,1.1259012665103543,5888.861878861407
0.028,1.1868939328517447,5899.7120623042
0.032,1.249152788250971,5905.940310984308
0.036,1.303047962147527,5893.79420836799
0.04,1.3403354010739206,5895.040736394488
0.044,1.3557878066433253,5893.646555267544
0.048,1.3483159111712635,5898.809415276867
0.052,1.321110340310752,5897.849099559534
0.056,1.2806472874473922,5899.089386689996
0.06,1.2349544693897365,5896.506366359397
0.064,1.1918369065396606,5901.121392158144
0.068,1.1575872512278815,5906.226121955492
0.072,1.1362961247028047,5901.084478607525
0.076,1.1296264368331135,5897.992317667226
0.08,1.136917597803614,5897.27554270721
0.084,1.1555340620665917,5904.633272050894
0.088,1.1813557562784827,5904.352466392046
0.092,1.2093307952506716,5903.656260649485
0.096,1.2341303226550648,5903.764656152776
0.1,1.2510413471735826,5898.316765582813
0.104,1.2571338550484574,5902.304033426324
0.108,1.2524140188409498,5903.218735790182
0.112,1.2403760809456823,5900.293344466543
0.116,1.227428627443318,5885.503917068421
0.12,1.2211298022630563,5908.081292289223
0.124,1.2277374592195196,5898.1030626555
0.128,1.2499671423390735,5901.80149460868
0.132,1.2858708851516258,5897.8859446443485
0.136,1.3293530876830946,5893.843167148463
0.14,1.3721796213841257,5896.55630921887
0.144,1.4067105940656972,5899.855549993028
0.148,1.428270316105619,5905.358433398987
0.152,1.4362276831372993,5905.353743354881
0.156,1.4334690356344175,5898.534938237689
0.16,1.4246882329451105,5891.182117746868
0.164,1.414360850145805,5904.154621127515
0.168,1.4052192172118885,5903.733471006778
0.172,1.3976720148929667,5902.194694076678
0.176,1.3901932583599437,5898.271561074564
0.18,1.380377028897879,5907.068552048666
0.184,1.3661670331082791,5905.966083232253
0.188,1.3467897241734765,5905.754318102893
0.192,1.3231234085605879,5899.990187282749
0.196,1.2974787050142056,5900.688351412196
0.2,1.2729402122944815,5900.509789839311
0.204,1.2525093505601625,5894.19912223679
0.208,1.2383034791304166,5914.23057050128
0.212,1.2310272127418531,5896.558029354379
0.216,1.2298508121211338,5898.870312647913
0.22,1.2326982585974555,5900.901698988146
0.224,1.2367990687815995,5895.010501811588
0.228,1.239278794653099,5901.527603167132
0.232,1.2375979234096866,5890.580067530975
0.236,1.2297801617367945,5896.412093079084
0.24,1.2145416344834379,5892.893225958308
0.244,1.1915068921613876,5905.99334036569
0.248,1.1615462710816604,5900.725228189406
0.252,1.1270032615121826,5898.235270817266
0.256,1.091517808228558,5900.528548023928
0.26,1.0594095354565458,5899.808065176419
0.264,1.0348803963380673,5903.123688113142
0.268,1.021309977826789,5897.218144672687
0.272,1.0207158946523396,5896.142127044136
0.276,1.0333461321113067,5900.173611558696
0.28,1.057462642204534,5899.840867200577
0.284,1.0894812625412194,5900.48097721206
0.288,1.1245661531276616,5899.941537610143
0.292,1.1575520289158747,5901.32335554216
0.296,1.183869904155594,5906.815612997587
0.3,1.2001635226474427,5896.923480160991
0.304,1.2045077240142072,5899.075601483376
0.308,1.1964002003531837,5895.883605920252
0.312,1.1767830203353806,5899.196801362687
0.316,1.1481791819708935,5905.267540845702
0.32,1.1147562530793809,5898.636389115103
0.324,1.0820161581945327,5910.325841178799
0.328,1.0559510419774727,5899.471032248237
0.332,1.0417933494923317,5895.90932022056
0.336,1.0427594682780499,5902.023414576037
0.34,1.0592451825773987,5891.7527006411565
0.344,1.0886900793020515,5892.494410868316
0.348,1.1260094487749033,5899.199840424515
0.352,1.1643964553397765,5891.8860473376935
0.356,1.1964106491506135,5900.048036286471
0.36,1.2153521341551727,5904.422695646524
0.364,1.2168400198352984,5885.730935175807
0.368,1.2003012574888738,5890.70742176925
0.372,1.169837103795644,5898.814871176796
0.376,1.1338599126789184,5904.64962100355
0.38,1.1032132042173095,5902.910608851943
0.384,1.088189264349047,5898.1139294104605
0.388,1.095503272857206,5905.724013848752
0.392,1.1263694108508493,5906.202566063728
0.396,1.1763198262621628,5896.970047966388
0.4,1.2367028738825383,5895.273488485944
0.404,1.297239535466714,5901.562771231315
0.408,1.348749463840708,5898.524930300271
0.412,1.3852345845438612,5903.075858717677
0.416,1.4048574781781111,5890.401410090858
0.42,1.4097528416360054,5902.255031273715
0.424,1.4048768386090322,5899.577686563934
0.428,1.396222138398725,5893.560126410219
0.432,1.38882264973355,5903.8042415813625
0.436,1.385111740482811,5889.850768705155
0.44,1.3842323978199276,5899.03866531797
0.444,1.3825875730180308,5902.085520976501
0.448,1.3753549061034993,5895.434271762329
0.452,1.3583109693607458,5902.184785547839
0.456,1.329348774785847,5896.592847938073
0.46,1.2893224718408278,5903.049602689125
0.464,1.2420733031786324,5910.423432228943
0.468,1.1936794528773569,5896.16362958516
0.472,1.1511698618012254,5908.421176402563
0.476,1.1210614723716854,5896.753341587621
0.48,1.1080550309732924,5889.963027998604
0.484,1.1141255364780795,5908.902621170856
0.488,1.1381372073054372,5911.006048594542
0.492,1.1760053925591503,5901.8966585789785
0.496,1.2213585316825755,5903.093211933498
0.5,1.266627270715909,5894.879949047991
0.504,1.3044102467669112,5908.734145632481
0.508,1.3288356863587019,5906.990954280773
0.512,1.3365900650592328,5902.063119762515
0.516,1.3273702046325495,5896.9262166405015
0.52,1.3036837541033899,5901.089136588813
0.524,1.2701217994022131,5894.277856683714
0.528,1.232351858229458,5899.9238999481495
0.532,1.1960545163290757,5896.85694534176
0.536,1.1659434378658324,5895.911407412782
0.54,1.1449878526907455,5904.868425934954
0.544,1.13398762282087,5896.746092442389
0.548,1.1316386590669016,5896.507323650348
0.552,1.1351008335982804,5891.331744859152
0.556,1.140884471921214,5902.369066173788
0.56,1.145750362020473,5902.524967573585
0.5640000000000001,1.1473578378512743,5907.420446703717
0.5680000000000001,1.1445398623624758,5897.54543947753
0.5720000000000001,1.1372430999271845,5904.002935250618
0.5760000000000001,1.1262913619954864,5903.703036475711
0.58,1.1131599217262371,5892.459774881286
0.584,1.0998527967110174,5899.229246051317
0.588,1.088807394054581,5887.728335916498
0.592,1.0826384661976474,5903.920025934505
0.596,1.083590549055928,5903.1590925946375
0.6,1.0927929965951269,5902.050347205804
0.604,1.1096518923188852,5901.330763614475
0.608,1.1317647755419256,5906.256489148915
0.612,1.1555233360438184,5893.431289436126
0.616,1.177203096550262,5903.424740300354
0.62,1.1940701322350895,5907.809681645103
0.624,1.205028927634903,5913.688267434888
0.628,1.2105927400151228,5894.75612728579
0.632,1.2123191367815374,5906.931113985131
0.636,1.2120580660445426,5895.92286843328
0.64,1.2112788027633048,5900.953883396596
0.644,1.2105684456338641,5906.163718226748
0.648,1.209378404318893,5909.261153807891
0.652,1.2061671964658007,5896.952684909587
0.656,1.1990086425803796,5903.367577199457
0.66,1.1864901628283668,5902.31531125406
0.664,1.1685252809969366,5896.546663868623
0.668,1.146692311765917,5899.728025748486
0.672,1.1238757802879986,5891.281666214986
0.676,1.1032802144515252,5900.530668821807
0.68,1.087229647090887,5895.608260295962
0.684,1.0763497074217128,5912.781057608078
0.6880000000000001,1.069550019144938,5896.363308086208
0.6920000000000001,1.0647874314310943,5888.796891079762
0.6960000000000001,1.060231392996914,5897.785079014303
0.7000000000000001,1.0553394002492593,5899.72700039128
0.704,1.051396969931322,5893.5707489936985
0.708,1.051227214774829,5902.625621346412
0.712,1.05807906872325,5897.947207632436
0.716,1.074099235184404,5899.187205973934
0.72,1.09906216162496,5896.87913861047
0.724,1.1299834762362957,5899.329272002711
0.728,1.1618542703379926,5895.318330200291
0.732,1.1891991500313674,5898.347793520798
0.736,1.2078036764595825,5901.643685523371
0.74,1.2159639635135016,5890.80405420962
0.744,1.214867049571407,5904.84105135433
0.748,1.2080123821762752,5892.035473164097
0.752,1.199895069262567,5902.002422425947
0.756,1.1944698176545052,5907.731187660141
0.76,1.1940005281527104,5899.612163606648
0.764,1.198643162083348,5898.751676553294
0.768,1.2067141094760925,5900.628329399245
0.772,1.215356809611619,5905.872513915076
0.776,1.221298550653435,5904.149318230911
0.78,1.2215070622229336,5906.563710884439
0.784,1.2137218622400014,5894.832911421837
0.788,1.1969166642571536,5908.769241314867
0.792,1.171687626913071,5900.315537305333
0.796,1.140476667872846,5902.821880259265
0.8,1.1075252873849715,5905.460288942645
0.804,1.0784522824070992,5900.894276054832
0.808,1.0593473870346222,5897.50286428883
0.812,1.0554081446433803,5900.112523684105
0.8160000000000001,1.0694407759117046,5901.7721605227625
0.8200000000000001,1.100761114044418,5896.357413541969
0.8240000000000001,1.144958930913114,5902.318665544826
0.8280000000000001,1.1947016626225706,5905.824667934387
0.8320000000000001,1.241444067747505,5907.033985807467
0.836,1.2776307407515604,5898.857810910918
0.84,1.2987147955134675,5909.104081692461
0.844,1.3042219378455924,5893.427055966552
0.848,1.297395536185575,5903.287946559449
0.852,1.2836076190794845,5893.060588056579
0.856,1.2682948094890363,5903.97959492924
0.86,1.2552880050557262,5893.448549704109
0.864,1.246061253323768,5901.39622723964
0.868,1.2399560022895408,5900.818225087996
0.872,1.2350950683245996,5896.651591458748
0.876,1.2295158062081806,5895.765478651437
0.88,1.2220301696388338,5896.843260787605
0.884,1.2125118508894,5897.479420160715
0.888,1.201646206678231,5902.184348799617
0.892,1.1904506935194206,5907.336902803794
0.896,1.179923643342383,5900.16210694
0.9,1.1710035356436728,5897.022064656656
0.904,1.1647361316628024,5892.786548718764
0.908,1.1623269735256305,5898.054152779275
0.912,1.1647764155114548,5893.439133136869
0.916,1.1721099669443726,5897.038885998902
0.92,1.182648528980112,5901.197528375792
0.924,1.1929714198871926,5894.852164063461
0.928,1.1989632376824584,5894.086915341757
0.932,1.1976731538998624,5903.982377715512
0.936,1.189073403581857,5895.655081041839
0.94,1.1766893546481825,5899.929819536642
0.944,1.1666161492200693,5897.25038811467
0.948,1.1652429902530168,5906.342758218266
0.952,1.1765906935816113,5891.940986875236
0.956,1.2003543076840735,5891.282613649522
0.96,1.2315313536309063,5896.365951014407
0.964,1.2619169457394204,5902.808276788435
0.968,1.2829458380990357,5908.504271598783
0.972,1.2887576842908433,5900.265024610239
0.976,1.2782671364904163,5897.0578142349095
0.98,1.2554585605346056,5901.12962080049
0.984,1.2278772572893615,5895.6540982673
0.988,1.203988664727599,5890.908320251685
0.992,1.190389500107032,5905.297760093228
0.996,1.1897368663105927,5896.408860014486
1.0,1.199954832647744,5892.67723019226
1.004,1.2149609990590864,5905.625268113911
1.008,1.2267737921217299,5905.012253849551
1.012,1.228380310601364,5898.767641952168
1.016,1.216354360146251,5900.870038940857
1.02,1.1921983982497624,5896.96023008244
1.024,1.1618623615308472,5893.765563787213
1.028,1.1336668574731001,5904.286565221716
1.032,1.1155089853924898,5903.88552244013
1.036,1.1124426688056024,5893.86353935713
1.04,1.125471322115664,5902.05244176125
1.044,1.151821037847814,5909.084905765817
1.048,1.1863298295858342,5895.955329585344
1.052,1.2232086531509818,5903.354293717868
1.056,1.257469961239443,5904.69376856979
1.06,1.2856403116945578,5902.342402132206
1.064,1.3057346264680192,5900.441006202135
1.068,1.316771660206002,5900.274492041239
1.072,1.3182977921648205,5905.9663366903405
1.076,1.3103104478702057,5905.801537657429
1.08,1.2935970704721904,5909.158760008684
1.084,1.2701247801978908,5896.49657132941
1.088,1.24307554690402,5904.414830132584
1.092,1.2163875598988885,5907.112759687033
1.096,1.193934589077422,5902.240447491523
1.1,1.178608089270576,5893.461717794005
1.104,1.1715993282428332,5903.564091291021
1.108,1.1721095835676278,5897.71581110554
1.112,1.1775528665257071,5895.213025033842
1.116,1.1841772975552656,5902.07934637441
1.12,1.187994164583167,5892.233607936534
1.124,1.185871071627888,5893.097980904228
1.128,1.1765279656175531,5899.74774749471
1.132,1.1610897268484401,5897.356676250968
1.136,1.1429577368307062,5897.560198018006
1.14,1.1270117669899908,5895.9914137670285
1.144,1.1183730467590598,5900.046198797773
1.148,1.121069890545468,5893.253515719803
1.152,1.136928117527697,5891.617191438785
1.156,1.164881277742163,5906.308398862423
1.16,1.2007997937168202,5891.298003220551
1.164,1.2379754435803765,5901.405179024303
1.168,1.268403608019205,5895.708501109173
1.172,1.284737964459315,5896.8679152985615
1.176,1.2823480681370791,5904.833939629264
1.18,1.2606985874503054,5895.658774648475
1.184,1.2235216160955422,5897.963477107568
1.188,1.1777693081737945,5895.162225779956
1.192,1.1317590541836884,5895.44414136266
1.196,1.093101164193924,5891.0443328466745
1.2,1.066972569536192,5897.374650602897
1.204,1.0551336641620788,5901.488359610447
1.208,1.0558380440099464,5901.830741129115
1.212,1.0645709626092827,5902.076700970164
1.216,1.0754368723620233,5910.357911777654
1.22,1.0829143793962996,5898.0720626821885
1.224,1.0835542584254791,5889.853877321559
1.228,1.0771301940626248,5896.019159557232
1.232,1.0668632125137427,5895.462926235427
1.236,1.058584758290982,5903.356834582331
1.24,1.0590092293068445,5903.254623804888
1.244,1.0735945267553246,5899.339796959112
1.248,1.1046714137888778,5905.678359096358
1.252,1.1505122570131527,5890.707123164744
1.256,1.2057262043866974,5903.768556106015
1.26,1.2628301793709356,5899.09958432204
1.264,1.3142939967891945,5898.863757689222
1.268,1.3542020664408667,5909.290730003396
1.272,1.3790632553743556,5899.336846739492
1.276,1.3878829365450334,5899.860765389001
1.28,1.3818848283285161,5898.322493779775
1.284,1.3641065669174561,5895.180780735206
1.288,1.3388094656050402,5896.174071048168
1.292,1.310578113759726,5904.080660891652
1.296,1.2831761380866331,5894.306486342026
1.3,1.2585181385901116,5892.243392405336
1.304,1.2363096959910058,5900.17250711741
1.308,1.2147431329278362,5896.828962628494
1.312,1.1920505365677676,5901.037261144393
1.316,1.1680970733186657,5899.421181805036
1.32,1.1450883263227287,5900.306985185461
1.324,1.1269634039502723,5902.650767788839
1.328,1.1177565054237635,5890.964578642579
1.332,1.119723009617918,5898.586368721035
1.336,1.1321594443065366,5903.160107428449
1.34,1.151533349444573,5900.611648785343
1.344,1.1728643898429574,5903.51562123098
1.348,1.1916314316514622,5901.390819644763
1.352,1.2052586595585832,5898.486089161844
1.356,1.2135664642135113,5898.095424752128
1.36,1.2181763886553465,5904.9292304128
1.364,1.2213504228909098,5898.551167733596
1.368,1.224913862648555,5900.248449528113
1.372,1.2297432793748575,5904.101108034574
1.376,1.235902831077974,5893.555174631514
1.38,1.2431211793165629,5903.250710716659
1.384,1.2511877466512114,5904.994966054486
1.388,1.260039501166078,5891.345122173089
1.392,1.2695667641941035,5907.613566855292
1.396,1.2792887757674754,5900.197988103062
1.4,1.2880539435466736,5903.461676099822
1.404,1.2939026419961235,5899.129665854477
1.408,1.2942108433110882,5899.838559061077
1.412,1.2861553159103944,5902.990639455531
1.416,1.2673930547363854,5898.756761770005
1.42,1.2367368062751578,5897.771543056814
1.424,1.1946453892615874,5900.43973458447
1.428,1.1434654467963776,5903.223367460408
1.432,1.0873954333980589,5899.424129475521
1.436,1.0320901097006336,5902.478992323509
1.44,0.9838520668068368,5896.354455313098
1.444,0.9485272359016511,5910.648161494734
1.448,0.9303886270336447,5905.457801150822
1.452,0.9313147256603669,5907.960085899326
1.456,0.9504623533341984,5907.100844677096
1.46,0.9844886330547593,5903.655712169296
1.464,1.0282232934313875,5897.033786937652
1.468,1.0755411316729215,5897.240476189492
1.472,1.120153956022665,5906.317738484294
1.476,1.15622185970695,5898.090842222695
1.48,1.1788868260872567,5904.765517957307
1.484,1.1848078807183913,5891.555305736586
1.488,1.1726131576473053,5903.852943854821
1.492,1.143142603267774,5908.173778371578
1.496,1.0994458269567773,5901.178840459637
1.5,1.046517050919984,5907.090182810022
1.504,0.9906542723407294,5911.059738456684
1.508,0.9383488470829989,5905.657382450767
1.512,0.8948935384998209,5902.905659009074
1.516,0.8632368231402309,5908.043386723825
1.52,0.8436451831175934,5902.248245556532
1.524,0.8343407831847743,5897.230926314973
1.528,0.83272671813396,5904.745586342192
1.532,0.836525882654169,5904.974824014648
1.536,0.8443320536898258,5893.351552421958
1.54,0.8554997964426034,5906.149548794153
1.544,0.8696559603315652,5907.231801851495
1.548,0.8862268663032135,5901.545788419448
1.552,0.9042427786499446,5909.837460857377
1.556,0.9224468057899565,5898.196632213379
1.56,0.9395931379174669,5895.745963954525
1.564,0.9547969326222011,5901.049081308489
1.568,0.9677798822337466,5903.551046618951
1.572,0.9788572586306199,5903.509580732368
1.576,0.9886193877406697,5897.379372991972
1.58,0.9973927843398517,5897.761234435854
1.584,1.0046490021253882,5898.246045419714
1.588,1.008640161891809,5897.806793562161
1.592,1.0066164984666832,5903.804080947731
1.596,0.9957731717796882,5900.989267893746
1.6,0.9746005506795447,5900.566862780298
1.604,0.9439936903150092,5900.187923351332
1.608,0.9076068625233757,5903.862909287736
1.612,0.8713138890355709,5905.983095465341
1.616,0.8419176722591765,5910.546733509124
1.62,0.8254333356356895,5897.449536269451
1.624,0.8254720540900061,5900.9386439661175
1.628,0.8423390376569474,5903.408216077011
1.632,0.8731839443467307,5900.750907046075
1.636,0.9129998205759903,5904.943377894437
1.64,0.9559046050868836,5902.239501039536
1.644,0.996234987466861,5903.204954980043
1.648,1.0293069204166607,5902.058566772147
1.652,1.0518759208733133,5899.0466995279085
1.656,1.0623239251370582,5905.987104275412
1.66,1.060601851405126,5904.640882351217
1.664,1.0480259825317964,5900.9179012166105
1.668,1.027054658089782,5911.939144120807
1.672,1.001111102469205,5904.980802501009
1.676,0.974422568422995,5905.370547619341
1.68,0.9517579472122948,5903.595933508714
1.684,0.9379030072322111,5897.96144559619
1.688,0.9367901086036163,5899.987015791754
1.692,0.9504264965092194,5903.79451966695
1.696,0.9780232109520527,5901.648395254555
1.7,1.0157829842502841,5906.095203112219
1.704,1.0575353863991666,5900.89434342496
1.708,1.095992411696781,5908.988010143679
1.712,1.124163232341479,5905.938481770437
1.716,1.1365432396459796,5911.423171341861
1.72,1.1299495453666517,5899.238979829721
1.724,1.104080620828515,5903.611946850702
1.728,1.061855747472876,5912.067324553869
1.732,1.0093769929525431,5907.800390564989
1.736,0.955219677510566,5910.65168545214
1.74,0.9089130140383371,5906.911714612579
1.744,0.8788303923492402,5901.72958712383
1.748,0.8700251645658184,5899.177538009067
1.752,0.8826896885588312,5903.31960882146
1.756,0.9118341581355485,5905.286851479024
1.76,0.9484419430868187,5895.816631960516
1.764,0.9818399126419347,5911.600674777541
1.768,1.0025496819874162,5898.800446947816
1.772,1.0046914505646205,5903.512042888411
1.776,0.9872090255257945,5901.456378768915
1.78,0.9536811765633397,5907.424937391374
1.784,0.9109859305994732,5907.354176775466
1.788,0.8673295301065844,5902.048578501104
1.792,0.8301668639452802,5897.716141454837
1.796,0.8044949293203598,5906.502248121788
1.8,0.7919123231511498,5913.131187105204
1.804,0.7906323241109097,5909.893573434973
1.808,0.7963571597224924,5909.920262842511
1.812,0.8036828195010731,5909.785611590925
1.816,0.8075806212260147,5907.877078332144
1.82,0.8045350288871616,5901.19874936946
1.824,0.7931075323876081,5907.359605326948
1.828,0.7739415117267938,5904.883414444409
1.832,0.7493811329441459,5904.038005814164
1.836,0.7229039505274794,5911.079132649499
1.84,0.6985128683267029,5906.0557274782
1.844,0.680154558865536,5912.646584986851
1.848,0.6711720332052866,5907.62534722236
1.852,0.6737925135710903,5914.337845998552
1.856,0.6886838645127185,5907.198218341234
1.86,0.7146374972790747,5912.503136290442
