时间(s),电压(V),幅值(高频80K)
0.0,1.821855459828334,5895.731346729728
0.004,1.6503003621676315,5904.224030326363
0.008,1.4973661870954624,5892.150432387631
0.012,1.378392001270852,5902.227759410031
0.016,1.3019300611034155,5906.880405955456
0.02,1.2686224156504613,5900.6224273685975
0.024,1.272053440680768,5899.68341576841
0.028,1.3010921672475586,5905.765902085038
0.032,1.34285221904114,5902.555859177182
0.036,1.3853555811703862,5899.632608487952
0.04,1.4193567220031873,5900.709060888997
0.044,1.4392846300359623,5906.171850532392
0.048,1.4434621642362793,5903.288540916454
0.052,1.433666304382477,5908.595870146384
0.056,1.414104242372499,5905.034399202444
0.06,1.3901229809210873,5891.057313529869
0.064,1.3670795793904127,5896.996035470834
0.068,1.3495406756755048,5886.085074184452
0.072,1.3406708174785513,5897.296512077877
0.076,1.3417110019055312,5906.645117975377
0.08,1.351727078071132,5902.031560345069
0.084,1.3678959999863,5895.25834199643
0.088,1.3863623779079706,5893.4290905272255
0.092,1.4033771259575454,5911.538861589376
0.096,1.4162762538541342,5906.994579853928
0.1,1.4239477511120258,5898.400810329717
0.104,1.4266871862952373,5895.763706475103
0.108,1.4255818366454387,5893.550519043843
0.112,1.4216883649315377,5900.633007084763
0.116,1.4153429456586017,5899.252516264726
0.12,1.4059847857593786,5896.599260356243
0.124,1.3927215577666594,5902.778840619887
0.128,1.3754237216667444,5903.279821833216
0.132,1.3556747829468199,5899.341810668863
0.136,1.336897570187346,5901.30371064973
0.14,1.3235198023599641,5892.734933572671
0.144,1.319625128363924,5895.626292276112
0.148,1.3276401385815846,5893.00635906965
0.152,1.3473595821942426,5907.284320015626
0.156,1.3754943383165223,5887.070923486092
0.16,1.406019716599794,5896.384246893046
0.164,1.4315204270368636,5892.773914836029
0.168,1.445274457382636,5903.593287119224
0.172,1.4433152861216818,5903.230400230876
0.176,1.4256114743739452,5892.856513012312
0.18,1.3959013706174412,5903.832545358983
0.184,1.3603379588766644,5897.138400683662
0.188,1.32556784220505,5897.596267985135
0.192,1.2969948113965772,5902.790448143167
0.196,1.2777857470965734,5896.137964190043
0.2,1.2688039944446028,5904.015325264143
0.204,1.269276911689699,5901.855874506283
0.208,1.2777611738831345,5904.495476351404
0.212,1.292922299003437,5898.646525433775
0.216,1.313811052061945,5903.304705703623
0.22,1.3396471692941068,5901.1045019484445
0.224,1.3694060235335859,5903.21862954427
0.228,1.4015406849016554,5895.651845727638
0.232,1.4340086092619966,5901.420641811436
0.236,1.4646158772638882,5893.15990818153
0.24,1.4915887220258874,5901.699963562519
0.244,1.5141313427216259,5895.646535699236
0.248,1.532594529159468,5899.02274328059
0.252,1.5479963873839309,5900.46253639418
0.256,1.5610471884711494,5897.45520966766
0.26,1.5712442488546472,5903.550786719296
0.264,1.5766735997182795,5891.14856172419
0.268,1.5747819196503048,5898.046007413882
0.272,1.5637858993714984,5900.771889202168
0.276,1.5439716583025416,5893.42036463028
0.28,1.5181800553954388,5898.2924368092345
0.284,1.4912059632532133,5899.374005035716
0.288,1.4683623156041392,5905.857343634818
0.292,1.4537968836819792,5896.088666227916
0.296,1.449198136618009,5907.119331824084
0.3,1.4533452543485406,5895.876908521722
0.304,1.4626235214717342,5898.293657253389
0.308,1.4722100909892224,5899.049448921708
0.312,1.477355165958772,5907.628477616997
0.316,1.4742887003049718,5906.717211285627
0.32,1.4606708315528802,5907.454622710463
0.324,1.4357895744286107,5891.538069262864
0.328,1.400700850073803,5895.973596722525
0.332,1.358325074477901,5896.662825553531
0.336,1.3133299831976373,5894.033090437104
0.34,1.2715503646926678,5902.61232222629
0.344,1.2388280662461963,5901.49567243669
0.348,1.2195114966255245,5900.89337732727
0.352,1.2152008925303355,5895.881050487504
0.356,1.224334300161343,5893.180903351119
0.36,1.2428105913989436,5893.918326158361
0.364,1.2653166543584364,5900.330964392041
0.368,1.286719910329098,5898.747626323236
0.372,1.3029829407605327,5900.266229431983
0.376,1.3114651953491478,5902.881770408831
0.38,1.310873299803777,5905.172483426091
0.384,1.3012006846105861,5898.225308905406
0.388,1.2837792251369662,5896.315141812945
0.392,1.2613311141633874,5897.809925781861
0.396,1.2378518693240468,5891.698723382867
0.4,1.2182432505938066,5898.891151924997
0.404,1.2077218978893591,5903.712857698818
0.408,1.2110721979626022,5908.080983716919
0.412,1.2318125337196608,5898.037347072829
0.416,1.2713908714176927,5897.574061769908
0.42,1.3286125772614765,5900.567303312694
0.424,1.3994906846973514,5900.739850763536
0.428,1.4775482629167047,5899.300773597765
0.432,1.554467759434787,5895.820368152437
0.436,1.6210204925500378,5900.229824044853
0.44,1.6682968276321504,5903.292765324865
0.444,1.6891810105633025,5905.4057059124
0.448,1.679788835097526,5898.240640073829
0.452,1.6404243371805405,5892.573813686656
0.456,1.5756750899461358,5897.830001203615
0.46,1.4935500742382224,5897.165569606616
0.464,1.403933723672949,5903.859655712932
0.468,1.3168829585178548,5899.868466089469
0.472,1.2412542399742932,5910.191924764714
0.476,1.1838251447276318,5898.965930142024
0.48,1.1487627360844401,5895.654808912611
0.484,1.1372966626485506,5908.9168708153775
0.488,1.1476990752414984,5891.915894376163
0.492,1.1757809479810408,5902.477524876219
0.496,1.2158948475468456,5900.412997322005
0.5,1.262101873152426,5903.159794293441
0.504,1.3090797447917,5908.141727272632
0.508,1.3526066180023475,5903.592449472056
0.512,1.3897598436843375,5907.075182739747
0.516,1.4190367072396441,5894.071219312908
0.52,1.4404673765038412,5903.36436731953
0.524,1.455627641141019,5902.276610393808
0.528,1.467369241709628,5902.349237909953
0.532,1.4791167133733334,5899.002550731913
0.536,1.4937600479941957,5911.122994062135
0.54,1.5124420148963402,5901.349641796232
0.544,1.5337377815590951,5894.90646866065
0.548,1.5536772549300661,5903.132359871155
0.552,1.566723251345904,5905.606292470163
0.556,1.5673821167561823,5895.228923308082
0.56,1.5518799466531619,5890.837209077455
0.5640000000000001,1.5193891886502224,5900.567575166834
0.5680000000000001,1.4725021253667194,5897.32451853522
0.5720000000000001,1.4168832175121118,5902.211808612607
0.5760000000000001,1.3602431409522995,5889.589957343083
0.58,1.3109060763193052,5901.3618837626
0.584,1.276256372194059,5903.536958042843
0.588,1.2613151228309594,5889.338156116712
0.592,1.2676790558945947,5912.505828068561
0.596,1.2930406834176744,5897.088111516921
0.6,1.331454043995722,5899.5084779155
0.604,1.3744006842603012,5906.205403573819
0.608,1.412553232106929,5901.636244724433
0.612,1.4379163854289148,5886.68852606328
0.616,1.4457805327015179,5907.928047727527
0.62,1.4358259479245101,5898.831385750762
0.624,1.4119393473471682,5890.389954937329
0.628,1.3807808921839626,5896.478226229088
0.632,1.349614665952148,5902.496005468911
0.636,1.3241869458125386,5901.2777711533645
0.64,1.3073940392176118,5902.621763450208
0.644,1.2990881078716934,5903.171394476115
0.648,1.2968049163930655,5895.72232561347
0.652,1.296846268331347,5898.63081540442
0.656,1.2952377232617323,5898.069171871965
0.66,1.2884311716869667,5898.272396695803
0.664,1.2738833557434102,5898.777290942047
0.668,1.2506456499390397,5904.49937795816
0.672,1.2199098382606945,5889.475865545108
0.676,1.185255526513377,5898.034752943295
0.68,1.1523310122257897,5901.39204286032
0.684,1.1278901165903417,5902.065713176851
0.6880000000000001,1.118336965432705,5896.42416889383
0.6920000000000001,1.128096564354238,5896.057204789375
0.6960000000000001,1.158245676817683,5901.616131017345
0.7000000000000001,1.2058807928998956,5894.897186254173
0.704,1.2646012967215237,5903.131853695156
0.708,1.3261733258756845,5901.241170616884
0.712,1.3829028006500197,5897.371173580576
0.716,1.4297690267212455,5905.406734564159
0.72,1.4654079378426481,5902.783195176437
0.724,1.4916471995526817,5908.164809639095
0.728,1.5120329184555563,5895.223969199163
0.732,1.5301704200138684,5896.868757835197
0.736,1.5485665868598326,5896.791630474843
0.74,1.5681670556979392,5890.183073718246
0.744,1.5883073456964578,5903.735356596129
0.748,1.6067153504469625,5903.343951016732
0.752,1.6195578310119074,5897.191481985495
0.756,1.62193569078308,5895.790001312734
0.76,1.6092171010894614,5893.798833084515
0.764,1.5790377103067166,5901.897298074531
0.768,1.5331147424586558,5894.859659269456
0.772,1.4778242896873353,5898.157692459298
0.776,1.4229915233305426,5894.022157844334
0.78,1.3791879771994442,5893.299699127531
0.784,1.3544996715003377,5903.112478313461
0.788,1.3519455868933286,5901.8274730423855
0.792,1.3684830134356736,5897.757469031812
0.796,1.3959801058675678,5891.250074090586
0.8,1.4238635656205645,5899.4976770016765
0.804,1.4425488033135416,5907.794884082166
0.808,1.4464309250610448,5896.509589413551
0.812,1.4353646072973096,5894.811251156977
0.8160000000000001,1.4142110614099133,5901.353627113919
0.8200000000000001,1.3908479787637207,5901.391620639802
0.8240000000000001,1.3735470601449962,5893.770741758966
0.8280000000000001,1.3686224635103714,5905.270610938368
0.8320000000000001,1.3789240191944119,5901.581498937087
0.836,1.4033760918236127,5896.645609149633
0.84,1.437484445577527,5904.820331995852
0.844,1.4745567668626895,5903.225847913665
0.848,1.5072899620740157,5895.217984048425
0.852,1.5293526199230412,5897.134062570559
0.856,1.536623373340478,5903.140597686899
0.86,1.5278423894226736,5897.533353741304
0.864,1.5045926566807781,5910.092849414301
0.868,1.4707234221667809,5899.335674428089
0.872,1.4314949780053845,5896.781514937113
0.876,1.3927292360443282,5899.146752106821
0.88,1.360038268551252,5890.9190730652135
0.884,1.3380111667611128,5902.0896279744
0.888,1.3293627342540275,5901.1718757225135
0.892,1.3343485119657759,5901.760128653702
0.896,1.3507988743998356,5898.0173328167
0.9,1.3748104937353933,5895.661513452413
0.904,1.4017660047856926,5893.768726660986
0.908,1.427228989070141,5901.686769187927
0.912,1.4474189722210646,5891.379453326224
0.916,1.4592539402215154,5894.550425067916
0.92,1.4601723961394324,5894.000305780113
0.924,1.4480448342781498,5902.444693986355
0.928,1.421446989803604,5903.870765172921
0.932,1.3803558812878476,5896.659168283193
0.936,1.327005868182596,5901.912005955492
0.94,1.2664183658736263,5892.394366570198
0.944,1.2061659282080053,5908.351844089046
0.948,1.155240636517797,5898.460333375298
0.952,1.1222982885625503,5907.787754714227
0.956,1.1138116799167677,5900.347087046451
0.96,1.132652291691535,5896.404027388363
0.964,1.1773899675020874,5906.850244546565
0.968,1.2423559041617886,5902.785751152657
0.972,1.318409012310711,5904.24383489041
0.976,1.3943331546141504,5900.815188581162
0.98,1.4587258881072362,5904.347657544413
0.984,1.5020768912834717,5907.846558606466
0.988,1.5185602046585247,5897.334752110609
0.992,1.5070136211655765,5907.530956034653
0.996,1.470799178513455,5898.988221680528
1.0,1.4167170667604978,5908.456902478249
1.004,1.3535393091338588,5895.023422096426
1.008,1.2906781343089013,5892.455233304185
1.012,1.2371108323171727,5898.646134285687
1.016,1.2003803280665193,5895.93601098009
1.02,1.185503364271452,5899.167918732536
1.024,1.1938555849701329,5896.596323476009
1.028,1.222399550594872,5898.659747584223
1.032,1.2637929109429864,5897.809347527304
1.036,1.3077473655806866,5908.4253449779135
1.04,1.3434701486421028,5906.080491847737
1.044,1.3624148517031176,5902.729907298563
1.048,1.360342177346494,5907.313406184738
1.052,1.3380219138946805,5900.665256751436
1.056,1.3005436560161272,5898.266055190259
1.06,1.255710369735949,5898.589168569899
1.064,1.212123342157162,5905.129569177318
1.068,1.1774208134043023,5904.186751116469
1.072,1.1569406523589143,5901.122999041335
1.076,1.1529590675948678,5896.753919316479
1.08,1.164584594459783,5897.995070511744
1.084,1.188293799245699,5892.96129230768
1.088,1.2189350863476052,5895.53304139611
1.092,1.250838985418926,5906.30793030326
1.096,1.278638806640988,5904.773050701938
1.1,1.2976684803826448,5899.658309753168
1.104,1.304191983372463,5898.593182558237
1.108,1.2958400122871283,5913.619783901625
1.112,1.272335369109186,5896.738346562304
1.116,1.2361689912529807,5899.976980787523
1.12,1.1927348401749445,5897.7399006505775
1.124,1.1496323521860428,5903.25304231393
1.128,1.1151890737928658,5909.261971643719
1.132,1.0965301600319415,5900.6780794867245
1.136,1.0976776229077114,5909.216340111919
1.14,1.118219994448482,5898.094718713842
1.144,1.1530198550500979,5907.843547704193
1.148,1.1931738341673743,5900.696538445472
1.152,1.22804346707942,5898.798228021813
1.156,1.2477946977627665,5908.103931408016
1.16,1.245716285683246,5906.5555959811445
1.164,1.219710278255344,5899.457648422524
1.168,1.1726660081135534,5896.666914281736
1.172,1.1117780374331812,5894.346896896639
1.176,1.0471106517206532,5897.010046577006
1.18,0.9897814179557127,5891.209107254952
1.184,0.950077570425177,5898.9213809245575
1.188,0.9357438123981963,5895.008764033117
1.192,0.9506602103568619,5906.564235184395
1.196,0.9941344068386241,5897.54904922664
1.2,1.0609647725718718,5899.943551507931
1.204,1.142255185328344,5901.407040582906
1.208,1.2267962974901494,5898.340598294322
1.212,1.30279166448604,5895.712950172723
1.216,1.3597328807378486,5902.706549308181
1.22,1.3901834356741856,5904.672491386414
1.224,1.3911384970547862,5900.999860965638
1.228,1.3646185296845106,5902.527403298352
1.232,1.317297552474596,5901.370266297583
1.236,1.2592144682509874,5896.450005742712
1.24,1.2018396056605096,5904.479217273829
1.244,1.155872855623911,5899.240937075856
1.248,1.1291880587307912,5894.58419809927
1.252,1.1253828224394442,5900.01242148922
1.256,1.1433232849926405,5893.626866727993
1.26,1.1777572799840705,5899.009322259044
1.264,1.2206947414017781,5900.456732692249
1.268,1.263144228621858,5900.449931153997
1.272,1.2969316367416166,5900.671835723168
1.276,1.3163956128591798,5898.363101656539
1.28,1.3196504048608453,5893.485204789674
1.284,1.30906176154674,5897.252110370013
1.288,1.2907279130705824,5896.163901809392
1.292,1.2729718045018188,5899.364387242489
1.296,1.2640884049483017,5898.907864247376
1.3,1.2699152578175594,5895.889865380829
1.304,1.292022735502352,5905.299421557099
1.308,1.3271373123557342,5904.461627136967
1.312,1.367884712686844,5898.4547440977885
1.316,1.4045044249991792,5905.547793127942
1.32,1.4270691036388363,5898.425916631073
1.324,1.427768212426053,5899.317974492826
1.328,1.4028133982549675,5902.2296835824445
1.332,1.3535366814242464,5901.937487635967
1.336,1.2863500115846496,5902.872315680615
1.34,1.211444970089366,5900.83172061758
1.344,1.140466922243648,5900.231585820013
1.348,1.0838039627510123,5910.413701646194
1.352,1.0483337002576385,5905.525844555094
1.356,1.0362898294912164,5899.837683326178
1.36,1.0454227941200482,5897.462104592502
1.364,1.0701307332744388,5900.958106009663
1.368,1.1030340567528885,5900.308079142665
1.372,1.1366014190518694,5901.146468633874
1.376,1.1646354680997415,5905.387394556872
1.38,1.1834415916710828,5898.151421204561
1.384,1.1923965424722387,5906.111947757333
1.388,1.1936475359571042,5904.578693569377
1.392,1.1909351277574307,5898.639468766548
1.396,1.1879651503760797,5902.28668020154
1.4,1.1870746470163243,5901.285958918797
1.404,1.1888099383126294,5902.746463368559
1.408,1.1924429036575608,5902.182719283462
1.412,1.1968468028519048,5906.0028429629865
1.416,1.2010468317658787,5904.972083670183
1.42,1.2041903802468719,5902.626685537652
1.424,1.20521368068962,5898.016078794226
1.428,1.2026840255916371,5899.459059125009
1.432,1.1951030386832975,5897.284649262208
1.436,1.181600389258057,5899.441344564965
1.44,1.162675386524597,5901.577381882516
1.444,1.1405625671691633,5906.890868199274
1.448,1.1189268044570784,5888.934384665688
1.452,1.101891822881671,5909.828117204036
1.456,1.0927111934277478,5899.67329634495
1.46,1.092523610756533,5908.442420288655
1.464,1.0995959576826426,5904.510755619568
1.468,1.1093548635651942,5899.237262030631
1.472,1.1153396834819986,5907.58479032381
1.476,1.110930678535077,5901.003640643341
1.48,1.0913951343629213,5897.266059195244
1.484,1.055606010868489,5901.808690494921
1.488,1.0068134096911647,5903.25441267312
1.492,0.9520991564598594,5897.886217121313
1.496,0.9005786137283194,5906.754852526248
1.5,0.8609010559211361,5904.721125573977
1.504,0.8388966206720598,5913.55218913893
1.508,0.836118409870716,5902.539721205363
1.512,0.8496010636273971,5897.558957596296
1.516,0.8727264559285082,5899.756597642629
1.52,0.8969031238014923,5906.9189092164825
1.524,0.9137517653270361,5900.617887868967
1.528,0.9173879091619896,5899.775593366915
1.532,0.9061583140489603,5903.151155346666
1.536,0.883111304143627,5900.074190292132
1.54,0.854842593123035,5891.958995374687
1.544,0.8290660174710742,5903.558720428905
1.548,0.8119047809740155,5898.53894881217
1.552,0.8060540347033618,5900.907406493533
1.556,0.8104861240426939,5905.611798926987
1.56,0.8215535646463205,5902.000436355645
1.564,0.8347198652752742,5906.108801378961
1.568,0.8460551217186135,5898.415230890508
1.572,0.8530151189158022,5899.533539705601
1.576,0.8545344821462711,5905.982737315984
1.58,0.8507662162746779,5905.224214436156
1.584,0.8427975203528397,5905.826552328448
1.588,0.8324825228784967,5916.772123817202
1.592,0.8223114662882469,5909.827795658348
1.596,0.8151250445191959,5906.189280882701
1.6,0.8135828460118029,5906.187702273759
1.604,0.8195264996943905,5908.119745005674
1.608,0.8334945157896824,5901.182837176163
1.612,0.8545294018330877,5897.879179567713
1.616,0.8802370272113416,5904.328850301771
1.62,0.9070152350107691,5904.958542983754
1.624,0.9304412553975346,5914.498925102032
1.628,0.94585258588459,5901.395617950941
1.632,0.9491131428980574,5895.342369718603
1.636,0.9374578112412555,5902.456881212058
1.64,0.9102240037904924,5909.548489993751
1.644,0.8692758114997433,5904.732030059855
1.648,0.8189782852127031,5894.839857210364
1.652,0.7656108044153522,5899.223637942219
1.656,0.716175030586439,5909.227875764195
1.66,0.6767630100914153,5913.2230674621815
1.664,0.6509359202007511,5901.577940405935
1.668,0.6387321137821779,5901.515334827395
1.672,0.6368282755805904,5906.9477712408125
1.676,0.6399620936096716,5903.080182737648
1.68,0.6431169798866871,5906.900117415961
1.684,0.6435336804026737,5896.963037939706
1.688,0.6416699675416029,5901.7277515463575
1.692,0.6407398289070694,5904.529279958446
1.696,0.6451242503503544,5918.768837892945
1.7,0.6584433932053886,5897.961084402277
1.704,0.682170522864816,5897.1858340266745
1.708,0.7152811323990036,5903.397708472836
1.712,0.7548190569221045,5904.195596272133
1.716,0.7968380809043704,5904.990058251867
1.72,0.8371644988698418,5902.298093359264
1.724,0.8717488246491938,5904.224002977286
1.728,0.8967720199487536,5907.822271507526
1.732,0.9088357551866191,5896.906542874674
1.736,0.9053810366046634,5908.3743872599625
1.74,0.8851763339417938,5902.632412585858
1.744,0.8486155034733084,5897.554528639493
1.748,0.7977078084031736,5900.134649604739
1.752,0.7358355642092259,5896.261455479748
1.756,0.6674452442041559,5910.621986070024
1.76,0.5977850320059582,5902.9110323206005
1.764,0.5326519948217138,5905.650048238747
1.768,0.4780032234635481,5908.759581363336
1.772,0.43935037896499585,5910.107827056584
1.776,0.4210433287487184,5904.19962367164
1.78,0.4256347359555657,5900.399149381242
1.784,0.45340578892332106,5898.227896323086
1.788,0.5020125034670831,5906.814381224186
1.792,0.5662825894589972,5904.601135460737
1.796,0.6383624881584383,5904.846891252251
1.8,0.7084435951743028,5906.129770342826
1.804,0.7661161993117243,5897.776769575201
1.808,0.802134005718664,5908.704488598501
1.812,0.8101726116896596,5902.862572913588
1.816,0.7881264674435072,5906.985117812986
1.82,0.738623951400092,5904.0937668076895
1.824,0.6686596184808461,5896.106418106582
1.828,0.5884286701418682,5901.934110461785
1.832,0.5095728526244588,5900.54553295912
1.836,0.4431613990219331,5905.815941655226
1.84,0.3978460955206917,5898.922349536296
1.844,0.37864483341577265,5905.420942353202
1.848,0.38661665110400634,5899.002860526748
1.852,0.41935884971504783,5899.507206396219
1.856,0.4719848359328292,5906.871136584783
1.86,0.5381541976400587,5906.10398324141
