时间(s),电压(V),幅值(高频80K)
0.0,0.5896787323476559,5892.782270992364
0.004,0.7171978239945338,5896.842307209456
0.008,0.8352128574611737,5896.272098517933
0.012,0.9365094469819717,5910.222770424155
0.016,1.0164263092264219,5885.260635414298
0.02,1.0730924742314876,5902.568541407157
0.024,1.1070893895519252,5903.662888841343
0.028,1.1209162450776655,5889.691157216577
0.032,1.1184717702279323,5895.449873772546
0.036,1.1045538784197777,5900.183158332539
0.04,1.0843179787553885,5906.573346043544
0.044,1.0626878047084247,5894.795605750327
0.048,1.0437615375543075,5893.252135295755
0.052,1.0302788218867374,5895.230914445484
0.056,1.0232748287768942,5898.886960022505
0.06,1.0221410716775396,5890.845518254147
0.064,1.0252675436303929,5896.1779511472105
0.068,1.0311009325730716,5898.011315019387
0.072,1.039022644179379,5903.959415625059
0.076,1.0494364856735305,5900.753377025046
0.08,1.0630387533714232,5886.306867506612
0.084,1.0798882416822353,5898.568926115077
0.088,1.0989453207136395,5888.786018482778
0.092,1.1182553734731147,5904.041927582744
0.096,1.135509665689724,5902.301757263014
0.1,1.1486621294829442,5900.236388050584
0.104,1.1564279750040602,5893.342377821669
0.108,1.1585701590012873,5905.136012009228
0.112,1.155889525090226,5900.558014421125
0.116,1.1499134253063157,5899.85730053519
0.12,1.1424316734322677,5895.7421502280185
0.124,1.1351040592578057,5901.756652074421
0.128,1.1292519603655562,5882.974714044578
0.132,1.1257427650809675,5898.561713209007
0.136,1.1248077293563383,5894.529292575302
0.14,1.1258017864013228,5911.819361166373
0.144,1.12713889347045,5894.022209133239
0.148,1.126651299009243,5904.933108690473
0.152,1.122372015220671,5905.487302296459
0.156,1.1134285518772877,5903.732248778434
0.16,1.1006007065590948,5897.3369711497535
0.164,1.0862133791552406,5904.461195372422
0.168,1.073320445932481,5895.604938855639
0.172,1.0644580231339267,5899.842184871199
0.176,1.0604988894580702,5904.302673030574
0.18,1.0601902199149609,5902.641459382509
0.184,1.0606713676426627,5898.298644917178
0.188,1.058735320578703,5901.3494520061895
0.192,1.0521826296660985,5902.701468354996
0.196,1.0406297543142076,5896.12715845493
0.2,1.025509903990923,5896.359977372795
0.204,1.0094154623678333,5900.200051925243
0.208,0.9951471162047286,5897.953097417815
0.212,0.9848664439916683,5897.189498891338
0.216,0.9796683285976031,5901.139642192455
0.22,0.979700357217355,5906.013717755288
0.224,0.9846871397559992,5907.334193583221
0.228,0.9944979448989876,5904.982066210599
0.232,1.0093804903135426,5894.887708320449
0.236,1.029712441728918,5907.704952663385
0.24,1.0554377058380233,5893.169040864942
0.244,1.0855202107107629,5898.868848337896
0.248,1.117684148949412,5895.609987601201
0.252,1.148537708966751,5898.787128154581
0.256,1.1740513547842037,5901.574379716752
0.26,1.1903210491068485,5899.169888580935
0.264,1.1945005146266228,5903.346162276077
0.268,1.1856598032691472,5895.920773529967
0.272,1.1652251924724368,5896.936748276251
0.276,1.1367629100601062,5905.5748187634645
0.28,1.1051781221019332,5895.480893158785
0.284,1.075667886838223,5901.341049972322
0.288,1.0527821772088546,5896.712573158382
0.292,1.039760652188917,5897.686356553759
0.296,1.0381337261340702,5895.016041948832
0.3,1.0475143399464,5894.10635627995
0.304,1.0655280277396488,5899.986895972518
0.308,1.0878979973829384,5896.119703063314
0.312,1.108810792117367,5894.480909254695
0.316,1.121761893721225,5903.898423453151
0.32,1.1209843903675043,5897.619297868083
0.324,1.1032581259906085,5902.48444491305
0.328,1.0695372558108471,5902.333361457221
0.332,1.0256677938385586,5902.9603874549975
0.336,0.9816441559548161,5912.086586571994
0.34,0.9493347754671515,5905.869942912489
0.344,0.9392069663946039,5894.512257598628
0.348,0.9570717030849493,5906.786617144002
0.352,1.0020142172650521,5900.071431558942
0.356,1.066309579786607,5900.039195214106
0.36,1.1373637917910844,5901.5723761222125
0.364,1.2009953412281604,5903.474489145386
0.368,1.2450244680220655,5895.654402069866
0.372,1.2621659838371888,5891.01247290318
0.376,1.2514852935176108,5899.780158734598
0.38,1.21811895862669,5893.334654368369
0.384,1.1714961518426004,5899.749092671446
0.388,1.122704560741506,5895.421915742108
0.392,1.0817568140401366,5897.81981086278
0.396,1.0554064811482764,5901.381045207169
0.4,1.0459895649127886,5902.885779326641
0.404,1.0515265605181487,5897.364998941946
0.408,1.0669613106921032,5898.74535336509
0.412,1.0860515459653028,5906.30908375488
0.416,1.103263588407295,5899.315554701689
0.42,1.1151146397176546,5913.497670408506
0.424,1.1206425529877249,5891.170475864711
0.428,1.1209771085296314,5902.291282216689
0.432,1.118308945621041,5897.284862273576
0.436,1.1147883501383693,5909.725743985078
0.44,1.1118543783315482,5903.075750944081
0.444,1.1101668452383364,5903.239004818506
0.448,1.1099153553670558,5894.3858004323765
0.452,1.1111170447143948,5902.107978626338
0.456,1.1136730019055279,5895.774759786038
0.46,1.117218068715645,5901.017507699672
0.464,1.1209460567555376,5902.298721820538
0.468,1.1236083320312202,5905.879510085064
0.472,1.123819468135331,5901.572501405937
0.476,1.1206428237396677,5908.619017631206
0.48,1.1142047819164416,5898.745751014585
0.484,1.1059711048120437,5903.894086987314
0.488,1.098470319262092,5903.915908213178
0.492,1.094580625176396,5903.320813841287
0.496,1.0967169916227402,5903.813387497012
0.5,1.1062071775881483,5893.403448583282
0.504,1.122966470185917,5891.993779775626
0.508,1.1454548294980198,5898.007732240927
0.512,1.1708595190016033,5904.248665968576
0.516,1.1954688443793366,5894.336663142489
0.52,1.2152575703729513,5905.769318753791
0.524,1.226686974223577,5895.649745725181
0.528,1.2275722171895698,5899.506596504313
0.532,1.2177204027871258,5896.027202614028
0.536,1.1990724453484185,5903.811921755959
0.54,1.175287626381684,5897.87827243821
0.544,1.1509343240162657,5895.453985026005
0.548,1.1305536756285002,5896.939217388826
0.552,1.1178197688193958,5898.164584025021
0.556,1.1149126039687047,5899.4811611563055
0.56,1.1221546559711315,5900.723215333556
0.5640000000000001,1.1379664203701105,5899.095450618874
0.5680000000000001,1.1592046683739845,5899.992609610811
0.5720000000000001,1.18188051485271,5903.556195774352
0.5760000000000001,1.2021061146210308,5900.805848084679
0.58,1.2169819540073508,5894.255483439653
0.584,1.2251341211235767,5906.576255071691
0.588,1.2267579757830165,5900.843081342077
0.592,1.2232080350178827,5900.036026505432
0.596,1.2162885736912452,5910.626506444981
0.6,1.2074433938924771,5904.152217677742
0.604,1.1970718743621138,5894.433584384008
0.608,1.18422190988743,5908.138842556247
0.612,1.166855633148475,5902.462475271022
0.616,1.1426969798784035,5897.382592215466
0.62,1.1104278036970272,5894.553629595482
0.624,1.0708253476583025,5905.090054319058
0.628,1.0273607659438024,5904.203015194804
0.632,0.9858263008159616,5903.459575462305
0.636,0.9528522864607794,5902.353771884384
0.64,0.933741931953367,5898.554365998738
0.644,0.930556550829891,5900.606038762091
0.648,0.9413559532187686,5895.4363997353485
0.652,0.9608842261591429,5890.178090941072
0.656,0.9822671337495278,5906.861948579209
0.66,0.9989546286481028,5904.596974640637
0.664,1.006263383089556,5902.970499630843
0.668,1.002187717331683,5906.640277076072
0.672,0.9874497670522406,5900.505441975542
0.676,0.9649937294663006,5900.164250513373
0.68,0.9392244596848538,5892.92799083682
0.684,0.9151960996914836,5900.557634253764
0.6880000000000001,0.8978003450111133,5899.444033617309
0.6920000000000001,0.8909826996533458,5897.918427981803
0.6960000000000001,0.8971123565357683,5898.327105223735
0.7000000000000001,0.916649703427725,5910.120909506924
0.704,0.9481307312214853,5892.707332154041
0.708,0.9883804034400053,5890.491311906498
0.712,1.0329058816266028,5896.566980593912
0.716,1.0765045764701398,5907.626779856858
0.72,1.1140696406845627,5895.395315133223
0.724,1.141413807540688,5903.226535392781
0.728,1.155887697833556,5902.385909563237
0.732,1.1567162853154551,5902.941484568567
0.736,1.145109123094366,5896.303306431823
0.74,1.1241583419914478,5904.73804269652
0.744,1.0984392618867036,5912.295871072902
0.748,1.0732370453629365,5896.509691861575
0.752,1.0534454208098047,5903.782607266619
0.756,1.0423465851236025,5909.915725448427
0.76,1.0406227007587276,5897.6113860234
0.764,1.0460040754428555,5885.045256556474
0.768,1.0538558408175212,5902.622189138557
0.772,1.0587064460878155,5894.844969516927
0.776,1.0562985961939209,5898.971855014749
0.78,1.0454011569396813,5896.576358508592
0.784,1.028580314418722,5900.965491280836
0.788,1.0114783136702887,5905.024129508844
0.792,1.0007992825019953,5894.8680827195
0.796,1.0018701182758911,5897.881836179876
0.8,1.0168872333144017,5896.169173434727
0.804,1.0445098322363138,5912.975124491067
0.808,1.0806319652484957,5890.49404690038
0.812,1.1196395197865898,5904.645429453759
0.8160000000000001,1.155552853365192,5897.910339752238
0.8200000000000001,1.182875667156086,5902.665950691483
0.8240000000000001,1.197282842228255,5896.907102698278
0.8280000000000001,1.196317121000871,5899.355780510805
0.8320000000000001,1.1800738516460028,5894.892769044799
0.836,1.1515855930176098,5910.555348326926
0.84,1.1165096510648658,5897.714892788235
0.844,1.081936776800293,5900.02306467472
0.848,1.0545846247353676,5900.104561379943
0.852,1.0390191623347844,5906.362568954044
0.856,1.0365908715984573,5903.352717538974
0.86,1.0454246566757184,5904.988099805523
0.864,1.061292219245844,5901.52435509563
0.868,1.078881216818938,5891.454979766863
0.872,1.0930111896550236,5904.221206527765
0.876,1.0995790809642183,5904.3132213491945
0.88,1.0962172788596967,5894.960046720433
0.884,1.0826898729929657,5895.800265626362
0.888,1.0609658390250332,5900.153309950085
0.892,1.0348684951475076,5895.410190875509
0.896,1.0093241049848607,5902.484685759631
0.9,0.9893899905089897,5901.890908008228
0.904,0.9792837586258736,5899.53142182355
0.908,0.9815939038192437,5897.954101319382
0.912,0.9967841844563374,5903.179768116635
0.916,1.0230193840613293,5908.013666406889
0.92,1.0563224568611793,5887.776209633572
0.924,1.0911550002846286,5901.294567209034
0.928,1.121514516440688,5899.293156213133
0.932,1.1424072974932349,5905.580491324603
0.936,1.1512257967720623,5895.320868051003
0.94,1.1484427162202075,5899.140848173327
0.944,1.1372900635703527,5901.7615889117815
0.948,1.122576715870997,5907.948626862375
0.952,1.109182692443678,5907.203665510426
0.956,1.1008168207265583,5904.235834498939
0.96,1.0993764989996062,5901.035840186351
0.964,1.1049292576180456,5890.436139159844
0.968,1.1161308337230287,5900.8547184884255
0.972,1.1308321855870274,5908.298208619023
0.976,1.1466498405780772,5891.632092820098
0.98,1.16134493955583,5898.795927464819
0.984,1.1729620774381957,5903.443839228307
0.988,1.1797862920942652,5898.33670291555
0.992,1.1802625896748329,5896.79704517132
0.996,1.1730721201635113,5902.729548428207
1.0,1.15750698064136,5902.437581292394
1.004,1.134069645191176,5901.388316137566
1.008,1.1049433986464383,5908.119393716317
1.012,1.0738975056018434,5907.31062728379
1.016,1.0454627227423714,5901.170283910765
1.02,1.0236859174688049,5902.260683365325
1.024,1.0110915036653472,5906.482625778504
1.028,1.0083635079013518,5896.081558778012
1.032,1.014761571154612,5891.934667267405
1.036,1.0287970994503735,5903.225686140184
1.04,1.0486285879590411,5912.181397944178
1.044,1.0719917446911391,5900.101237183094
1.048,1.0958941530598503,5896.58225845026
1.052,1.1164523648318307,5896.3261647889885
1.056,1.129133298684766,5897.798955148603
1.06,1.1294674735753252,5909.191442372755
1.064,1.1141115293369368,5898.440076654208
1.068,1.0819422996635655,5896.289138251004
1.072,1.0347507090650685,5901.793171741209
1.076,0.97720153259125,5900.372757551424
1.08,0.9160225193652326,5896.969906634074
1.084,0.8587222256875513,5894.578654211025
1.088,0.8123178904161876,5890.73987194557
1.092,0.7824692789502588,5894.368744466806
1.096,0.7731049238357794,5898.436280651784
1.1,0.7862891846819227,5908.193176721269
1.104,0.8219646956491898,5907.730891041242
1.108,0.8774521019553829,5900.509522490437
1.112,0.9470340314144475,5899.688227249252
1.116,1.0221882220293494,5910.165053282851
1.12,1.0928063202547125,5890.538122402111
1.124,1.1492044542154054,5904.925051342778
1.128,1.1842852441394836,5902.330628982124
1.132,1.1950873348906104,5901.55810883115
1.136,1.183164927320678,5906.938708108365
1.14,1.1536676472600964,5889.551253027353
1.144,1.1134844068996301,5900.337338547469
1.148,1.0691811707455547,5900.95545897364
1.152,1.025521254680191,5898.92208365314
1.156,0.985064645363639,5905.189097562761
1.16,0.9488542172497152,5894.900148055124
1.164,0.9177332915260338,5905.555452572099
1.168,0.8935697537395252,5896.70113841149
1.172,0.8797165531149295,5906.856289539274
1.176,0.8804343051936024,5905.795309694646
1.18,0.8995284514855136,5893.698387008873
1.184,0.9388054453168851,5903.85949726421
1.188,0.9969780905786921,5898.484750015524
1.192,1.0694108846330372,5901.916607791479
1.196,1.148763331921348,5899.570563386124
1.2,1.2263114567598206,5895.692442325283
1.204,1.2935553774400879,5901.77422049116
1.208,1.3436595265348739,5893.315400934973
1.212,1.3723598313853105,5904.775656676085
1.216,1.3782097214466296,5898.249194406049
1.22,1.3622930617753901,5898.090589462546
1.224,1.3276445684439535,5901.706186224162
1.228,1.2785707996623195,5904.918098574891
1.232,1.2199786485010338,5901.055112641384
1.236,1.156781359616487,5894.167884783959
1.24,1.0934327331564093,5909.159168034914
1.244,1.0336000299871324,5897.546396166695
1.248,0.9799753003204756,5898.3489347028735
1.252,0.9342604134259618,5902.472748848528
1.256,0.8973498991247132,5900.727227563222
1.26,0.8696427481298435,5896.184606839814
1.264,0.851343026011071,5894.930134259665
1.268,0.8426357405406526,5899.575082265683
1.272,0.8437034409939448,5897.404184134463
1.276,0.8546065359217914,5900.31315339712
1.28,0.8750697597350311,5904.260601702503
1.284,0.9042282657523996,5890.544880894841
1.288,0.9404118675618286,5899.98304654822
1.292,0.9810675585698481,5903.798910151879
1.296,1.0228957031835644,5897.032469818665
1.3,1.0622022820894985,5897.997842616272
1.304,1.095415212189029,5901.13634841953
1.308,1.11968803447138,5898.070247882533
1.312,1.1334266321686164,5905.304186165487
1.316,1.1364684991335277,5896.2059379888815
1.32,1.129756360979498,5900.145114799809
1.324,1.1146943818096549,5894.211858673451
1.328,1.092599894283872,5899.552986493946
1.332,1.064530622439495,5897.072664549468
1.336,1.0314683632101354,5898.969874839518
1.34,0.994663194778784,5903.137089880669
1.344,0.9559435658632458,5908.130986334961
1.348,0.9178718016674449,5905.573374549144
1.352,0.8836781510067283,5886.079946988749
1.356,0.8569326156281721,5894.223741692873
1.36,0.8409726187507471,5891.081915670422
1.364,0.8382109486129538,5899.229213809443
1.368,0.8495169608757456,5906.511090426167
1.372,0.8738274268512886,5901.863445703197
1.376,0.9080606341344385,5909.3808451050645
1.38,0.947379252269239,5888.565411780452
1.384,0.9858554830443508,5898.415397453075
1.388,1.0175155252616788,5901.581050805439
1.392,1.037569825333357,5898.514564902577
1.396,1.043522458442629,5901.908299509414
1.4,1.0358654213809573,5898.404757133659
1.404,1.0181180329516641,5893.624498018962
1.408,0.9960786929256382,5893.982539169908
1.412,0.9764113071650079,5900.861055420381
1.416,0.9649816090178525,5896.4417831423925
1.42,0.9654521127093968,5901.36822340586
1.424,0.9785092253244414,5905.622477333387
1.428,1.001867619343996,5897.910321549964
1.432,1.0309620561726263,5908.354966466929
1.436,1.060073972958427,5890.2811777147
1.44,1.0836084618343225,5902.469090263321
1.444,1.097254283241081,5892.470949774952
1.448,1.0987680427098188,5892.507485410106
1.452,1.088233100170553,5896.492742518211
1.456,1.0678500875774968,5899.005472468188
1.46,1.0414099325977295,5902.242873661042
1.464,1.0135417955487525,5900.845945553883
1.468,0.9888144240641845,5893.607566964973
1.472,0.970859085859899,5897.006468997479
1.476,0.9617260816274958,5888.220614935011
1.48,0.9616219970356754,5915.252681097616
1.484,0.9690860113391088,5893.177198838364
1.488,0.9815707908195892,5905.793153087714
1.492,0.99623884974264,5901.409050404021
1.496,1.0106551591638935,5898.065946484335
1.5,1.0231423138473603,5907.374318483107
1.504,1.0328164188960387,5899.591328028451
1.508,1.03945734484009,5904.822131824206
1.512,1.0433039288792776,5901.024942224885
1.516,1.0448019342569936,5914.174513018619
1.52,1.0443790068101855,5886.502920858237
1.524,1.042375147980372,5895.644689060867
1.528,1.0392115580950518,5894.356105882604
1.532,1.035733314771752,5898.9556281471805
1.536,1.033508814114083,5897.724910871981
1.54,1.034830658758978,5898.506542976489
1.544,1.0422617482881305,5898.625181828338
1.548,1.0577602394143475,5902.966790536281
1.552,1.0816586130300885,5897.187060439114
1.556,1.111950231026376,5902.523960712847
1.56,1.1442749947062958,5901.577183312433
1.564,1.1727016051694479,5907.001642395942
1.568,1.1911097583372086,5898.461710731123
1.572,1.1948295474879433,5904.218431885756
1.576,1.18211903128535,5890.118066228562
1.58,1.155001994051897,5902.633362764784
1.584,1.119066774506519,5903.550435136573
1.588,1.0821199454866353,5905.771080602909
1.592,1.0519941337517524,5896.785110099904
1.596,1.0341757667492664,5887.6904010633525
1.6,1.0300977290189177,5911.953599720708
1.604,1.0367819261650273,5911.68947502434
1.608,1.048014921093203,5901.561710459363
1.612,1.0566346094231784,5900.812086255175
1.616,1.0570934616436765,5901.291280338027
1.62,1.0473865184098838,5903.999291779112
1.624,1.0296755822771857,5896.633851898255
1.628,1.009420489639286,5900.169777645144
1.632,0.9933856227664971,5900.585686070329
1.636,0.987284455765266,5896.091604336431
1.64,0.9938905160454785,5901.316221737917
1.644,1.0122160711829509,5896.550161892904
1.648,1.0379611805884048,5897.678264900673
1.652,1.0649784147983845,5910.376386600013
1.656,1.0871569548030044,5896.384920633649
1.66,1.1000632726234512,5903.527758914549
1.664,1.1018671479922177,5895.558457024392
1.668,1.0933989973682205,5899.004124352216
1.672,1.077504495141644,5905.235001795592
1.676,1.058066237065583,5897.011636902086
1.68,1.0390501774732113,5904.889870794195
1.684,1.0237459052244575,5893.051354280195
1.688,1.01421541994518,5893.538174214972
1.692,1.0109939717610557,5896.545931028415
1.696,1.0131540460178836,5910.000229440415
1.7,1.0187239977349258,5893.601878305902
1.704,1.0252305260098278,5896.608795463473
1.708,1.0301142587020897,5897.783816210917
1.712,1.0310080276096616,5900.283963524994
1.716,1.0260645317339654,5902.243690798652
1.72,1.0144289463787388,5894.202830543268
1.724,0.9966855220937703,5902.047181252766
1.728,0.9749392298864573,5904.052231535094
1.732,0.9522791733563154,5895.894378437187
1.736,0.9316817399918401,5892.971936482103
1.74,0.914770129292477,5898.38378126822
1.744,0.9010286741464412,5902.30619972277
1.748,0.887938295952998,5909.6522831213215
1.752,0.8720642819408433,5902.637666399341
1.756,0.850609713939013,5894.434001009135
1.76,0.8227331244176609,5899.1561808236565
1.764,0.7901835803549078,5897.551226153399
1.768,0.7572008738148349,5902.4486526269175
1.772,0.7297704875974781,5907.145810165063
1.776,0.714297844069889,5896.271274387706
1.78,0.7158852273458893,5897.055165559857
1.784,0.7366530118859135,5903.815509353056
1.788,0.7746810963805826,5899.848225303821
1.792,0.8240086987441707,5905.2486343993805
1.796,0.8757816175132653,5899.447331320776
1.8,0.9202417455312487,5898.488122635036
1.804,0.9489900893712377,5899.840252439406
1.808,0.9569066026990936,5895.719763801139
1.812,0.9432458759440315,5894.897048095691
1.816,0.911680467180757,5906.487615493478
1.82,0.8693589883290888,5893.534051186136
1.824,0.8252784447236675,5905.375362264166
1.828,0.788367382888517,5902.329834859734
1.832,0.7656691149710078,5903.069627055365
1.836,0.7609765131718672,5909.034107628307
1.84,0.7742160068452766,5894.978873676411
1.844,0.801764659753419,5900.498094142256
1.848,0.8376655521939471,5907.005041237615
1.852,0.8753843630064081,5898.738572909188
1.856,0.9094755791178125,5906.180071575262
1.86,0.9365767854088752,5907.16291891352
