时间(s),电压(V),幅值(高频80K)
0.0,1.2459483427325182,5899.505769447447
0.004,1.1142330295727347,5898.720928962884
0.008,1.003452676124481,5900.736429719127
0.012,0.9287699871340847,5902.048108042165
0.016,0.8956477980685299,5903.706722542554
0.02,0.8988593622508974,5898.539136143911
0.024,0.9247605999692485,5897.39180292651
0.028,0.9560536487674465,5900.099185053407
0.032,0.977317920107061,5891.643211522634
0.036,0.9793884465025761,5899.7638494496505
0.04,0.9612973793233359,5908.513393503175
0.044,0.9295248413323077,5901.370868343764
0.048,0.8951612379162659,5902.965803847851
0.052,0.8700034412388161,5901.164905443175
0.056,0.8627250749238842,5898.036552022704
0.06,0.8762335324059679,5898.927065718716
0.064,0.9070278056770109,5905.762354424308
0.068,0.9466672060995776,5896.19403296641
0.072,0.9846322621342622,5901.797194666799
0.076,1.0114305797850158,5900.826532508502
0.08,1.0209786193164765,5903.448816815835
0.084,1.0117954879872582,5900.472643530805
0.088,0.9869831170130311,5900.842556490041
0.092,0.9532026025073776,5897.630027915361
0.096,0.9189880441257308,5901.238569955112
0.1,0.8928197162866577,5899.809132059051
0.104,0.8813318316286483,5897.543892713953
0.108,0.8878834722565102,5893.557573041182
0.112,0.9116744267275634,5896.355528330158
0.116,0.9477062827682884,5897.895401789352
0.12,0.9879119795085288,5895.5085722906215
0.124,1.0234095618649603,5902.763458736082
0.128,1.047192060402007,5894.5151486758
0.132,1.056168709206213,5906.1277822788825
0.136,1.0517305844759954,5903.251785955206
0.14,1.0387588577505673,5896.6802959873685
0.144,1.023655467446253,5906.113443310498
0.148,1.0121742635112223,5904.921750927352
0.152,1.0076648099518444,5898.118043139553
0.156,1.0100976881695631,5893.759534079252
0.16,1.0160500198313613,5895.45704743039
0.164,1.0196654730668524,5913.251096084124
0.168,1.0143878795202028,5900.531023348688
0.172,0.9950024489498487,5897.235204090393
0.176,0.9593961115494402,5900.659914349261
0.18,0.9096202598054346,5899.593799986305
0.184,0.8520957727885659,5910.416002175586
0.188,0.7968573985449682,5903.080327948368
0.192,0.7557297515661376,5908.745309865457
0.196,0.7396087880015781,5891.4766198975085
0.2,0.7555406274011536,5898.007447124953
0.204,0.8045895797939926,5896.24905792886
0.208,0.8812811848016321,5894.467877514065
0.212,0.9748399690939418,5902.547471120009
0.216,1.0718215388322554,5899.400302964645
0.22,1.159280492945568,5890.968296415771
0.224,1.227475028248205,5899.692927457245
0.228,1.2713759590605676,5891.844135720617
0.232,1.2907930947905906,5901.816360847473
0.236,1.289426047336614,5908.199676446003
0.24,1.273349466009483,5910.772068205098
0.244,1.249378234750455,5900.664640094116
0.248,1.223586851884282,5902.964538384927
0.252,1.2001232678559157,5895.293243552276
0.256,1.180433384745037,5908.177307134524
0.26,1.1630572967832296,5903.375907837074
0.264,1.1441626331659691,5903.5241318128055
0.268,1.1188776045968605,5903.769415869291
0.272,1.0832534973280272,5900.245326505102
0.276,1.0363312529777708,5904.997934690332
0.28,0.9814747435218245,5907.212701119586
0.284,0.9261725479642015,5896.110449460273
0.288,0.8800390827464682,5905.789451076815
0.292,0.8515578687481167,5899.455289548105
0.296,0.8448190003320508,5896.455376839675
0.3,0.8577146713274312,5901.1213135570215
0.304,0.8825106266516597,5900.10673658918
0.308,0.9085918914588044,5886.771654500034
0.312,0.9261650931245898,5895.193874664817
0.316,0.9293895587816533,5899.999334392635
0.32,0.9178292848646085,5902.187874489225
0.324,0.8958961068043405,5896.3119194165365
0.328,0.8707249358307476,5897.273045572197
0.332,0.8494371076637196,5895.375395650721
0.336,0.836874634062762,5899.98168276283
0.34,0.8346145983466806,5891.288475242195
0.344,0.8414800327697747,5896.081702940631
0.348,0.8550626480642428,5897.825359793298
0.352,0.8733192720525498,5894.218561942383
0.356,0.8953840995520578,5898.201434030803
0.36,0.9213045704151264,5904.091936695816
0.364,0.9510700835828142,5899.87839024894
0.368,0.983613059281133,5897.562544564183
0.372,1.0162923786250815,5900.471668042483
0.376,1.0450138027661677,5890.561169767344
0.38,1.0649470169917281,5908.368258058243
0.384,1.0717461429318917,5903.561143589404
0.388,1.0630061693162898,5896.214232899928
0.392,1.0393758653217042,5897.884280377049
0.396,1.0046757796755628,5892.111405591365
0.4,0.9648108660011144,5898.422932230149
0.404,0.9259188375539202,5906.6990117598125
0.408,0.8925210911505452,5905.436860444176
0.412,0.8663417011250437,5899.476327679577
0.416,0.8461989663613902,5901.02877955944
0.42,0.8290469727938659,5898.2536295718055
0.424,0.8117898723914148,5898.818730532739
0.428,0.7931018237108836,5899.854315533989
0.432,0.7744905655274484,5895.580397823198
0.436,0.7602299159408834,5899.676238318895
0.44,0.7562145934012194,5886.129321349109
0.444,0.7680377817829748,5898.266700929672
0.448,0.7987419029110453,5901.220914681968
0.452,0.8468922484639881,5896.714470965491
0.456,0.9057779275110835,5892.28203228043
0.46,0.9643610329630722,5895.526548334656
0.464,1.009964332384865,5900.13089819595
0.468,1.0319075349974305,5902.95449873263
0.472,1.0248201347125028,5900.685907749371
0.476,0.9904097609632848,5899.021214252223
0.48,0.9370078655773424,5894.169760723054
0.484,0.8770601359401051,5903.150449250779
0.488,0.8235552106916082,5906.340187583746
0.492,0.7867493379237893,5902.646921370199
0.496,0.7722014292536579,5894.438365610475
0.5,0.7803620555986739,5894.1762614212985
0.504,0.8073294257553806,5893.06383567783
0.508,0.846192285291348,5907.403287793619
0.512,0.8884961324631183,5910.290743474313
0.516,0.9255661387890488,5901.430592935505
0.52,0.9496126031749097,5898.086123678542
0.524,0.9546954895334507,5902.665874017119
0.528,0.9376323243387406,5908.4955222149765
0.532,0.8987718237910738,5902.652553810181
0.536,0.8423866473579898,5892.12829956653
0.54,0.7764392100211873,5899.301050798321
0.544,0.7116392260837872,5903.847304455074
0.548,0.6599021086247778,5898.019104963239
0.552,0.6324222997951339,5888.675791229445
0.556,0.6376050390253778,5902.41134196272
0.56,0.6791449378964124,5901.278990116096
0.5640000000000001,0.7546411782387902,5889.454377910816
0.5680000000000001,0.8552241397925583,5901.744239539828
0.5720000000000001,0.9666018375213664,5896.766794242714
0.5760000000000001,1.0716052010653012,5902.7690448411895
0.58,1.1537430210160613,5894.631273242563
0.584,1.2007563823268175,5887.907441995465
0.588,1.2070991430149125,5893.895782778956
0.592,1.1747392486508552,5912.382349077898
0.596,1.1122899649169504,5891.813322735791
0.6,1.0328730650665596,5893.951341867507
0.604,0.9512537533927434,5901.918750275327
0.608,0.8808055572343192,5897.06232663385
0.612,0.8308707707216842,5899.141743570584
0.616,0.8050672830040274,5899.512812106106
0.62,0.8009407460702922,5897.290616299454
0.624,0.8110474775058717,5903.067583219151
0.628,0.8252261919548044,5898.981368703734
0.632,0.8335765974685845,5899.7860318056255
0.636,0.8294507126363264,5898.705303849142
0.64,0.8115917175246448,5900.194733091608
0.644,0.7846300394250127,5897.579061021907
0.648,0.757608364066382,5900.262254169537
0.652,0.7409301016895051,5905.837443891027
0.656,0.7427866881797668,5890.408440074247
0.66,0.7663692995370158,5903.310567785329
0.664,0.808855088084049,5897.253964272787
0.668,0.8624454960601685,5898.129944881236
0.672,0.916959297892775,5897.377450667386
0.676,0.9629273432309169,5907.152056590173
0.68,0.9940118568228937,5895.406372143149
0.684,1.0079813525163879,5895.857744771158
0.6880000000000001,1.0062064800868757,5901.450242156564
0.6920000000000001,0.9922632879794201,5900.82855053488
0.6960000000000001,0.9704571088110036,5897.355146940051
0.7000000000000001,0.9449058611841141,5902.719681415819
0.704,0.9193570175715339,5893.998668125197
0.708,0.8974060749400955,5895.065325579491
0.712,0.8825734726772435,5905.661785370626
0.716,0.8778989686867794,5901.167839498612
0.72,0.885142804916687,5892.459307459855
0.724,0.904052774631335,5899.370288297817
0.728,0.9322023970017893,5909.249771550985
0.732,0.9655523096783821,5900.547722531143
0.736,0.9994099383173964,5898.422030923511
0.74,1.0292728050081061,5898.431121143425
0.744,1.0512647975875204,5896.448528407516
0.748,1.0622702541608515,5904.406597567487
0.752,1.0600977158942317,5903.872662301711
0.756,1.0438941028670197,5894.76058877435
0.76,1.0146905914887305,5903.3929982134205
0.764,0.9757059241485362,5906.621610167698
0.768,0.9321004773514477,5910.522809231577
0.772,0.8901766161706042,5892.869615292848
0.776,0.8562511538224403,5900.857777352766
0.78,0.8354359684150281,5895.113572491223
0.784,0.8304984661201037,5898.612635187346
0.788,0.8410155037346866,5904.494889065285
0.792,0.8631451606047509,5901.297717035918
0.796,0.890325688870276,5897.420669641196
0.8,0.9149438083629785,5898.143852833041
0.804,0.9305678154417312,5904.655614936106
0.808,0.9339680958965495,5907.342661219302
0.812,0.9261220106480361,5901.239355384377
0.8160000000000001,0.9117888868828854,5900.148389127687
0.8200000000000001,0.8978417360148683,5901.612174886549
0.8240000000000001,0.8910368140096887,5902.636411931707
0.8280000000000001,0.8960423481449147,5903.993621332959
0.8320000000000001,0.9142957840061163,5898.056533649221
0.836,0.9438354404050147,5902.174403312924
0.84,0.9799520740804301,5906.807028545873
0.844,1.0164029479659111,5900.854329122815
0.848,1.046888277285471,5890.755223884396
0.852,1.0664527536068424,5899.83676002322
0.856,1.0725391086130938,5896.038169149227
0.86,1.0655750832112723,5907.488946587491
0.864,1.0490360839494464,5896.403836761208
0.868,1.0288562801177008,5911.541396170168
0.872,1.0121031368538442,5909.333406831019
0.876,1.0051288805972605,5900.524534671874
0.88,1.0117505178910176,5906.802845572122
0.884,1.0320912766344514,5888.602794501292
0.888,1.0624813925954864,5895.997930827428
0.892,1.0964212322522784,5895.479913095889
0.896,1.126271684137027,5900.62703023427
0.9,1.1451827730228186,5895.256152486739
0.904,1.148769747058101,5897.480337958226
0.908,1.136115419624989,5908.155491632884
0.912,1.1098198795595884,5893.560001219605
0.916,1.0750876784790884,5903.131517782734
0.92,1.038205048732819,5895.216977226878
0.924,1.0050083338047557,5895.801346752364
0.928,0.9798480431365308,5889.640128308586
0.932,0.9651702508738399,5903.400561310207
0.936,0.9615248028522477,5901.287699317229
0.94,0.9677985032794575,5899.177706276448
0.944,0.9816207698395566,5898.344457542841
0.948,0.9999409264593552,5907.362848259485
0.952,1.0196683268950442,5896.386668549655
0.956,1.0381484483805783,5892.386119520902
0.96,1.0532954072023863,5900.008912736551
0.964,1.0634222997438252,5901.66015954038
0.968,1.0670157815770744,5901.296687714997
0.972,1.0627084687797843,5898.456607169186
0.976,1.0495429746598923,5893.621900096149
0.98,1.0274563805662633,5896.219632952802
0.984,0.9978160296970155,5900.477717137191
0.988,0.9637751593652228,5908.961790282041
0.992,0.9302014453259304,5894.560509151772
0.996,0.9030288871297824,5900.205599692685
1.0,0.888085880004208,5901.954647289156
1.004,0.8896596354198477,5891.437132298514
1.008,0.9091854361344791,5887.851978962021
1.012,0.9444725048949077,5907.9273470494645
1.016,0.989790942267213,5899.093184788929
1.02,1.036950656362587,5903.595901535478
1.024,1.0772191965581304,5909.854949237666
1.028,1.1035856100927606,5903.208630616696
1.032,1.1126092370761116,5899.018976428319
1.036,1.1051326018799543,5900.447208223189
1.04,1.0856073809531432,5891.774775895227
1.044,1.0604419229756108,5898.633841187358
1.048,1.036166129909738,5899.585884275077
1.052,1.0180722620954143,5893.9873629524445
1.056,1.0095111345062693,5902.842446606573
1.06,1.01161408810025,5898.164289340053
1.064,1.0231477284194022,5889.158370751919
1.068,1.040452332077354,5896.74944377786
1.072,1.0576918597233387,5896.772396306652
1.076,1.0676888975997143,5898.327094338493
1.08,1.0634093933246263,5901.513057438776
1.084,1.0398784501307483,5904.409815714761
1.088,0.9960790360307191,5896.201012378087
1.092,0.9362309604604566,5902.5573019713775
1.096,0.8698258663678204,5899.80049535305
1.1,0.81002275862204,5897.132020623056
1.104,0.7705295390089673,5895.73430085828
1.108,0.761761460156259,5901.36430737645
1.112,0.7875552678481145,5902.685516918656
1.116,0.8437010313157497,5892.848169410268
1.12,0.9189274254097628,5891.070834995434
1.124,0.9979862279068706,5899.090281456619
1.128,1.0656418396689513,5896.063629743463
1.132,1.1101590148774347,5898.221849730249
1.136,1.125376439105365,5899.177319986023
1.14,1.111226876310637,5903.739607344665
1.144,1.0730376514966553,5894.863017362345
1.148,1.0199613019798033,5898.61663697433
1.152,0.9628035729528444,5900.7949916605385
1.156,0.9116466539932855,5891.362516273825
1.16,0.8738631056802988,5899.7581978652
1.164,0.8530583050518782,5903.34557538344
1.168,0.8491094853551636,5896.095215327233
1.172,0.8590320399717954,5897.486551683042
1.176,0.8781979753819588,5898.841587516341
1.18,0.9015416787904191,5909.820790139206
1.184,0.924611276265632,5893.276267150392
1.188,0.9444176421071881,5899.587808001791
1.192,0.9599738268097492,5891.498515282366
1.196,0.9723455472191536,5897.519372304178
1.2,0.9840722940761968,5900.113209050739
1.204,0.9980035592714231,5909.258041435505
1.208,1.0158615171640328,5898.639287246829
1.212,1.0370453462912899,5900.04308751458
1.216,1.0581932367837494,5901.068407036716
1.22,1.0737838290003383,5892.807440334889
1.224,1.0776872353098603,5903.5645023771
1.228,1.0652188505631432,5891.439839180936
1.232,1.0350302651797016,5898.592665952927
1.236,0.9901610203210436,5903.452794964069
1.24,0.9377932863436068,5892.858513728686
1.244,0.8876695552696318,5902.1515749665805
1.248,0.8496405138101236,5905.420926585562
1.252,0.8311816602714915,5895.820255611591
1.256,0.8357133700246229,5901.696007764304
1.26,0.8621464259186586,5898.161016461746
1.264,0.9055288713036732,5902.618940933837
1.268,0.9583690323956464,5903.628755500552
1.272,1.0122468234532105,5905.656110290939
1.276,1.0594243275841098,5907.818823748747
1.28,1.094124123522002,5901.744915077386
1.284,1.1131434564736131,5889.514785361465
1.288,1.1157202347061266,5903.351240279105
1.292,1.1028985164906568,5890.258044713415
1.296,1.076767897622454,5897.207483822825
1.3,1.039848637916563,5898.289320067139
1.304,0.994741508045645,5900.7037703295
1.308,0.9440833490070426,5890.13191491086
1.312,0.890817313343094,5898.496766961112
1.316,0.8386678818024783,5905.742557420339
1.32,0.7924667237287394,5897.943919100723
1.324,0.7578422156914069,5904.635066337499
1.328,0.7400453937603684,5894.756053078755
1.332,0.7422408261525707,5894.749515048764
1.336,0.7640236260282526,5910.590006895232
1.34,0.8009553369069231,5899.743739519139
1.344,0.8455653249851688,5893.744178092764
1.348,0.8896662663991813,5895.0207007383015
1.352,0.9271482643942734,5902.150580617465
1.356,0.955977803438616,5904.337493496525
1.36,0.9783355699294055,5912.447471005768
1.364,0.998733459882979,5899.775619660515
1.368,1.021035954494637,5892.643591294911
1.372,1.045892440097868,5895.915887679055
1.376,1.0698872517287634,5905.913162175752
1.38,1.0868772313109551,5902.8383640887
1.384,1.0908627231241865,5897.717781019508
1.388,1.0788999203999539,5896.2967998292
1.392,1.0525901197248653,5896.048207668362
1.396,1.0175828178801556,5907.882747482867
1.4,0.9816191381715885,5903.538164258497
1.404,0.952172019434695,5896.136863838662
1.408,0.9345484671523453,5892.02801979908
1.412,0.9308237369232379,5893.633676028867
1.416,0.9396401249826788,5904.5577224091
1.42,0.9568141127198413,5902.327020876555
1.424,0.976634672883479,5900.354131766192
1.428,0.9935256634523997,5893.7919251346175
1.432,1.0035035894034274,5905.381432482196
1.436,1.004871692825733,5899.15143067421
1.44,0.9979423567786304,5898.144659180368
1.444,0.984068714727475,5898.607965477596
1.448,0.9646037986527328,5905.125464629893
1.452,0.9403782908049351,5901.721653111022
1.456,0.9118903726118591,5901.200347187586
1.46,0.8799322672793299,5898.177048480047
1.464,0.8461874073246604,5900.402695609238
1.468,0.8134577020346905,5897.713901835981
1.472,0.7854149486390433,5895.537570198799
1.476,0.7659551489094211,5901.138647583626
1.48,0.758349734000105,5901.55344571797
1.484,0.7644763676557695,5896.66544733127
1.488,0.7844496965511489,5905.494226945535
1.492,0.8168192066422351,5896.960217722747
1.496,0.8591286609470858,5901.165293071019
1.5,0.9083387715727284,5902.530905715929
1.504,0.9607638849827213,5900.89908127309
1.508,1.0117021532932555,5890.831588575505
1.512,1.0553461221100084,5889.231139227199
1.516,1.0854477368212903,5899.61054672502
1.52,1.096700773742258,5903.9479487073695
1.524,1.0863415451413139,5901.364530480554
1.528,1.0553483574559357,5902.117207347382
1.532,1.0087992342407102,5888.934429179243
1.536,0.9552235430376609,5911.096829457014
1.54,0.9050322185652873,5907.547414048173
1.544,0.8683419442328126,5895.661737299326
1.548,0.8527146945070849,5902.1074671909
1.552,0.8614159156251667,5892.538796137338
1.556,0.8926857775183827,5898.076024655828
1.56,0.9402490413177942,5903.734985002947
1.564,0.9949181182858639,5895.822007556084
1.568,1.046787302847666,5900.591839902189
1.572,1.0873695338754201,5905.828469286756
1.576,1.1111655502300102,5905.352381394551
1.58,1.1164203536050905,5893.001819183392
1.584,1.1050293107893638,5899.628598985179
1.588,1.0816836659182048,5906.1667472218405
1.592,1.0524642120894208,5902.84633488226
1.596,1.023243599643255,5894.794378812197
1.6,0.9983873340390528,5900.304734945805
1.604,0.9801871816078415,5894.9427922269015
1.608,0.9691197882152258,5909.749385391021
1.612,0.9645963373978593,5906.306795282016
1.616,0.9657039702497974,5903.060356273202
1.62,0.971627559620017,5908.11720175455
1.624,0.9817405104096397,5898.689754443842
1.628,0.9955021057479828,5899.626852568619
1.632,1.0122747742567888,5894.523787193815
1.636,1.0311308775646708,5906.023192692073
1.64,1.0507157803300449,5898.063460871969
1.644,1.0692082688165971,5895.247911248633
1.648,1.0843864054333014,5905.189227905707
1.652,1.0938302174875334,5898.9456391401845
1.656,1.0953056788303965,5900.138786935368
1.66,1.0872808858392506,5895.904986245827
1.664,1.0693917728221227,5892.680284683145
1.668,1.0426590033692937,5901.51046442283
1.672,1.00939516760246,5905.438181877248
1.676,0.9728869614495212,5908.104537398664
1.68,0.9369453885882438,5899.549608714047
1.684,0.9053391222794634,5896.338546138942
1.688,0.8811416335145023,5902.523076636039
1.692,0.8661838119488394,5897.602947310388
1.696,0.860922237949069,5904.429402821916
1.7,0.8648739859772918,5905.980869220261
1.704,0.8773628955109024,5909.816026930881
1.708,0.898009385978488,5903.725775550359
1.712,0.92649930145449,5899.629618341871
1.716,0.9616734209938066,5903.168149098794
1.72,1.0005392897735044,5898.999267697678
1.724,1.0380010830785125,5903.047731670298
1.728,1.0677515958936055,5895.138403424446
1.732,1.0840836748047353,5898.0462518332415
1.736,1.0838091791810023,5899.253580907467
1.74,1.0673649670051675,5906.702291393114
1.744,1.038565312188635,5899.204146008524
1.748,1.0031202500959533,5898.831069201008
1.752,0.9666438256736225,5894.654203438548
1.756,0.9330766116313018,5893.0921524433
1.76,0.9041405983397895,5909.731060021037
1.764,0.879866584387522,5905.098103468567
1.768,0.8597119166167888,5896.741302274969
1.772,0.8435504258985057,5898.549475941599
1.776,0.8319890296236578,5900.996944671617
1.78,0.8259731143996848,5905.542738308295
1.784,0.8261390659470629,5903.338906859337
1.788,0.8324633249946317,5898.813241819682
1.792,0.8443860173667175,5899.263028946726
1.796,0.8611093031689137,5902.50073058974
1.8,0.8816168380661294,5903.7230402913865
1.804,0.9042522958188038,5903.859316175377
1.808,0.9261631362414394,5906.421901762968
1.812,0.9431659001182132,5893.429944823844
1.816,0.95043330705487,5900.46468058048
1.82,0.9439605027808184,5909.314137509988
1.824,0.9223176427401845,5899.694431433473
1.828,0.8879732540518938,5896.599793951863
1.832,0.8475688177454264,5897.856480309447
1.836,0.8108896543192178,5898.675032577478
1.84,0.7887395957714952,5901.9487115167285
1.844,0.7902903090590899,5900.246589368801
1.848,0.8206512805147024,5901.588893978915
1.852,0.8793887021098761,5904.337225038605
1.856,0.9604790892650595,5903.225697455332
