时间(s),电压(V),幅值(高频80K)
0.0,1.356292276488592,5894.930402454757
0.004,1.3672495861033003,5898.195512105033
0.008,1.368867946509374,5898.548148327093
0.012,1.356560608729027,5897.962800111911
0.016,1.3312287039517237,5903.825417736089
0.02,1.2985149033325747,5899.692678841232
0.024,1.2664345810808932,5898.782469651773
0.028,1.2427833452868056,5899.837067821955
0.032,1.2332055265246074,5908.629625850501
0.036,1.2401002767466573,5898.517089809177
0.04,1.2622695393811796,5895.894489768673
0.044,1.2952620666581116,5898.600781269904
0.048,1.3323593741496869,5899.037405954202
0.052,1.3660017701284823,5899.547519387778
0.056,1.389359038493234,5898.739552052378
0.06,1.397785207823332,5906.614687116747
0.064,1.389903065341812,5895.388703669644
0.068,1.3679676419133862,5897.536183779488
0.072,1.3371742825064605,5896.707394701627
0.076,1.303944937203434,5902.00641800429
0.08,1.2738016391098774,5901.677550404144
0.084,1.2497422856169051,5908.060792005897
0.088,1.2317797941806348,5896.384407761514
0.092,1.217691705406581,5901.15839778537
0.096,1.2044888540662169,5893.928414321264
0.1,1.1899232982024912,5898.778305422663
0.104,1.1735010644768549,5904.517240614681
0.108,1.1567607719792175,5895.561935195333
0.112,1.1428632875658296,5901.902986492868
0.116,1.135725999266778,5905.023810184592
0.12,1.138970678965932,5889.9866204506525
0.124,1.1548573351159717,5907.447895107392
0.128,1.1833065722643554,5903.852239595652
0.132,1.221204230522436,5906.226804500069
0.136,1.2623462284961602,5894.936235101601
0.14,1.2983768750543696,5901.196335893736
0.144,1.320754981365363,5908.042454327347
0.148,1.3232669370499657,5901.010509453688
0.152,1.3042295939949013,5899.841963843132
0.156,1.2675664782759424,5900.403569832391
0.16,1.222346868147789,5904.361849619952
0.164,1.1808592908644178,5906.779903630939
0.168,1.1556511909878209,5896.901005934062
0.172,1.1562005650312899,5905.192002162456
0.176,1.186057143734247,5899.5984363389325
0.18,1.241375809600516,5901.880207747698
0.184,1.3115486710252109,5897.89514986031
0.188,1.381956400761724,5910.18576402547
0.192,1.4379819469663895,5907.793661079817
0.196,1.468931961667961,5903.786387742927
0.2,1.4706640706050984,5897.432257601746
0.204,1.4462685744381094,5892.435460466615
0.208,1.404707500854585,5901.220396361778
0.212,1.35778594099498,5908.279624658309
0.216,1.3163265489624112,5896.656070004795
0.22,1.2868016217018656,5893.852435961613
0.224,1.2696263785037742,5903.978580348387
0.228,1.2597311569419278,5905.047753139006
0.232,1.2491206285658214,5898.090014718093
0.236,1.2303093795066393,5897.153996693019
0.24,1.1992591333264861,5901.28600392599
0.244,1.1568550151601626,5913.34158955953
0.248,1.1086395168369958,5898.736267685407
0.252,1.063028342193255,5902.879266019682
0.256,1.0285630724103882,5900.0590429545255
0.26,1.0110861223484158,5899.880910749424
0.264,1.0118963102162257,5894.815102412026
0.268,1.0276048641227682,5904.409575441689
0.272,1.0516028768144985,5896.9157165550405
0.276,1.0763281878234645,5895.154708616412
0.28,1.0953675301985384,5901.824852354248
0.284,1.1047828710049328,5895.526676869177
0.288,1.1035180796081736,5895.151072248497
0.292,1.093084585788419,5897.589228780384
0.296,1.076908633167882,5903.943784705116
0.3,1.0596928301265578,5899.618761992739
0.304,1.0468755789607056,5900.617782434209
0.308,1.043977427487752,5890.541281872902
0.312,1.0556179492097217,5897.6539947834
0.316,1.0843117540587284,5892.563695795112
0.32,1.129492210027818,5887.342580151224
0.324,1.187226026351134,5897.867333142002
0.328,1.2507557820499886,5904.082055663242
0.332,1.3116442241464121,5898.71830072513
0.336,1.3612078976095046,5906.6431221961575
0.34,1.3921079135190162,5898.093685040559
0.344,1.4000378224190864,5902.041933723499
0.348,1.385138942438714,5889.4695928015135
0.352,1.3523940025166217,5895.079956391855
0.356,1.3104139340562022,5898.680890173699
0.36,1.26884289929025,5909.496742112015
0.364,1.235430639101325,5899.665255426706
0.368,1.2139947022256843,5906.188228462719
0.372,1.2039917847392847,5896.838907853854
0.376,1.2016716152513456,5901.605707941007
0.38,1.2021614938016234,5902.069290432585
0.384,1.201513791363267,5908.575646509132
0.388,1.19789092116642,5899.243225093337
0.392,1.191626684209403,5899.227354452576
0.396,1.1845083714509879,5895.039176520211
0.4,1.1788501197095542,5902.129011163435
0.404,1.1767408313339132,5903.359001117454
0.408,1.1795419937573175,5901.1867568768985
0.412,1.1875487293795393,5890.6822574334055
0.416,1.1997700178505573,5898.258373085926
0.42,1.2138958373285529,5909.734443280056
0.424,1.2265377280800172,5902.285995887323
0.428,1.2337754714483473,5895.920431688755
0.432,1.2320321073214253,5896.993572848305
0.436,1.2192542636420054,5900.399578317429
0.44,1.1961030722810186,5894.260144297792
0.444,1.166498985233788,5908.626119328725
0.448,1.1369079344263908,5899.2223802073495
0.452,1.1144187858476675,5906.564070670286
0.456,1.1044423872558151,5904.17530942375
0.46,1.109069589053748,5909.994133683646
0.464,1.1266623690440474,5903.931549878654
0.468,1.1526143121338832,5895.640633687229
0.472,1.180865490718549,5897.524238930754
0.476,1.2057276345187733,5906.488150905896
0.48,1.2236172501935307,5895.451410216929
0.484,1.2342364394690715,5904.27780114529
0.488,1.2407079532249001,5898.994942223799
0.492,1.248413362725749,5901.988148320663
0.496,1.2628065252024026,5899.622537177386
0.5,1.286980796888878,5902.342007973849
0.504,1.3199681244166246,5891.526460842493
0.508,1.356527712636276,5905.411402031914
0.512,1.3885696304437154,5898.7700871581455
0.516,1.4076210433652567,5894.383348192689
0.52,1.407340384049864,5896.89290298517
0.524,1.3852317233999725,5899.834044678396
0.528,1.3431564848582136,5906.807800528467
0.532,1.2866446280780397,5906.1682349929815
0.536,1.2233115258223541,5900.0193197096905
0.54,1.1609524655306063,5904.238883325771
0.544,1.1059968687024138,5899.460964635609
0.548,1.0627783420173749,5899.379461106872
0.552,1.0336207678593337,5900.333909835687
0.556,1.019374062493434,5892.475736304658
0.56,1.01992469524735,5900.254014102267
0.5640000000000001,1.0343501712146304,5895.760745198867
0.5680000000000001,1.0607192715781029,5899.243810868943
0.5720000000000001,1.0958381088972315,5897.105626900277
0.5760000000000001,1.1352392484595335,5893.381439546061
0.58,1.1734771581317984,5906.6523729001065
0.584,1.2046618206038904,5908.155448595911
0.588,1.2232218126031202,5902.5321463425
0.592,1.2248935778272811,5903.323183734703
0.596,1.2077574732991792,5900.476018527578
0.6,1.1729818264883183,5905.614207181864
0.604,1.1249911908034878,5898.642136430621
0.608,1.0709621741781998,5900.824752534572
0.612,1.0196890490130202,5902.049070680849
0.616,0.9799492905920361,5904.768997103099
0.62,0.9586489782404093,5902.671682628486
0.624,0.9592148378588269,5903.29597854925
0.628,0.9807250069080243,5897.4059756078495
0.632,1.0180357672892406,5895.226995977704
0.636,1.0628503213985205,5897.728756001552
0.64,1.105493948269866,5899.85403421945
0.644,1.1370560826461433,5895.737956545099
0.648,1.151431947403311,5902.503658233259
0.652,1.1467373556109512,5889.394761443808
0.656,1.125683306644799,5905.80443134017
0.66,1.0947422254628403,5902.97640751504
0.664,1.0622907677940086,5899.058871799884
0.668,1.0363411460196772,5906.831100162266
0.672,1.0227064265007453,5899.515322244521
0.676,1.0241852565515335,5899.178695521503
0.68,1.0407480264975653,5895.314261385162
0.684,1.0702757964983456,5901.698140286205
0.6880000000000001,1.1093927573776439,5905.240618583384
0.6920000000000001,1.154112507466421,5908.750762102326
0.6960000000000001,1.2001723776246902,5902.765044132087
0.7000000000000001,1.2431209744533127,5892.429379950826
0.704,1.2784309942317094,5899.280421404534
0.708,1.301892806006114,5904.487866419103
0.712,1.3102598410973256,5890.230527791016
0.716,1.3018574360001718,5903.933001192499
0.72,1.2768681409780174,5902.002101038958
0.724,1.2372004089747162,5899.73223311228
0.728,1.186057066552413,5901.248848556511
0.732,1.127462119064128,5897.2235688282335
0.736,1.0660196671781974,5899.763073545276
0.74,1.0069699504261698,5900.934021630644
0.744,0.9562463235145932,5905.609996369692
0.748,0.9200828507344853,5908.492643032675
0.752,0.9040354157887147,5906.23076690377
0.756,0.9117794792149099,5900.225514085019
0.76,0.9442046825122454,5905.596386315003
0.764,0.9990603924624974,5900.0329561202525
0.768,1.0711353909268577,5895.490670426722
0.772,1.15295171470007,5895.174299437479
0.776,1.2360023360425014,5898.790026693257
0.78,1.3123679551232479,5892.700894236356
0.784,1.376217569453317,5893.495860247595
0.788,1.424596701215099,5899.841765025927
0.792,1.4571784982936449,5904.803957227377
0.796,1.475121960779252,5908.298396940623
0.8,1.4796006732739755,5909.287148254081
0.804,1.4707536030338375,5908.797755842754
0.808,1.4476604042244603,5899.707342590301
0.812,1.4094481912738093,5897.400225615498
0.8160000000000001,1.35697996214555,5901.646679113128
0.8200000000000001,1.2941652345262993,5902.90431062768
0.8240000000000001,1.2281028719307778,5899.470170003699
0.8280000000000001,1.1678829851575043,5896.970280761727
0.8320000000000001,1.1224638071887907,5898.507807836877
0.836,1.0983105830452344,5895.701045674549
0.84,1.0975076271241495,5899.928121427009
0.844,1.1169273869908136,5897.577056562223
0.848,1.1487417631451278,5895.9739956437525
0.852,1.1821729040081101,5895.6451380129465
0.856,1.2060762528829507,5902.572713649372
0.86,1.211778205205324,5894.923469068986
0.864,1.1954916539360574,5898.583862092254
0.868,1.1595840999978007,5900.142664933586
0.872,1.1120922936028526,5897.347251510311
0.876,1.0643484231394318,5912.955849394649
0.88,1.0273617021807753,5895.766325228649
0.884,1.0082484256164035,5908.147132040212
0.888,1.0080395787741407,5897.465010200245
0.892,1.0216091872034831,5896.078484555306
0.896,1.0397000266202532,5906.123034579757
0.9,1.0524130150932605,5904.017098749234
0.904,1.0530648974120354,5899.700285415306
0.908,1.0410251604855085,5899.749261290854
0.912,1.022305995609372,5908.569693392633
0.916,1.0074993723616668,5904.088426080814
0.92,1.0078102976642733,5898.4837707288525
0.924,1.0307457276763554,5896.294263134954
0.928,1.0770857418851774,5896.246549406583
0.932,1.1402261735146806,5899.769384390781
0.936,1.2081371755108037,5900.737359398524
0.94,1.2672355157495572,5898.414079836263
0.944,1.3067158586434762,5898.076780002174
0.948,1.321715836152478,5895.829474629632
0.952,1.314228192033944,5894.987088530615
0.956,1.2916476142394329,5900.2960363592265
0.96,1.2638122532467442,5909.420864126136
0.964,1.2399447498214426,5897.456677259826
0.968,1.2266871479696453,5891.85524148524
0.972,1.2275307708788443,5900.007598068494
0.976,1.243011239348441,5898.565850482142
0.98,1.2708135514317203,5905.903286887085
0.984,1.3055531940571985,5906.765941525383
0.988,1.3388493551664464,5897.897202457134
0.992,1.3605360955111259,5894.769444766318
0.996,1.3611685618009353,5899.024143301041
1.0,1.3349602962841842,5899.984102331663
1.004,1.2818453595126797,5910.629839334847
1.008,1.207831137948459,5909.556880565535
1.012,1.1237123511384153,5893.411036550363
1.016,1.0428265507715526,5902.194386684135
1.02,0.9785520341353816,5892.259356880669
1.024,0.9419591410428524,5890.25427132482
1.028,0.9398455617605689,5899.938206448599
1.032,0.9734019560084362,5907.775860563292
1.036,1.0377477638678465,5903.971460625006
1.04,1.1224394990599535,5894.343499939923
1.044,1.2129209480612344,5898.817026884256
1.048,1.2928384675872584,5899.368486987237
1.052,1.347059805495884,5897.015053130503
1.056,1.3649954420082018,5903.911651115419
1.06,1.3434904898608826,5902.493200565406
1.064,1.2883333036295483,5899.110559797637
1.068,1.2135567375102931,5898.515399718081
1.072,1.1383161200211913,5897.271448622216
1.076,1.082040531007902,5893.942213195116
1.08,1.0593261996110264,5900.078735305126
1.084,1.0762391916753147,5897.642095888722
1.088,1.1291756703442728,5901.287469573076
1.092,1.2064358126211698,5898.578326185213
1.096,1.2917171551748956,5897.493659800549
1.1,1.368266747447272,5909.237811044398
1.104,1.4224960153764574,5889.974154675491
1.108,1.4462397265895957,5897.242278211409
1.112,1.4373887803919974,5889.915523849572
1.116,1.399212364587047,5899.3012304246895
1.12,1.3390002454105177,5905.356089733435
1.124,1.2665190490262697,5898.711389600058
1.128,1.192449704356301,5901.299823449417
1.132,1.1268445233010638,5907.667856336667
1.136,1.0777401869387557,5904.64813152654
1.14,1.0501284618510933,5900.103974550855
1.144,1.045402342379869,5893.403404135945
1.148,1.0613071790293773,5889.39805951243
1.152,1.0924398876563364,5899.728315442952
1.156,1.1313417277497033,5896.87849514744
1.16,1.1701090547897979,5898.119367874648
1.164,1.2022313431467362,5897.090573780708
1.168,1.2241359505723917,5901.328936729118
1.172,1.2358449194664336,5896.369025987982
1.176,1.2404359413817692,5899.945927478611
1.18,1.2425353601782305,5898.1542153053815
1.184,1.2464392348845015,5904.347144637794
1.188,1.254445822898616,5897.897399087896
1.192,1.265796408467203,5903.246577978351
1.196,1.276533663320599,5914.734253319251
1.2,1.280516794925931,5900.341297445433
1.204,1.2714764661841917,5905.136508581565
1.208,1.2454110521618587,5898.3807727504745
1.212,1.2023254052835113,5896.562637871612
1.216,1.1465950123237025,5900.301951465942
1.22,1.0858693616139898,5904.51017505676
1.224,1.0289869052511227,5899.540815962705
1.228,0.9836186922880901,5890.430244470445
1.232,0.9543281233655088,5902.261170746679
1.236,0.9415928821755855,5897.047964970813
1.24,0.9420976884297516,5894.284930131896
1.244,0.9501890490520264,5903.181380489108
1.248,0.9599014477274521,5909.655048174143
1.252,0.9667424209882084,5907.997040967735
1.256,0.9686582807327808,5897.1805239045325
1.26,0.9661168075197447,5902.6513803748585
1.264,0.9616272692208477,5890.712843752736
1.268,0.9590212663734877,5898.735021576252
1.272,0.9625754993391694,5909.295864007113
1.276,0.9759005861133284,5902.407602096536
1.28,1.0006428733244292,5908.951195889605
1.284,1.0353734735183209,5901.433627327709
1.288,1.0752687976452138,5890.468106129701
1.292,1.1130076912664897,5899.0461375734885
1.296,1.140758116828218,5898.553300267584
1.3,1.152605898706397,5895.349886153166
1.304,1.1466011632202244,5913.978573900494
1.308,1.125717744933338,5905.658962541947
1.312,1.0972991728947359,5899.877110211075
1.316,1.071018594114751,5901.674907633172
1.32,1.0559731415776428,5901.475120971526
1.324,1.0579399384500416,5901.351234938062
1.328,1.0777195772644848,5909.475214344946
1.332,1.1110213439770784,5886.474902488439
1.336,1.1498969196892306,5903.633360674797
1.34,1.1853711750037368,5902.910756567791
1.344,1.2104777223673546,5894.235959331746
1.348,1.222574672943257,5899.047472683455
1.352,1.224034658298565,5905.179749310141
1.356,1.2211230521441439,5893.889330988836
1.36,1.221546001687381,5897.269374601936
1.364,1.2314745440394879,5900.246360228978
1.368,1.2529905123082627,5899.76974991979
1.372,1.2828897759568516,5896.656136567312
1.376,1.3134006163325378,5894.735954989827
1.38,1.3346533184656795,5898.62249627333
1.384,1.3380537137831578,5899.108263377683
1.388,1.3193824719283915,5903.649621275223
1.392,1.2805141107680975,5898.4622493421375
1.396,1.2290766660221562,5906.866713575535
1.4,1.1760741791503067,5900.394720462778
1.404,1.132286896506668,5902.367106802778
1.408,1.1048283859856254,5894.951100470591
1.412,1.095208580312009,5897.520875707529
1.416,1.0995195454180189,5902.311921695299
1.42,1.1103376248278927,5895.684565725654
1.424,1.1193125290068109,5906.897006445918
1.428,1.1195105460956223,5897.884501105402
1.432,1.1070243860533457,5897.991874749449
1.436,1.0816286516327185,5901.481335751027
1.44,1.046360279527299,5911.687164092762
1.444,1.0061850646891897,5895.341541365724
1.448,0.9663462911754195,5899.24697428942
1.452,0.931159976947002,5900.857877663274
1.456,0.903696697926915,5901.635848742082
1.46,0.8861814363885839,5898.873972458602
1.464,0.8804757750757953,5897.941499859889
1.468,0.8880252043624907,5898.878467319863
1.472,0.9091608709620238,5897.837364996548
1.476,0.9422402576786577,5897.344684681615
1.48,0.9833129690576511,5905.273605969222
1.484,1.0266885104544612,5899.730357028993
1.488,1.066269430334654,5908.7819234315
1.492,1.0971274833233267,5904.29208023397
1.496,1.1166556205180487,5894.445254228688
1.5,1.124785345609835,5905.666025107578
1.504,1.1232327934600832,5906.991683012741
1.508,1.1142747536983466,5905.331538000638
1.512,1.0997778435880763,5909.324447925299
1.516,1.0809813481069188,5907.280356504382
1.52,1.0590333198091992,5894.510573294147
1.524,1.0357793277731207,5910.068076554993
1.528,1.014101892034385,5903.165107610886
1.532,0.9973928421447161,5896.860001456932
1.536,0.9883596846091213,5901.306004572658
1.54,0.9878710396813564,5903.470364919049
1.544,0.9945847769563272,5908.461958097435
1.548,1.0056840191845724,5904.295661653707
1.552,1.0184236423740607,5908.336709050128
1.556,1.0316766074392414,5906.166852623399
1.56,1.0465601146289716,5911.16977851021
1.564,1.0656736831471512,5910.926556908256
1.568,1.0912838006232344,5904.283577450567
1.572,1.1233926445157565,5900.850880527831
1.576,1.1586642907670954,5900.76973715438
1.58,1.1907775790624109,5910.904682576786
1.584,1.2121947617304507,5905.583659116223
1.588,1.2167105266350275,5908.764557122925
1.592,1.2017037035111833,5901.751239028739
1.596,1.1691116975353184,5902.95716388247
1.6,1.124831875725248,5903.388425021334
1.604,1.0770447480215453,5900.903628155425
1.608,1.0342734294338396,5908.294361760066
1.612,1.0037299481039397,5908.285713816645
1.616,0.9900651241345072,5904.156530923894
1.62,0.9944838394631108,5903.511822375364
1.624,1.0143141347369455,5902.232114169287
1.628,1.0432287934806814,5900.43982125234
1.632,1.0722829741473594,5902.716139730429
1.636,1.091780864255702,5909.122599425474
1.64,1.0936725905101246,5901.764343229001
1.644,1.073785939774735,5906.227677746899
1.648,1.0330614031440155,5906.216013797401
1.652,0.9773115395778914,5895.668514608478
1.656,0.915661423135927,5902.703162360896
1.66,0.8583069340639305,5904.813565234145
1.664,0.8142825050735418,5907.251907522168
1.668,0.7896909668010943,5906.871882966426
1.672,0.7866594857080714,5897.926844846062
1.676,0.8032405924288738,5895.738660508441
1.68,0.8343344150799729,5899.242823685527
1.684,0.8733410295269093,5896.94883194026
1.688,0.9139138561849902,5904.476400735132
1.692,0.9511941770277507,5898.728634702362
1.696,0.9822382151677467,5909.247396851406
1.7,1.0057102564225409,5900.145378836585
1.704,1.021160187749113,5906.135337899829
1.708,1.0283685264859743,5905.724621478978
1.712,1.0272014946643062,5904.246035678872
1.716,1.0179958170720478,5907.214196350472
1.72,1.0019760246655098,5902.690204479533
1.724,0.9811828978227491,5903.494717096425
1.728,0.9579181227449579,5908.064764018325
1.732,0.9341617301664011,5907.984913318817
1.736,0.9113206115945923,5911.615445431366
1.74,0.8902600461505156,5908.343211326368
1.744,0.8713772632841839,5901.420335548147
1.748,0.8546205491784259,5900.818521370353
1.752,0.8395491511840585,5909.761953911275
1.756,0.825549925895685,5894.879908711789
1.76,0.812229008927272,5904.274835008275
1.764,0.7998637307704362,5903.814020838471
1.768,0.7896594717716556,5901.981631390419
1.772,0.7835398200405088,5907.545073938268
1.776,0.783433099269709,5916.039270052412
1.78,0.7903571791350531,5907.048949275055
1.784,0.8037429527065203,5896.344167301766
1.788,0.8212730642363179,5898.590142208908
1.792,0.8392345344415302,5911.517047769006
1.796,0.8532400427725284,5898.754414420898
1.8,0.8592169257156202,5901.460132231389
1.804,0.8546060025197532,5906.015420750859
1.808,0.8395411451144853,5915.228225790856
1.812,0.817485002497176,5911.470991622342
1.816,0.794776711869612,5908.064533322001
1.82,0.7790120767091755,5904.6581351578
1.824,0.7767927177862618,5914.924750945046
1.828,0.7916811517092107,5910.271645634884
1.832,0.8230768278164089,5903.796301136484
1.836,0.8663264530528334,5905.959836188586
1.84,0.9138859731520752,5907.531452442875
1.844,0.9570031507346615,5902.733873528637
1.848,0.9873490412551849,5898.956342249113
1.852,0.9982349765970778,5906.323139546369
1.856,0.9853519742955099,5913.603510336012
