时间(s),电压(V),幅值(高频80K)
0.0,1.3368431772689966,5900.6136093172345
0.004,1.2643401705317534,5894.6956667237255
0.008,1.1877047481630347,5892.19029138045
0.012,1.106936581277349,5904.756120180506
0.016,1.026872189925237,5894.971094474112
0.02,0.9565522370466769,5908.756777574752
0.024,0.9069034009586392,5898.694315689708
0.028,0.8876952705715699,5898.084996162097
0.032,0.9047114512308025,5892.838880107244
0.036,0.9577983132191839,5899.585767219889
0.04,1.0402054076586573,5901.798305959139
0.044,1.1394364876490877,5898.188665780844
0.048,1.239563093536384,5896.459893916579
0.052,1.3245766931240348,5905.053910830643
0.056,1.3819732760457708,5889.378974331699
0.06,1.4055419856805755,5900.868901073612
0.064,1.3964284952320405,5899.614765585322
0.068,1.3620329475969801,5903.484600916921
0.072,1.313098173500356,5906.872333907384
0.076,1.2601584832925967,5914.524751279798
0.08,1.2108369648766228,5903.559753948378
0.084,1.1689205850450886,5893.282528635837
0.088,1.1350427479817928,5897.637646025804
0.092,1.1080446041350382,5905.121922977481
0.096,1.0861601909881875,5896.607360179685
0.1,1.0677550302249992,5890.59762839739
0.104,1.0518275641306076,5901.960794731015
0.108,1.0384905450839328,5900.573806353459
0.112,1.0292560867849094,5903.319838994887
0.116,1.0266664898672153,5904.260914662713
0.12,1.0331170230738687,5896.21144429721
0.124,1.0493868584147357,5898.084973801635
0.128,1.0737349079486733,5896.902362611513
0.132,1.1020992093455195,5898.808071392348
0.136,1.1292659285030522,5904.752125900257
0.14,1.1503682734136191,5889.512734743535
0.144,1.1620428177582045,5902.94470760502
0.148,1.1629358293474625,5891.505453786592
0.152,1.1536752161593984,5891.139922589292
0.156,1.1366115202719957,5894.351047135054
0.16,1.115543470179884,5894.916732734928
0.164,1.095418202699341,5899.302142222348
0.168,1.0818116472580586,5903.68913807657
0.172,1.080026170902122,5899.60796004764
0.176,1.0939246469883885,5895.7686045210585
0.18,1.124900297663606,5897.227237127126
0.184,1.1713773250261899,5903.266394204686
0.188,1.2289921609288774,5893.3201571512
0.192,1.2913696583949332,5901.635048963362
0.196,1.351317646084138,5906.016555679624
0.2,1.402244268144739,5902.745254800659
0.204,1.4395069232889475,5904.366774787788
0.208,1.4612542920543228,5897.089667621015
0.212,1.4683765656453098,5902.416470413
0.216,1.4635810441738963,5900.306209984719
0.22,1.4501095267478228,5895.492280615035
0.224,1.4307521823763876,5897.6653006411125
0.228,1.407436268674035,5903.658450667349
0.232,1.3811748374445327,5897.871299916463
0.236,1.3520904745979065,5895.585067196063
0.24,1.3195903409703487,5901.395887137473
0.244,1.2829974627436926,5901.189293713036
0.248,1.2426511127122144,5900.8289507349145
0.252,1.2009849723184227,5898.263134494385
0.256,1.1629449860518914,5906.647797926827
0.26,1.1354243439250453,5897.603956185369
0.264,1.125797745684015,5899.064800305613
0.268,1.1398536240982549,5899.335036699059
0.272,1.1795531713155634,5897.364253479141
0.276,1.241263286751584,5901.126275390161
0.28,1.315282402988389,5902.932062686851
0.284,1.3872409081031514,5905.420561852992
0.288,1.4412179202407738,5891.417023677724
0.292,1.4636177083573252,5902.232272580837
0.296,1.446551403801026,5892.927211503354
0.3,1.3897647836427827,5898.568334035987
0.304,1.3007165212625633,5904.390309763973
0.308,1.1929577772731872,5904.601438839206
0.312,1.0833781650566225,5904.217105632773
0.316,0.9890644963563241,5902.795088792382
0.32,0.9244102311057408,5911.698635542906
0.324,0.8988596447920791,5899.706992219508
0.328,0.9155072104572841,5895.425945734402
0.332,0.970731205903188,5893.721609098336
0.336,1.0549512933877903,5904.207958086348
0.34,1.154366316179919,5904.170746840256
0.344,1.2532451766714428,5902.531669042764
0.348,1.3362229795849545,5898.720623694132
0.352,1.3902528903894182,5912.77281746594
0.356,1.406233663461184,5897.481230582574
0.36,1.380474566732052,5894.81080122319
0.364,1.3158725845304005,5900.297046137904
0.368,1.222230322684276,5900.612876727635
0.372,1.1150473128748049,5897.275881349358
0.376,1.0126385521442263,5908.869063151312
0.38,0.9322734115063115,5893.8985817804105
0.384,0.8865525800311699,5898.385394394817
0.388,0.8810900182891159,5896.287161097826
0.392,0.9139470930362287,5896.366258658851
0.396,0.9766686696445167,5905.530960137185
0.4,1.0564763130472279,5909.181318081262
0.404,1.1390670511686087,5893.620088394388
0.408,1.211384748866086,5891.1620429149525
0.412,1.2637834762599984,5904.010435064117
0.416,1.2912880035269725,5903.133690418668
0.42,1.293944670428035,5900.6509773485
0.424,1.2762937135310897,5898.592570486878
0.428,1.2459207971256927,5896.622490108797
0.432,1.211200201720607,5895.801298829232
0.436,1.1787863252181128,5902.690586489354
0.44,1.151813307907369,5899.060063225947
0.444,1.1296866794413545,5892.596581234877
0.448,1.109640740850899,5904.203789243081
0.452,1.089261773701576,5900.764912342809
0.456,1.0686141865195646,5900.127488626008
0.46,1.0508414588261468,5901.175119526361
0.464,1.0409583318010212,5898.231080922187
0.468,1.0434757675929127,5912.089643526919
0.472,1.0599985873923798,5896.911950720215
0.476,1.0878021747053968,5893.007930740963
0.48,1.119845565103056,5898.529675262654
0.484,1.146148532766434,5911.171333217812
0.488,1.156182233094419,5904.787556291732
0.492,1.1417644233422992,5897.854341827645
0.496,1.0997458097756647,5896.789952879458
0.5,1.0336427285848278,5900.863295801782
0.504,0.9535394645236863,5907.795907890294
0.508,0.874084318776638,5901.969366812063
0.512,0.8110714149270716,5898.184328321257
0.516,0.7776444075213168,5906.116069712734
0.52,0.7812570651522587,5896.166077496572
0.524,0.8221196241403624,5899.350168218563
0.528,0.8932858326653172,5901.1249843778405
0.532,0.9821672398800212,5895.316311341429
0.536,1.0731333540998262,5901.18484918976
0.54,1.1507643384996298,5890.701249185222
0.544,1.2031450861114188,5893.945277987403
0.548,1.2244223833056647,5893.155383326891
0.552,1.2159074924392141,5909.957037882763
0.556,1.185405808180995,5903.023486053526
0.56,1.145025902591191,5896.539769957799
0.5640000000000001,1.1081457349898176,5895.629207426552
0.5680000000000001,1.0863488920154103,5898.9585990074775
0.5720000000000001,1.0870632790878274,5898.417783160156
0.5760000000000001,1.1123965887914269,5900.093255352705
0.58,1.159290748694104,5907.002532703779
0.584,1.2207666520019886,5902.891917306424
0.588,1.2878349761916879,5894.218088933536
0.592,1.3515423895666998,5897.811462091794
0.596,1.4046019220339045,5895.965981121658
0.6,1.442263065701672,5899.314956242419
0.604,1.4624141557979764,5900.24264464825
0.608,1.4650974448398562,5898.703930453614
0.612,1.451656405622477,5909.287171220915
0.616,1.423809367957401,5899.603872395864
0.62,1.3830268332546913,5900.401014458414
0.624,1.330512023096351,5896.938522422724
0.628,1.2678012698909042,5900.764376515493
0.632,1.1976270609733264,5898.5250296644535
0.636,1.124429231787341,5900.020743104487
0.64,1.0540142547034002,5896.805080893127
0.644,0.9924416156306937,5896.687810489839
0.648,0.9448727024035167,5898.781258988016
0.652,0.9151608253948488,5903.2499800468
0.656,0.9062172330180522,5893.739545260913
0.66,0.920388338654631,5902.273760095447
0.664,0.9590602483473214,5901.410284039813
0.668,1.0214528407031314,5892.140060247383
0.672,1.1033373045648873,5899.361601956867
0.676,1.1965932160123065,5905.717669214339
0.68,1.2900987032921176,5892.105273163662
0.684,1.3717847275992288,5910.10728938901
0.6880000000000001,1.431140446633624,5906.944526124835
0.6920000000000001,1.46127152551485,5905.561960071829
0.6960000000000001,1.4598854613907182,5902.524444372647
0.7000000000000001,1.429141015088703,5900.518472636667
0.704,1.3747651939896937,5905.9943806718375
0.708,1.3049348616765748,5896.44461897643
0.712,1.2292186110044996,5896.490433114078
0.716,1.157624321027399,5896.630756082444
0.72,1.0996162601406063,5903.096054743457
0.724,1.0629082193684283,5892.771213097353
0.728,1.0520346358529806,5906.898531272533
0.732,1.0671091641191082,5898.734691768264
0.736,1.1034199941765066,5896.640903947725
0.74,1.1522617915738658,5895.671739709253
0.744,1.2028389738831062,5900.387627512617
0.748,1.2446668780100631,5896.985432849811
0.752,1.269872381875097,5901.794376200961
0.756,1.27495623824908,5903.23154260339
0.76,1.26164920491939,5897.810805949696
0.764,1.2365041845766722,5904.235946672684
0.768,1.2090900620437244,5896.430859771018
0.772,1.1891767979656211,5890.93011526961
0.776,1.183829962136623,5899.830132570648
0.78,1.1954769950687658,5899.95452942205
0.784,1.2216252375178909,5896.244647829469
0.788,1.2561698142977211,5898.823880008858
0.792,1.2915375375135614,5897.748084860126
0.796,1.3207121399759394,5905.012194050626
0.8,1.3385370823405074,5892.921286901555
0.804,1.3422048220086318,5897.849172114229
0.808,1.3311644497974915,5892.879960224295
0.812,1.3067845797453574,5901.6902601080565
0.8160000000000001,1.2720388753013938,5891.198521046045
0.8200000000000001,1.2312356150441033,5899.966129971447
0.8240000000000001,1.1895562304905827,5906.0653519692805
0.8280000000000001,1.1521964115037995,5906.460611506988
0.8320000000000001,1.1232472050228186,5900.844361435975
0.836,1.1047515222544486,5890.477922397212
0.84,1.0963214896442075,5887.588122072521
0.844,1.095433601283943,5896.309195403953
0.848,1.098297310214652,5891.862569073014
0.852,1.10104690558157,5906.275390614181
0.856,1.1008975713845408,5899.113444846002
0.86,1.0969159104869968,5897.66634899252
0.864,1.090194797060941,5894.473518157509
0.868,1.0833695017179197,5891.860598741663
0.872,1.0795267595800955,5899.738728665083
0.876,1.0807369876115565,5899.556392375031
0.88,1.0867155049786756,5901.054740798294
0.884,1.094314407729525,5900.9716850314
0.888,1.0983699765197785,5894.573912603974
0.892,1.0937904707725248,5898.578769789448
0.896,1.0780206947537965,5896.677241958013
0.9,1.0527198350239373,5897.046501621837
0.904,1.0238449830222216,5893.170302458598
0.908,1.0000546007728208,5896.891087230315
0.912,0.9900116721505865,5905.572705761089
0.916,0.9995274754510907,5905.453765432251
0.92,1.0295019301036843,5900.903385693781
0.924,1.0753539389743714,5897.573949859939
0.928,1.1281618075554976,5897.493576401626
0.932,1.1771462230067111,5895.800441451717
0.936,1.212652652288835,5902.827427967039
0.94,1.2286573716596045,5904.006249294945
0.944,1.224056449840332,5895.873606442709
0.948,1.202448362845406,5896.997538257751
0.952,1.170618506354863,5903.805238744935
0.956,1.1363357006970007,5893.311508608738
0.96,1.106249295127383,5902.752602778403
0.964,1.0845589077880016,5899.119177306657
0.968,1.0727541092053308,5900.115635067314
0.972,1.0702388838897503,5897.311056229961
0.976,1.07529342113176,5904.884356859905
0.98,1.0857826223210676,5898.709370939777
0.984,1.0993168223617518,5904.933675747992
0.988,1.113018488379179,5897.886898424343
0.992,1.1233767640865158,5895.2916611820365
0.996,1.1266600552329358,5899.126883176205
1.0,1.1199732241494995,5893.882094995941
1.004,1.1025409177913625,5890.311529694808
1.008,1.0765512039084233,5904.126660611569
1.012,1.0470516256331759,5894.319788549422
1.016,1.0207721115173263,5897.901977139723
1.02,1.0041522326369985,5895.5053089693065
1.024,1.0012042585801983,5898.433132496122
1.028,1.0120173154097367,5894.634782988973
1.032,1.0325328479971139,5906.949760479946
1.036,1.055778869448309,5890.306046618957
1.04,1.0742780604404525,5899.787389806521
1.044,1.0829141519444898,5900.38060527504
1.048,1.081183697547159,5899.015089601841
1.052,1.0737421616704501,5904.801899129259
1.056,1.0687451597731754,5897.7924272275895
1.06,1.074532445218262,5903.409398620874
1.064,1.0961031477640821,5898.781207620266
1.068,1.1329670116588655,5905.170230912701
1.072,1.1792175984553175,5907.556470116472
1.076,1.2255833255369024,5899.160964295309
1.08,1.2624316836789689,5908.710628919597
1.084,1.2825038122595354,5898.156365496516
1.088,1.282459751972408,5897.325066286442
1.092,1.262929953484495,5892.878015529434
1.096,1.2274244515613975,5899.066730621886
1.1,1.18082629065131,5905.961080386012
1.104,1.1281427133876119,5892.489204490283
1.108,1.0738627521885862,5905.54686743423
1.112,1.0219429439929186,5894.294143143304
1.116,0.9762236696507476,5896.019762413013
1.12,0.9409143297424484,5899.360527217962
1.124,0.9206689500353189,5890.089225522978
1.128,0.9198492556446113,5903.355342495635
1.132,0.9409830603404781,5905.144516844431
1.136,0.9830247502327887,5912.158136386063
1.14,1.0403541565733627,5897.253469656233
1.144,1.1031927289320484,5898.210735379528
1.148,1.1594685253045487,5902.196838059128
1.152,1.1975800383410775,5899.46806601527
1.156,1.2092323548872168,5898.458654422121
1.16,1.1915305871543973,5895.966729531043
1.164,1.147752701462559,5894.241233193706
1.168,1.0865972183037473,5898.453004669551
1.172,1.0200822325740153,5894.404252440103
1.176,0.9606087708468068,5901.596943411983
1.18,0.9179874729270765,5906.535411107985
1.184,0.8973498464945664,5901.902167659861
1.188,0.898653172783493,5894.551311758265
1.192,0.9179084858285439,5904.178412581864
1.196,0.9495133316246471,5896.648203746511
1.2,0.9885460404066789,5894.807256393165
1.204,1.0319577140279712,5903.186581320656
1.208,1.078308894657975,5899.431313616351
1.212,1.1265652242769293,5889.626062271032
1.216,1.17487852406836,5896.616461458651
1.22,1.2200495214454496,5901.0253172765015
1.224,1.257831002593459,5901.246260559754
1.228,1.2837916637538636,5899.506540574757
1.232,1.2942688893267027,5898.271213577658
1.236,1.2870070114542482,5906.6406805431125
1.24,1.2613847302702108,5901.262220653043
1.244,1.218484261750342,5903.551527247936
1.248,1.1613220306329712,5901.577342799788
1.252,1.0952339926103638,5898.8376458186485
1.256,1.0279767717912789,5896.497611697153
1.26,0.9690140783983092,5902.816672461604
1.264,0.9278483677357303,5890.786095410896
1.268,0.9118228532590471,5906.505533279662
1.272,0.9241554820028807,5895.349267454516
1.276,0.9629377789428835,5898.767579482113
1.28,1.0215136184743432,5904.508932390304
1.284,1.0901547763174189,5897.113744833057
1.288,1.158445535889867,5905.675311389201
1.292,1.217528378511791,5910.09060645722
1.296,1.2615017812149445,5902.927880606315
1.3,1.2877312327604278,5901.237802431299
1.304,1.296347864031293,5904.636477492166
1.308,1.2894156520039668,5906.417151351044
1.312,1.2700803631167656,5899.852821120642
1.316,1.2417821214064964,5900.199392030784
1.32,1.2075782591620359,5902.467833265786
1.324,1.1696815894750534,5904.650052516584
1.328,1.1292918377057841,5899.435012949156
1.332,1.0867352291834218,5901.064303319425
1.336,1.0419382264241621,5888.496238624663
1.34,0.9952450389319656,5900.569892357586
1.344,0.9483664237903761,5897.525363286207
1.348,0.9049399464817867,5908.9833532209
1.352,0.8701809401408346,5896.950903650442
1.356,0.849534987315803,5906.148368808464
1.36,0.8467800204767577,5904.0971261212535
1.364,0.8623543559677206,5893.404097213159
1.368,0.8927293705888487,5906.599054055471
1.372,0.9313243001670964,5904.045613298614
1.376,0.9707678556607491,5893.733646275607
1.38,1.0055952640206203,5899.871993385946
1.384,1.03419942396431,5898.853384644756
1.388,1.0591644411359944,5905.95890502086
1.392,1.085814764068983,5901.513633420832
1.396,1.1196284728364914,5897.748470165976
1.4,1.1636851523664276,5899.72922653215
1.404,1.217181855514454,5897.33914983707
1.408,1.275386718705847,5902.448563013854
1.412,1.33077436479276,5908.859954250359
1.416,1.3748223617929243,5894.6791863446015
1.42,1.399913214077229,5901.454045103938
1.424,1.4008452432119198,5896.9321037642885
1.428,1.375647943177297,5903.065859859603
1.432,1.3257003824576021,5901.185193315567
1.436,1.2553979204714685,5905.47965292217
1.44,1.171641687134006,5906.538080899739
1.444,1.0832209490447813,5895.060099333043
1.448,0.9999156185131441,5889.54749441097
1.452,0.9311525766317005,5898.043412733874
1.456,0.8843716623543277,5898.074963211913
1.46,0.863607807718148,5908.460665141752
1.464,0.86882152710017,5894.958643688744
1.468,0.8961730572070354,5904.388264824377
1.472,0.9390381295048177,5904.085411829632
1.476,0.9894007325096463,5900.889960150378
1.48,1.039334897441686,5898.4740844663365
1.484,1.0824023883042342,5901.291399515895
1.488,1.1147948469737503,5893.992021116575
1.492,1.1359662703319071,5897.09553213161
1.496,1.148487294744425,5897.288330171098
1.5,1.1570272671111193,5895.601446463325
1.504,1.1667153624351627,5891.650029567708
1.508,1.1814735887762615,5899.316484562109
1.512,1.2029734637729572,5908.163872512308
1.516,1.2304875452453616,5907.222489165404
1.52,1.261329523779015,5906.663047857858
1.524,1.2913255956231844,5902.473109582783
1.528,1.3150963726290614,5908.036762031691
1.532,1.3265044187193475,5889.987901015902
1.536,1.319790440312376,5892.412314210657
1.54,1.2914178349931535,5908.128127860729
1.544,1.2419117009239882,5900.2185834016655
1.548,1.176700856099933,5909.098389083816
1.552,1.1053614286431228,5904.13552410663
1.556,1.039370894126468,5901.543130674589
1.56,0.9890921732563329,5904.639841030465
1.564,0.9610090607828428,5897.33387127278
1.568,0.956162922296429,5901.359298026102
1.572,0.9703089040425824,5905.118371091616
1.576,0.9956605295500776,5906.362240823874
1.58,1.023543812416944,5907.685835613746
1.584,1.0470889961806897,5888.775192293406
1.588,1.0631355503003763,5904.124570914518
1.592,1.0726541958741025,5903.682984616362
1.596,1.079423091118299,5907.851383032767
1.6,1.08753424628866,5903.742942485206
1.604,1.0989730011116234,5904.012666056988
1.608,1.112406377088075,5904.256209603887
1.612,1.123587026957922,5904.338090559916
1.616,1.127010412516168,5902.506964840747
1.62,1.1180334086970336,5894.330325417676
1.624,1.0946372335703198,5896.61275108093
1.628,1.0582860305991801,5893.172639368826
1.632,1.0137145760411894,5906.152453944025
1.636,0.967806645926781,5904.162087519574
1.64,0.9279171073416262,5892.858609066164
1.644,0.90006061306685,5891.24081585904
1.648,0.8873813391065749,5908.388471385738
1.652,0.8892542287762167,5896.391642505956
1.656,0.9012624039872795,5901.534360776343
1.66,0.9161691011775761,5909.821106731357
1.664,0.9258449698149254,5901.283498967122
1.668,0.9238297622897467,5896.892979035974
1.672,0.9077706948899585,5899.303949174558
1.676,0.8806569926042725,5894.2774464241
1.68,0.8500076056164516,5903.67345187381
1.684,0.8251002919254854,5898.143716413783
1.688,0.813456109378651,5890.100445778116
1.692,0.8182683482874807,5895.448435384174
1.696,0.8378546936125514,5901.733015407626
1.7,0.8669875441557501,5895.320280104389
1.704,0.8990896796348444,5910.5060104594
1.708,0.9282795110234136,5898.1649377177055
1.712,0.9507541992789619,5901.645618063678
1.716,0.965377756314138,5894.618084095046
1.72,0.9734267606838505,5906.720275544396
1.724,0.9775290083916695,5900.665925664315
1.728,0.9801276294660901,5906.4338180458135
1.732,0.9821471219156,5898.986679528911
1.736,0.982568119419276,5910.570841591423
1.74,0.9791911771183341,5902.526750018228
1.744,0.9702392569154096,5901.168413190021
1.748,0.9560277231274973,5900.06424795584
1.752,0.939912752632479,5902.207859078464
1.756,0.9280091046215982,5915.3493203201615
1.76,0.927597035246262,5910.291712968638
1.764,0.9446416784357016,5899.454058223048
1.768,0.9812822759979992,5904.0806641628815
1.772,1.034293977370705,5892.708389251495
1.776,1.0952429462554725,5908.903989183114
1.78,1.152359503512344,5903.60850120607
1.784,1.1933391545410956,5889.458886021308
1.788,1.2079238778649377,5914.696104836427
1.792,1.1895313594002128,5907.649408369107
1.796,1.135985036888505,5907.937260424556
1.8,1.0498335701626627,5902.45365572396
1.804,0.9385377869118291,5895.049414446348
1.808,0.8142768503489738,5896.233004687928
1.812,0.692853529452451,5899.35963193501
1.816,0.5914332337567901,5899.510013782805
1.82,0.5254076747670285,5911.058790431007
1.824,0.505130144028696,5909.851646186543
1.828,0.5334329295375795,5897.167374062376
1.832,0.6047015812163334,5899.43815551539
1.836,0.7058764294879628,5904.409688148251
1.84,0.8192088305658696,5900.879086428387
1.844,0.9261270663156524,5907.120558185459
1.848,1.0112645563666725,5907.659770751795
1.852,1.065581288403759,5900.531192740424
1.856,1.0876603765897057,5900.1999122989455
1.86,1.0827945412798343,5906.321074533246
