时间(s),电压(V),幅值(高频80K)
0.0,1.0743834958851504,5895.885678315497
0.004,1.1539669401204522,5898.6487324607
0.008,1.2249207608261041,5898.293215818367
0.012,1.280130828414219,5904.362648705152
0.016,1.3144964608048528,5897.970116922826
0.02,1.3252156810047813,5890.902810474547
0.024,1.3119907932051242,5901.146227149812
0.028,1.277319208189226,5895.9178003279385
0.032,1.2266270268852038,5906.233861898877
0.036,1.167873404976788,5906.092424064586
0.04,1.1104901973273333,5892.877531798727
0.044,1.0638656971471208,5896.2009550706325
0.048,1.0357418084607348,5900.220476280202
0.052,1.0308385983872035,5894.185286419909
0.056,1.0499837939438965,5888.1010723176005
0.06,1.0900801320609053,5903.622974943159
0.064,1.1450868256005706,5905.731745318941
0.068,1.207688335001872,5888.196022714616
0.072,1.2709230450536166,5904.022637563424
0.076,1.329197702092114,5898.820957346975
0.08,1.3786145370162988,5890.874384715172
0.084,1.4168559214152925,5902.53041006987
0.088,1.4428405943003604,5908.44256066349
0.092,1.4562388873459235,5897.75084628832
0.096,1.4569847910521518,5895.83943020964
0.1,1.4451247555113333,5899.527162258823
0.104,1.4213327668343194,5898.995639937076
0.108,1.387925192383561,5899.177970312883
0.112,1.3495778172006578,5901.935136074331
0.116,1.3128924662145947,5895.133259196873
0.12,1.2846842017436824,5907.752826594954
0.124,1.2697793440679601,5901.052930387582
0.128,1.2694695914339817,5903.7448207938905
0.132,1.2813296820758115,5900.969757447793
0.136,1.300311598386045,5910.344414288855
0.14,1.3204896383916611,5901.496655524371
0.144,1.336780119036734,5900.711906040274
0.148,1.3461970183853715,5899.474628850185
0.152,1.3484459093862426,5903.919440490543
0.156,1.3458020640328432,5897.47997981472
0.16,1.3423121757258833,5897.80333758455
0.164,1.3424472757231256,5898.678217992496
0.168,1.3494554680850095,5906.439498552824
0.172,1.363864662944481,5901.409688629007
0.176,1.3827793172184437,5901.813153634802
0.18,1.4005404669029249,5907.036630773992
0.184,1.4107901128527804,5901.155799262262
0.188,1.4091712174277238,5893.178283124704
0.192,1.3953537310869422,5902.062162969869
0.196,1.3733331550533336,5908.541160758959
0.2,1.3499173819663477,5901.5049912283375
0.204,1.3322632354018447,5905.965716593927
0.208,1.3255774222964918,5894.0117367953535
0.212,1.3316814582633434,5899.64196083539
0.216,1.3485917825208156,5896.132900153284
0.22,1.3710014676236792,5909.705951963431
0.224,1.3915383577744682,5898.858033676963
0.228,1.4026372181140139,5891.406241889591
0.232,1.3986471718676639,5901.361822969667
0.236,1.377544007394827,5900.289888546474
0.24,1.3416245597174792,5900.924239981263
0.244,1.2969273933251002,5899.232555242204
0.248,1.2516036595986673,5900.963794948553
0.252,1.213760131725396,5908.115686923894
0.256,1.1893874915281015,5903.940633052023
0.26,1.1809610264083938,5900.437043211094
0.264,1.1871129114820025,5900.7440533597
0.268,1.2033919551008183,5895.913695904294
0.272,1.2237298761081432,5886.450019173384
0.276,1.2420618182384842,5903.51285737247
0.28,1.2536499616895413,5901.220457665591
0.284,1.2558811964207337,5901.102380026646
0.288,1.2484861861458512,5902.356984441409
0.292,1.2332420443414063,5904.154318512342
0.296,1.2133525245021202,5897.890831949925
0.3,1.1927951545587216,5905.095799439405
0.304,1.175798256813858,5889.737906606179
0.308,1.1662844524347407,5904.018727592863
0.312,1.1669803542790547,5892.811626255858
0.316,1.178246749284729,5901.581187765599
0.32,1.1972207532289725,5897.828776793193
0.324,1.217961885840925,5909.883457844746
0.328,1.2328291730062257,5901.155730060364
0.332,1.2347248727219686,5901.824236594895
0.336,1.2194737975470091,5901.780329529886
0.34,1.1875031774767537,5899.0390918434405
0.344,1.1441717230026784,5900.473917904624
0.348,1.09858830350048,5898.892672450125
0.352,1.0613416651789038,5904.101496148465
0.356,1.0418717987275998,5901.6170070038925
0.36,1.0461358561091898,5905.994792947186
0.364,1.0750276244465424,5896.60140843503
0.368,1.1239419239165724,5905.3301115932645
0.372,1.183767801978336,5901.620198598361
0.376,1.2432028353384492,5892.269559323189
0.38,1.2917542539094842,5904.180624972992
0.384,1.32248852483231,5903.643401052277
0.388,1.333655267561259,5893.900730134151
0.392,1.3286788648640229,5887.651614547214
0.396,1.3145828363771581,5900.241867471466
0.4,1.2994962911170072,5899.335574968716
0.404,1.2901754257564118,5899.607450564165
0.408,1.2903099741787576,5898.886875053433
0.412,1.2999665227362562,5897.463423646915
0.416,1.3161203866796858,5898.236862749084
0.42,1.333968513176286,5904.206058936614
0.424,1.3486070985773895,5904.281135740975
0.428,1.3566385216374608,5893.379645387672
0.432,1.3572613688282171,5895.996376012612
0.436,1.352430045270877,5899.997095189689
0.44,1.3458989716885097,5896.481427493463
0.444,1.3414196192948065,5901.6716225650425
0.448,1.3407983013728189,5893.029431121288
0.452,1.342663004065483,5889.03150918134
0.456,1.3425531162534956,5895.595808554484
0.46,1.3344300063033452,5897.458006731455
0.464,1.3130798445346716,5896.470537350918
0.468,1.2764350004575995,5895.250278409756
0.472,1.2268728251572494,5896.286100183333
0.476,1.171041602003955,5907.991080035027
0.48,1.118356068246201,5895.745969165235
0.484,1.0786984160646402,5908.734551063482
0.488,1.0600259005486528,5898.500319966619
0.492,1.0665667861913082,5908.523758925764
0.496,1.0980701765541057,5895.144644112193
0.5,1.1502119590804238,5905.302549389046
0.504,1.2158892359514462,5893.827059125315
0.508,1.2868899505168399,5900.298156212896
0.512,1.355394537191412,5909.968700098067
0.516,1.4149755369476484,5903.215429315348
0.52,1.4610773699292054,5893.368529563226
0.524,1.4911585937678555,5899.331283440341
0.528,1.5046709758199341,5902.573044855336
0.532,1.5029347967689999,5898.543494259214
0.536,1.4888778355640562,5904.48773708969
0.54,1.4665885069211644,5905.410325661229
0.544,1.4406762285729995,5901.70067867824
0.548,1.4154734776996385,5900.728794156569
0.552,1.3941393133208781,5896.1484194708455
0.556,1.377803790018494,5896.358197697226
0.56,1.3650319652630551,5902.407099365136
0.5640000000000001,1.3519580561854792,5892.00112214206
0.5680000000000001,1.3333151044531606,5904.423072288756
0.5720000000000001,1.3042373479327258,5898.454127794366
0.5760000000000001,1.2622789463281878,5896.855750440485
0.58,1.2088563088139948,5895.707453604919
0.584,1.1494810354999163,5899.124823509171
0.588,1.0926319180390118,5899.3312481321045
0.592,1.047669997308272,5894.195124876547
0.596,1.0225640509234315,5899.871716553782
0.6,1.0221726709975751,5910.720014792423
0.604,1.0474680760003912,5894.887018990367
0.608,1.0956672286434999,5905.669402543298
0.612,1.160986488830623,5900.226486511235
0.616,1.2356834589034782,5891.962155151537
0.62,1.311135069608477,5896.417920935525
0.624,1.3788578995579481,5898.69361170322
0.628,1.4315130323211471,5898.590064497399
0.632,1.4639415427464555,5899.3452792312255
0.636,1.474107882102991,5900.788950669273
0.64,1.463623311113408,5904.775108353203
0.644,1.437493030190739,5899.107410738104
0.648,1.402942266780183,5892.9106497838775
0.652,1.3675203658264174,5900.491231267632
0.656,1.3370141298349432,5904.739287800507
0.66,1.3138835608929478,5902.571037795063
0.664,1.2968270613580328,5893.615383916054
0.668,1.2816616032533605,5900.928468574349
0.672,1.2631700312900698,5902.148327978251
0.676,1.2372297584508316,5900.389172656304
0.68,1.202511344842015,5896.511941131251
0.684,1.1612221967129983,5903.755960287003
0.6880000000000001,1.1186810837826675,5908.974189714952
0.6920000000000001,1.0818872178561225,5909.220239411408
0.6960000000000001,1.0575499164854483,5909.400994379065
0.7000000000000001,1.0501510149533886,5901.343387559522
0.704,1.060568420300314,5905.393452706592
0.708,1.085679731300295,5900.069663040982
0.712,1.1191688036332204,5903.8889392504925
0.716,1.1534345722881296,5898.954255625113
0.72,1.1820980442729032,5899.564859218031
0.724,1.2022603525080022,5903.1426100652425
0.728,1.2155840070575332,5893.188799211099
0.732,1.2276097557903267,5901.0469288714
0.736,1.2454357442262878,5901.585509794485
0.74,1.2746508567539014,5893.241468210745
0.744,1.316770503647093,5908.7883907371
0.748,1.368139645703407,5893.018777971903
0.752,1.4205962060572166,5900.026250579706
0.756,1.4635896366863317,5903.38665536803
0.76,1.4871109036055952,5903.759088411366
0.764,1.4845928540753264,5899.334207441952
0.768,1.4548452872816768,5905.332300584966
0.772,1.402308501010185,5901.306166340129
0.776,1.3355590311259256,5897.927747212181
0.78,1.2647609266268987,5896.664164255231
0.784,1.1991346879906895,5891.447859126196
0.788,1.1453537718814744,5898.314422900318
0.792,1.1072499893662602,5895.28623056278
0.796,1.0865514638249756,5884.172234301181
0.8,1.0838736771061488,5906.955126521136
0.804,1.0991583459386738,5900.3217842522645
0.808,1.131273801206655,5899.197791581533
0.812,1.1771936427105079,5904.175206426879
0.8160000000000001,1.2315407850702509,5897.265813082706
0.8200000000000001,1.2870570750630026,5909.0119100707925
0.8240000000000001,1.335916201309129,5906.324966810033
0.8280000000000001,1.3712429856110624,5889.215102840167
0.8320000000000001,1.3881521155920198,5896.540419979931
0.836,1.384048768687964,5895.1738402494
0.84,1.3584477837205586,5908.253088321676
0.844,1.3127779957372867,5897.100869173973
0.848,1.250445132602457,5899.644995011935
0.852,1.1770270688857154,5904.766784617763
0.856,1.1001755123537829,5906.505745471464
0.86,1.0288272033084898,5896.395975209777
0.864,0.9717021739727132,5905.8892800645
0.868,0.9355398578795646,5899.040872559752
0.872,0.9237406416619812,5907.054943777393
0.876,0.9358694141503371,5896.068751613584
0.88,0.9680215440124694,5901.108132800304
0.884,1.0137360705488965,5894.215465053019
0.888,1.0651596736886144,5902.915826219276
0.892,1.11433778846603,5898.732842586806
0.896,1.1545554868406818,5901.083911058736
0.9,1.1815238629728382,5902.816330093719
0.904,1.1940954442036085,5903.21681648111
0.908,1.194268835012633,5901.119107550857
0.912,1.1864746949003446,5902.395520404233
0.916,1.1763581210929885,5904.053216920227
0.92,1.1693962115468304,5903.136764798741
0.924,1.1696962289211008,5905.443307280197
0.928,1.1791796689295864,5902.629068013
0.932,1.1971571020205318,5904.86888666699
0.936,1.2202780520009473,5897.643216738848
0.94,1.2430377140057498,5902.491783611836
0.944,1.259086480355312,5897.26271486611
0.948,1.2632361576474302,5896.132381798769
0.952,1.2535196490687484,5898.80633273666
0.956,1.2324103764220269,5900.46961401395
0.96,1.2065393978034222,5893.826586614598
0.964,1.18482056332167,5904.135823498241
0.968,1.1755396573939179,5899.048605506686
0.972,1.1834088956510613,5901.009905022168
0.976,1.207656479916924,5899.0453336173405
0.98,1.2419121991192847,5901.184624538806
0.984,1.27606577283278,5903.938552477452
0.988,1.299535685363436,5901.333967544578
0.992,1.3047176353325265,5891.563767434526
0.996,1.289185107114751,5895.4598774537735
1.0,1.2558042607668234,5898.946236271889
1.004,1.2110443809109206,5899.766971056786
1.008,1.1626127434294977,5894.769433902356
1.012,1.1175416171582768,5881.716181981518
1.016,1.0811947330790872,5907.649271019199
1.02,1.0569672550420133,5898.98760761293
1.024,1.0462077850376463,5902.547433222711
1.028,1.0481637367548022,5901.423742534335
1.032,1.0601663557847687,5902.392192045257
1.036,1.0782985942953172,5904.966277954199
1.04,1.0983604296728577,5900.560306872319
1.044,1.1166044609552728,5902.673816668591
1.048,1.1299133410341544,5894.883765569556
1.052,1.1356143677321977,5904.942236577062
1.056,1.1314233117792605,5902.059363934605
1.06,1.1158507923136112,5889.521599973899
1.064,1.0890153874473139,5904.732182538153
1.068,1.0535008910773063,5898.695688289777
1.072,1.0147775629466453,5897.771493611628
1.076,0.9807641335526994,5902.260744673142
1.08,0.960375782382899,5900.836565304847
1.084,0.961351814373004,5913.076072030801
1.088,0.988039016096607,5895.439697587564
1.092,1.039875552152983,5890.817049393692
1.096,1.1110730383059257,5894.321409491526
1.1,1.1915943537038696,5902.694208785989
1.104,1.26912779633901,5899.23843109982
1.108,1.3314762579369004,5907.837704596844
1.112,1.3687316574466006,5896.651634220008
1.116,1.3748599557577434,5891.264049606609
1.12,1.3486865018784306,5898.802315535606
1.124,1.2943581021380541,5897.245836705193
1.128,1.221095787429722,5907.345173819836
1.132,1.1418556253092076,5907.132177650574
1.136,1.070781525435556,5916.681528613667
1.14,1.019981250780412,5908.809285939691
1.144,0.9966991624999426,5892.159340781868
1.148,1.0019555493831354,5892.840052190983
1.152,1.031159043750202,5896.733519024174
1.156,1.0764068588156444,5898.008052072643
1.16,1.129501596747458,5895.895137763992
1.164,1.1844012278383522,5899.50920221007
1.168,1.238110128210934,5895.4361628167735
1.172,1.289842959520024,5905.237394361823
1.176,1.339159783040529,5888.866452588924
1.18,1.3841787729981618,5894.9081890284
1.184,1.4207972254469388,5895.827682348654
1.188,1.443284078645985,5900.735135063689
1.192,1.445957687390908,5905.487650551862
1.196,1.4252331782720633,5894.438681685482
1.2,1.3812742095987602,5904.505652677153
1.204,1.3187440470022447,5898.943680760387
1.208,1.246487183092108,5901.3137801315615
1.212,1.1762015151747873,5903.727316899333
1.216,1.1203146767969019,5888.021916036857
1.22,1.089476648497334,5901.144457754782
1.224,1.0902659171083733,5909.807997331154
1.228,1.1236843352315216,5904.493946394357
1.232,1.184775839155633,5905.888422838943
1.236,1.263459802586084,5891.929123838507
1.24,1.346508330886652,5898.361075103004
1.244,1.4203625395260575,5901.488121622102
1.248,1.4741286621956147,5899.474190776949
1.252,1.5018756854872715,5903.881165299728
1.256,1.503521393720105,5886.604642074151
1.26,1.4840668483205957,5898.479808241735
1.264,1.4514508720848445,5902.22025401146
1.268,1.4137108450223383,5898.895546132505
1.272,1.3764332332981144,5902.815973342656
1.276,1.3414904832559724,5896.356688634683
1.28,1.307567887264058,5893.054379578575
1.284,1.2721063027736437,5894.445301081052
1.288,1.2335541843953401,5906.481394181677
1.292,1.1927364754404661,5893.43916511567
1.296,1.152748595954351,5905.716565843735
1.3,1.11764147961902,5905.954508460603
1.304,1.0907412383912083,5891.22236280016
1.308,1.0734828202597781,5904.786152613719
1.312,1.0652258102195284,5906.214694114807
1.316,1.0639391356978867,5900.373026851669
1.32,1.0672076405913764,5901.926432424748
1.324,1.0729884871275306,5902.874114823217
1.328,1.079918396698052,5899.856419509615
1.332,1.0873695147098799,5886.997674235792
1.336,1.0954994056435794,5898.331962310707
1.34,1.105297678820154,5901.593476967802
1.344,1.1184443055148119,5897.967705750273
1.348,1.1368446355643298,5907.296827857008
1.352,1.161900746753887,5903.519588374037
1.356,1.193730670797259,5900.074738482296
1.36,1.230567530403305,5896.850278239768
1.364,1.2685662837987612,5900.740661012324
1.368,1.3022921235120652,5900.142054223357
1.372,1.3260582553225022,5902.779801951252
1.376,1.3358485097825628,5912.068213687868
1.38,1.3310433089243932,5895.978278568235
1.384,1.315010863389798,5898.198286986412
1.388,1.2940532364774087,5903.929809897245
1.392,1.2750217387261802,5906.598242446453
1.396,1.26262397760043,5902.394123581084
1.4,1.2575951315451006,5900.529809973327
1.404,1.256484579920281,5895.937415975125
1.408,1.2531190483432766,5898.996706092948
1.412,1.2411686726931979,5905.942264298103
1.416,1.2168639988183259,5894.016168972332
1.42,1.1808510934666776,5908.605931703725
1.424,1.1384287272356604,5896.258706449067
1.428,1.0979693901258303,5898.549574369877
1.432,1.068032975201134,5906.560437829926
1.436,1.054234925891739,5894.623862575611
1.44,1.0570883827256892,5901.327209408151
1.444,1.0717328712349248,5893.94182095606
1.448,1.0897430687911873,5906.436184393531
1.452,1.1023103789712767,5900.282363209683
1.456,1.1034493498473785,5904.401664183183
1.46,1.0918971952349188,5899.035638033788
1.464,1.0710430054493876,5901.296197911796
1.468,1.0471167647628805,5906.208466860742
1.472,1.0265127535020226,5908.297783904909
1.476,1.013314092076189,5891.898849927233
1.48,1.007867552356532,5913.037804435942
1.484,1.0067943725488262,5902.106143855006
1.488,1.0043331632679366,5899.093456277918
1.492,0.994557360824228,5899.233420051283
1.496,0.9738091018003506,5900.408251544158
1.5,0.9425821799407662,5894.56977754095
1.504,0.906104173863342,5909.800929284609
1.508,0.8731968566105133,5895.046949434274
1.512,0.8536789664442335,5912.544316960046
1.516,0.8552480685329777,5906.569083647609
1.52,0.8809666797437125,5902.61542158672
1.524,0.928128699810262,5900.512349740253
1.528,0.988739111174892,5905.649808151379
1.532,1.0514042498956926,5904.2851471429685
1.536,1.1041212658624178,5896.366097918197
1.54,1.1371902459451577,5896.709835379271
1.544,1.1453636636261133,5904.509183291665
1.548,1.12861403957363,5899.385884289865
1.552,1.0914576482666352,5895.741826045048
1.556,1.041243189156421,5900.505496789815
1.56,0.9860091131753315,5896.586362423988
1.564,0.93254079039579,5900.532790817448
1.568,0.885175601034757,5892.41186262609
1.572,0.8456435380859644,5892.599332904535
1.576,0.8138552446940613,5898.705688699202
1.58,0.7892314104060344,5897.138856085348
1.584,0.7719699926294968,5904.526514599828
1.588,0.7635929114867098,5897.040658696753
1.592,0.7663664206611488,5899.220572440065
1.596,0.78183005807263,5902.519608658651
1.6,0.8093278792474191,5904.497054809861
1.604,0.8455273815280681,5896.12865053498
1.608,0.8852847683175653,5894.234880806665
1.612,0.9233331136709076,5903.250436589503
1.616,0.9557799602404554,5899.362502247702
1.62,0.9806374386437133,5901.068280196847
1.624,0.9973638413098525,5900.71712595866
1.628,1.0060605278585695,5904.448483257691
1.632,1.0070260573208798,5903.672411951236
1.636,1.0008613611082018,5902.857226891891
1.64,0.9887622299128049,5894.603572386329
1.644,0.9724969012456814,5905.889011194785
1.648,0.953884303216281,5894.7594797630245
1.652,0.9340354863732181,5897.480077105647
1.656,0.9128504305018844,5886.77501030195
1.66,0.8891539053992948,5908.66418310986
1.664,0.8615051866012552,5906.309815023193
1.668,0.829347844968507,5905.886207593511
1.672,0.7939749462899505,5903.782735344573
1.676,0.7588045599154175,5897.864905638941
1.68,0.7286731086097565,5894.14457560704
1.684,0.7082964092805043,5901.894584845116
1.688,0.7005472097024605,5904.217410132234
1.692,0.7053438590029454,5900.711450684816
1.696,0.7196175554338013,5907.080301409862
1.7,0.7383416909505743,5904.589796982575
1.704,0.7562131441972731,5896.20151955877
1.708,0.769289843329337,5899.522570851095
1.712,0.7758390907719124,5903.620123487455
1.716,0.776038323895407,5902.283788650884
1.72,0.7708579023354168,5907.505043264016
1.724,0.7609517858602339,5905.900402929571
1.728,0.7462892902926271,5898.377411940861
1.732,0.7266612437827007,5898.916341284198
1.736,0.702597678917815,5904.373646876534
1.74,0.6760831153856037,5908.452870763235
1.744,0.6506930231220147,5910.8394110934605
1.748,0.6310780291993099,5910.631347950651
1.752,0.6219554828139376,5901.869559069813
1.756,0.6269245914961896,5906.25431223977
1.76,0.6474335147854158,5898.9117055873885
1.764,0.6821216694236625,5902.972274833482
1.768,0.7266984732744928,5899.698970794585
1.772,0.7745211877975083,5905.041522467334
1.776,0.8179196778096937,5907.715996924509
1.78,0.8500000608002689,5907.650831069816
1.784,0.8663530169176307,5899.705291142628
1.788,0.8660920394633963,5903.051570890596
1.792,0.8519631836061231,5905.699341002195
1.796,0.8296143820541309,5904.598295716579
1.8,0.8062684184670467,5896.227978720116
1.804,0.7890569248453019,5917.367108672382
1.808,0.783294267816663,5898.036808452689
1.812,0.7910650359445907,5907.882289394579
1.816,0.8105972169891801,5900.516006447571
1.82,0.8368017073947083,5899.589983071232
1.824,0.8629353985280515,5899.676894260674
1.828,0.8827655374543879,5898.168396551579
1.832,0.892320795446239,5902.485251687674
1.836,0.8905846178556455,5902.892203459474
1.84,0.8790917126446061,5904.06963773289
1.844,0.8608275270800189,5903.807458434103
1.848,0.8388990809366563,5899.876582968793
1.852,0.8153814336754028,5907.18144616163
1.856,0.7907506247855945,5898.081835127642
1.86,0.7642257994130148,5913.573089919043
