时间(s),电压(V),幅值(高频80K)
0.0,0.7913987322128048,5904.759551892249
0.004,0.9606249450825267,5893.392226583822
0.008,1.1049139729389037,5897.8097491682565
0.012,1.2066096937352402,5901.863169007814
0.016,1.2587462377683747,5898.9132588540015
0.02,1.2658603310371106,5906.778686797825
0.024,1.2415367425549104,5899.508137077438
0.028,1.2038197085573528,5901.572139581583
0.032,1.1700430011852685,5906.121931714476
0.036,1.152603822616057,5904.79177483822
0.04,1.156800509394612,5896.541257515945
0.044,1.1810709653249478,5903.249626216826
0.048,1.2190167481027514,5901.21497851125
0.052,1.262017424700734,5892.697579233651
0.056,1.3014411978842986,5898.215924032616
0.06,1.3301713418887815,5901.518663049936
0.064,1.3436690129656992,5902.090138489754
0.068,1.3407040956688971,5893.427682047154
0.072,1.3235404333478864,5902.791545272747
0.076,1.2973280354971335,5900.46876148734
0.08,1.268845378786363,5897.600600087421
0.084,1.2451004518149937,5901.06291451148
0.088,1.2322125245033388,5892.911251643564
0.092,1.234603912575801,5910.723775432573
0.096,1.2543210047970004,5908.503295106589
0.1,1.2904541845956723,5896.409450100179
0.104,1.3388892233552154,5893.658466529175
0.108,1.392713709765074,5898.034002184946
0.112,1.4434189406757332,5897.077471115347
0.116,1.4826775365092781,5902.974887618955
0.12,1.5041878238919593,5893.282426807682
0.124,1.505032947863958,5897.605003477112
0.128,1.48615789963721,5900.024840512803
0.132,1.4518146594016406,5899.239776458693
0.136,1.4081415721030428,5910.6739343344525
0.14,1.3613726937199453,5898.91985436953
0.144,1.316333235606057,5900.1922544523
0.148,1.2757064096304556,5896.813620361075
0.152,1.2401486654220022,5899.435352925514
0.156,1.2090169316180939,5901.251138182437
0.16,1.1814414512899603,5908.17267298693
0.164,1.1575096916735914,5899.837081226739
0.168,1.1391639960186255,5905.006794042441
0.172,1.130269228034812,5898.299809270242
0.176,1.1355738653709937,5896.582766688059
0.18,1.1588858915723912,5897.707351829319
0.184,1.2012134386854478,5904.37147744039
0.188,1.2596039393027647,5899.842333522254
0.192,1.3271223018592564,5893.573070549982
0.196,1.3940828977598005,5900.1788482320735
0.2,1.4503063491790835,5904.024741332392
0.204,1.4877564410554114,5896.854540446196
0.208,1.5026076188791604,5895.813384687604
0.212,1.4959091705919145,5895.553049245056
0.216,1.4726073078990123,5896.669285444053
0.22,1.4394642159629145,5889.893766816181
0.224,1.4029120706169245,5898.43083034242
0.228,1.367771093391139,5900.407592061741
0.232,1.3371335926267383,5902.209142565547
0.236,1.31301695469688,5905.763938808686
0.24,1.2970339664911872,5894.657802231372
0.244,1.290487212032668,5902.829645748409
0.248,1.2938454837000357,5892.832037197004
0.252,1.306080179348761,5904.40141622204
0.256,1.3244144914371525,5902.540702724931
0.26,1.3447084599396115,5896.892775994533
0.264,1.3623371119583176,5903.605922018483
0.268,1.3732354020246575,5895.590041160833
0.272,1.3747815111144597,5900.877989180143
0.276,1.3663419752580312,5895.340320366826
0.28,1.3495050020062997,5901.220988025725
0.284,1.3280656960521697,5898.281440716826
0.288,1.3076514066257614,5906.258929864621
0.292,1.294761738891668,5896.962482819874
0.296,1.2952147196899817,5892.663631845592
0.3,1.312441559634473,5904.622684371915
0.304,1.3463669075559146,5901.0605322652
0.308,1.3934231164451705,5893.166073236602
0.312,1.4476316233923578,5902.121000608715
0.316,1.5021095865115335,5906.431110280995
0.32,1.5502994156554486,5900.9450913301
0.324,1.5866511493412532,5901.123741302937
0.328,1.6069359784026174,5900.601234821054
0.332,1.6084761327981643,5900.999236858884
0.336,1.5904245732219242,5906.738896535868
0.34,1.554050381060934,5898.502616788674
0.344,1.5028806375454429,5889.608365257338
0.348,1.4425493760161523,5914.249054285557
0.352,1.380305071092444,5896.769096885048
0.356,1.3242233929156897,5901.566863945254
0.36,1.2821624105740408,5899.061923505139
0.364,1.260451339311646,5901.846523988115
0.368,1.262397681436155,5899.654612306676
0.372,1.2869760736520355,5899.420807372779
0.376,1.328315625219482,5896.722363794136
0.38,1.3765311982943522,5903.673750124151
0.384,1.4199464018351033,5903.854026758947
0.388,1.448079705652995,5896.7002962338365
0.392,1.4543493485990895,5894.958737308742
0.396,1.4375713899481444,5905.705531391247
0.4,1.4018885520236757,5898.872814138111
0.404,1.3554079836135045,5900.128399590447
0.408,1.3081563250286097,5899.340120580732
0.412,1.2698882668463582,5901.955196905397
0.416,1.2480889514582991,5899.731309127173
0.42,1.246486310742146,5894.107228991767
0.424,1.2644718276388245,5900.765606401242
0.428,1.297700322050401,5898.456394343948
0.432,1.3396863518466295,5905.773534493561
0.436,1.3837302034816328,5906.661737839221
0.44,1.4243867230715304,5907.433907357492
0.444,1.4580259855808735,5903.805977341878
0.448,1.4825719594863134,5893.912474689392
0.452,1.4969047696564168,5900.090835435762
0.456,1.5004778447712017,5894.263905281204
0.46,1.4934289125127729,5903.375497737166
0.464,1.476996402541854,5894.832435989983
0.468,1.4536900610999641,5897.530399079149
0.472,1.426771526670274,5906.133838287168
0.476,1.3991974627750179,5897.541658815323
0.48,1.3727131076736168,5898.892856756062
0.484,1.3476993411246823,5899.076394802283
0.488,1.323798120057416,5899.979691716599
0.492,1.3008459543156243,5892.804173229606
0.496,1.2795376025093805,5904.599603348624
0.5,1.261445956777582,5899.867210302355
0.504,1.2484000388191672,5907.379035186501
0.508,1.2415879902894416,5901.332386250007
0.512,1.2408712920033576,5902.398787905148
0.516,1.2446428033916397,5897.462246585182
0.52,1.2502967746622011,5902.814432384858
0.524,1.255100967499868,5901.42256464112
0.528,1.2570795637837586,5905.332453953622
0.532,1.2555881949592096,5899.403440606324
0.536,1.2515024311026315,5910.561019115846
0.54,1.2470807811325875,5908.394073348612
0.544,1.245541346308242,5903.356841330212
0.548,1.2503366134046472,5904.038177161961
0.552,1.2641111936432325,5898.730240230279
0.556,1.2874525698535209,5901.32423369711
0.56,1.31784275107401,5906.438141976957
0.5640000000000001,1.3494984951027846,5898.736267687779
0.5680000000000001,1.3746456616308071,5899.779243683146
0.5720000000000001,1.3860590405538356,5902.495906684454
0.5760000000000001,1.3798461953366707,5888.692488882816
0.58,1.3571410703476574,5903.180083350579
0.584,1.3238791326954478,5889.56280719274
0.588,1.2888076294623465,5895.35000566145
0.592,1.2607080605695364,5897.257705761111
0.596,1.2460197840489466,5893.5506117541445
0.6,1.24763876074411,5905.65107593763
0.604,1.2649918231099162,5907.21977263907
0.608,1.2949768933402315,5901.655522257466
0.612,1.3331541585667588,5893.584289967066
0.616,1.374601615717389,5902.060961767634
0.62,1.414122637470127,5894.578931403828
0.624,1.4460013893644816,5911.83053987366
0.628,1.4639223520822258,5898.742396257764
0.632,1.461621356478114,5905.795389856723
0.636,1.4343512322363017,5900.528693384089
0.64,1.3806946028585483,5901.735147360919
0.644,1.3039376692036289,5903.362954529088
0.648,1.2122602005449772,5896.949758398642
0.652,1.1174268849152367,5899.469365033987
0.656,1.0323330293852655,5903.084391898616
0.66,0.968303290105683,5898.456248680058
0.664,0.9331033233955092,5911.608263760222
0.668,0.9301403660631108,5909.344543610061
0.672,0.9586750503926171,5895.295391371309
0.676,1.0145565519069775,5904.688513664592
0.68,1.0911391029334743,5903.17323516142
0.684,1.1802881921717776,5900.996964750888
0.6880000000000001,1.2734415212082635,5895.282284570537
0.6920000000000001,1.3626017233627004,5896.96620153499
0.6960000000000001,1.4410762089175093,5895.383193512396
0.7000000000000001,1.5038334859757663,5902.736356251586
0.704,1.5475106660070626,5893.874018111732
0.708,1.5702751459434916,5900.708722879616
0.712,1.571783733259936,5902.921021567143
0.716,1.553385492277026,5898.046840683469
0.72,1.5185271576167103,5913.884089702141
0.724,1.4730617708074496,5905.365578681933
0.728,1.4249804158310195,5896.752683624534
0.732,1.3832258494794065,5898.858864108987
0.736,1.3557003390295557,5898.04873733479
0.74,1.3470682481836136,5902.783400741487
0.744,1.3572099805189002,5911.530862422059
0.748,1.3810673708061951,5901.524288764272
0.752,1.410137429568961,5892.639847354182
0.756,1.4352128029740712,5900.004638019856
0.76,1.4494103230691993,5894.116826561986
0.764,1.450316816736244,5902.998993177991
0.768,1.440393049603266,5906.088914736394
0.772,1.425581672695084,5896.371436520752
0.776,1.412924966836425,5900.711609679281
0.78,1.4083080986004537,5906.274182395847
0.784,1.4150631965010378,5902.285469895597
0.788,1.433563701123697,5898.126502889558
0.792,1.4615847791412,5892.661894566959
0.796,1.4951509690255054,5891.985566456973
0.8,1.5296233586402517,5900.629829808474
0.804,1.5607583967251133,5896.349305804258
0.808,1.5854472156995596,5895.055159955837
0.812,1.6019463680490842,5898.360755585042
0.8160000000000001,1.6096645658159126,5894.133548581887
0.8200000000000001,1.6088031155755198,5911.94175287841
0.8240000000000001,1.6001373072095542,5909.110604566261
0.8280000000000001,1.5849786550673697,5900.599417202851
0.8320000000000001,1.5651375756071615,5896.116272991367
0.836,1.542729171921086,5889.368798000715
0.84,1.5198515454750317,5897.48431960793
0.844,1.4982666544992704,5900.323935274738
0.848,1.4791370311270844,5903.332623298247
0.852,1.4627768498991074,5896.600680005775
0.856,1.4484243151163314,5896.282021034398
0.86,1.4341854367849687,5899.904064578551
0.864,1.4173714342901917,5903.582229032395
0.868,1.3953506036838312,5900.032272415963
0.872,1.366764213567229,5903.371494066063
0.876,1.332638594043179,5899.487461928939
0.88,1.2967869177956888,5897.451272392779
0.884,1.2650975395460127,5906.1659132128825
0.888,1.2437985472554947,5897.902860908235
0.892,1.2373128476532127,5904.202300325236
0.896,1.2465676129615764,5896.900748189494
0.9,1.2684646340852088,5896.285491438625
0.904,1.2967771504626957,5892.905222557709
0.908,1.324216243717096,5894.682466938769
0.912,1.3449475464277458,5897.48649741068
0.916,1.3565905934302653,5901.376424483244
0.92,1.3608759153265297,5906.437613645772
0.924,1.3626844231377928,5899.706608183544
0.928,1.367899499019198,5897.304400504608
0.932,1.3810042807761955,5898.569319322045
0.936,1.4034195450766556,5901.099072436826
0.94,1.4331887297765358,5893.968859843097
0.944,1.4659632994491851,5903.684773337716
0.948,1.4966555731284488,5906.224731447957
0.952,1.520935300133888,5900.6889032354775
0.956,1.5360241040645433,5898.4780467503815
0.96,1.5407240471054502,5900.507102625945
0.964,1.5349691833915793,5893.759282407173
0.968,1.5192964528777537,5906.963095212933
0.972,1.494537787200969,5899.530977968374
0.976,1.46180310213809,5899.419447452409
0.98,1.422622182623606,5896.541197779465
0.984,1.3791326156656099,5907.810080573604
0.988,1.3343110246960377,5904.393445058556
0.992,1.2921316927805244,5897.433355043488
0.996,1.2572875942125035,5906.828797502067
1.0,1.2341649235731316,5896.7565667734725
1.004,1.2252406696470566,5900.7045120559005
1.008,1.2296088267966003,5903.8232371118775
1.012,1.242533360785059,5900.2065906545295
1.016,1.2565924907002017,5890.643300313895
1.02,1.2642056716430907,5893.491244683309
1.024,1.2605474531018803,5895.788648237448
1.028,1.2455795457984735,5901.215762535261
1.032,1.2243388646589097,5895.237996084545
1.036,1.2054036844591274,5898.200253672372
1.04,1.1981713764829918,5891.767914858478
1.044,1.209930439698427,5901.713917651325
1.048,1.2436468432879078,5913.670008632612
1.052,1.2970154075018978,5897.359464471522
1.056,1.3628508640211845,5899.742581286401
1.06,1.430552505283622,5900.562485633915
1.064,1.4882696635402684,5898.860207965389
1.068,1.5253729747304934,5903.241460989279
1.072,1.5347474067762579,5901.941265532773
1.076,1.514371600720145,5894.667422787463
1.08,1.4678220330714151,5904.364818752518
1.084,1.403679411625732,5904.0379679922025
1.088,1.3340376067204645,5895.196951555389
1.092,1.2722972061026885,5911.293487261885
1.096,1.2304081933847437,5900.900118163641
1.1,1.2159846818155644,5905.706415761503
1.104,1.2301026360695881,5898.440196790045
1.108,1.2666757227600367,5904.802683651288
1.112,1.3138659192957893,5888.235861227349
1.116,1.3571980596642483,5906.227840524101
1.12,1.3833383923475968,5906.7758277843495
1.124,1.38329880628932,5899.533396270082
1.128,1.3542185218512388,5898.983243682524
1.132,1.2994827597360703,5903.487034007123
1.136,1.2273939936867597,5900.92467492557
1.14,1.148919400156193,5903.135357517136
1.144,1.075278755734546,5908.455343102219
1.148,1.0160992986339912,5899.6931150026885
1.152,0.9783913164988364,5893.875479680214
1.156,0.9660599713625715,5895.234777663009
1.16,0.9795621753261119,5904.185305970217
1.164,1.015606219460435,5907.2874479978445
1.168,1.0671065060781524,5894.226527963518
1.172,1.1237728504168456,5904.646318574186
1.176,1.1736827387782154,5901.379532003319
1.18,1.2058263005482959,5895.87953723489
1.184,1.2129857426733064,5901.462661917244
1.188,1.1938596748544885,5888.577002465995
1.192,1.1535180537627834,5892.855839470628
1.196,1.1019933279248568,5896.63199248292
1.2,1.0515244947182514,5899.878898032101
1.204,1.0133008390961153,5897.706335971686
1.208,0.9946118410652495,5895.065634903439
1.212,0.9972249206281437,5903.297432474064
1.216,1.0174420155754507,5906.87384701293
1.22,1.0476425158350375,5899.753316720646
1.224,1.078591600687575,5897.986477883384
1.228,1.1017127801026958,5901.718733277574
1.232,1.1108283465039868,5891.321198191498
1.236,1.1032530658327901,5901.322123055366
1.24,1.0803053169380121,5890.979464567884
1.244,1.0471926604497794,5909.594370497766
1.248,1.0120433467719754,5895.943773083987
1.252,0.9839532166247809,5906.868724558576
1.256,0.970401266546227,5901.816881606266
1.26,0.9748947540483208,5897.7477738344205
1.264,0.995777298164493,5909.091391719445
1.268,1.0267122301741634,5902.408352135914
1.272,1.0587445257859953,5900.422123861944
1.276,1.0833075305023125,5900.037818478041
1.28,1.0951666819288202,5899.078326529959
1.284,1.094200653108633,5896.496394371364
1.288,1.0852759714759856,5905.80162808884
1.292,1.0762480973836581,5911.778497434778
1.296,1.0749514959059623,5914.208495054193
1.3,1.086420047928367,5905.140779612977
1.304,1.1113160625682073,5901.970991540755
1.308,1.1459067399961298,5897.54315825784
1.312,1.183310517070912,5902.328478333707
1.316,1.2153919377795162,5897.113173121328
1.32,1.2346826700503148,5897.467413629675
1.324,1.2359453538031069,5900.412291398385
1.328,1.217255073479554,5897.564828137411
1.332,1.180568555770866,5901.210701000175
1.336,1.131665760526327,5912.066088421096
1.34,1.0792528919111424,5906.538923537191
1.344,1.0331471339192315,5905.452328871257
1.348,1.0018492227477174,5897.9955584889685
1.352,0.9901811432418532,5912.6172043629485
1.356,0.9977683853770092,5903.127620446637
1.36,1.0189571901040764,5910.374794019254
1.364,1.0443405969980948,5902.714349696467
1.368,1.063515773405491,5899.763167176427
1.372,1.068225031699591,5905.077871139658
1.376,1.0548538727421064,5915.241060441591
1.38,1.0254101444151895,5898.94375384343
1.384,0.9865694031010196,5910.328802616748
1.388,0.947123388727629,5911.136220921345
1.392,0.914932962751869,5900.2037608488645
1.396,0.8946996043253939,5906.1617210406375
1.4,0.887280372818652,5903.0690787704525
1.404,0.8903688970954308,5915.070450843792
1.408,0.8998564226001081,5899.333697858212
1.412,0.9112546354032786,5902.2306790644025
1.416,0.9208816778452777,5898.748802629988
1.42,0.9267380090485283,5897.858473284964
1.424,0.9290120763816259,5902.820800331946
1.428,0.9300614321491275,5908.931435800987
1.432,0.9337386026456055,5902.085690178413
1.436,0.9441775528590086,5904.438579141192
1.44,0.9644398378361319,5904.406185550509
1.444,0.9954863049567338,5906.357329595818
1.448,1.0357679936000528,5901.632345136394
1.452,1.0814614215843399,5907.142900788071
1.456,1.1271412173337931,5907.312331790673
1.46,1.166588695363096,5912.001153593713
1.464,1.1935237652578978,5895.581617252583
1.468,1.2022531835734493,5897.31848992294
1.472,1.1883992171813476,5910.563014392031
1.476,1.149857644428372,5913.125960584216
1.48,1.08790039955099,5906.722720601905
1.484,1.0080445721208033,5903.900788239414
1.488,0.9201644254226424,5912.938871826484
1.492,0.8373954318893119,5905.625535333633
1.496,0.7736773028341394,5901.173298504743
1.5,0.7403547147322451,5896.885296314052
1.504,0.7429351156359408,5898.597561131208
1.508,0.7793533981205366,5908.953986074072
1.512,0.8405093358651726,5906.173511496048
1.516,0.9127827185292573,5902.138297606711
1.52,0.9815120317992535,5904.861424643435
1.524,1.034389589715771,5901.794492748529
1.528,1.0640258642698632,5908.316871219342
1.532,1.069198944397361,5904.794863268673
1.536,1.0545669620125908,5902.682869860016
1.54,1.028999555534453,5910.352642692106
1.544,1.0030426100572958,5905.071895810657
1.548,0.9861650401031721,5902.70170313036
1.552,0.9843779721218204,5900.142997600735
1.556,0.9987288126307541,5898.733523609588
1.56,1.0250835323581322,5903.16467192374
1.564,1.0554063547019146,5911.616031617057
1.568,1.0803345807500897,5903.324151026715
1.572,1.0922876678942488,5898.84524574858
1.576,1.0879334704523504,5901.4285438683455
1.58,1.0689594003339649,5897.362118522655
1.584,1.0408660559639835,5905.113944112702
1.588,1.0104709797744555,5901.903839358399
1.592,0.9833409880483339,5898.6844073455
1.596,0.9622019216747182,5906.9569445172965
1.6,0.9467399521203934,5901.252124502389
1.604,0.934542084043065,5905.108500086271
1.608,0.9225497051608209,5900.487167222646
1.612,0.9083954855148512,5900.530526106669
1.616,0.8912398210955961,5897.63649473982
1.62,0.8720232279420166,5908.942414061853
1.624,0.8532268578738315,5903.031826346289
1.628,0.8382440590373127,5901.676664851439
1.632,0.830462432696643,5912.381356343884
1.636,0.8322634129839404,5898.614954212978
1.64,0.8442571698021029,5911.887056610063
1.644,0.8650152110895128,5903.157069681429
1.648,0.8913746039125663,5902.196418973524
1.652,0.9192174787306503,5903.121786849417
1.656,0.9445121665661023,5894.448116340683
1.66,0.9642895170740382,5907.788616095652
1.664,0.977169742002506,5905.40763302831
1.668,0.9831806042881961,5906.922956599031
1.672,0.9829425614155916,5918.03283174947
1.676,0.9766655973149724,5905.180290023968
1.68,0.9635314474267812,5904.791538138058
1.684,0.9418056514706761,5904.003080380085
1.688,0.9096261027252274,5906.273983150822
1.692,0.8661416502399754,5898.664811398396
1.696,0.8126039320614146,5905.958863872883
1.7,0.7530243300609882,5914.55755648084
1.704,0.6940447640776637,5910.941798311373
1.708,0.6438414321305741,5903.823132581108
1.712,0.6102276111081544,5905.861514376993
1.716,0.598490041559989,5904.752305672596
1.72,0.6096889466942544,5909.650613087582
1.724,0.6400843810316296,5909.036722206572
1.728,0.6819999602527002,5902.669592643256
1.732,0.7258725471117664,5900.868882978719
1.736,0.7627206202067635,5900.642638203654
1.74,0.78611764531322,5908.330587196264
1.744,0.7930774999088659,5909.043081631471
1.748,0.7838146245952561,5897.325515153341
1.752,0.7607945258389356,5910.752066109494
1.756,0.7276535524438827,5901.952228197629
1.76,0.6884336723291701,5906.661936033948
1.764,0.6472515285298882,5907.239781213832
1.768,0.6081845392263798,5897.386075549538
1.772,0.5750179233419154,5909.974179292092
1.776,0.5506701576229824,5905.108859242236
1.78,0.5364951102024968,5910.375218118308
1.784,0.531924322785153,5910.503092571822
1.788,0.5348064697311635,5900.529832703674
1.792,0.5424154326019787,5912.689563613945
1.796,0.552730546618429,5916.152033375503
1.8,0.5654321389894978,5908.214852760054
1.804,0.5821303160339483,5901.901102794388
1.808,0.6056096695872991,5906.343959682954
1.812,0.6382614369255211,5901.861790619633
1.816,0.6802744557693029,5912.845119900922
1.82,0.7283597674638798,5904.377587140322
1.824,0.775633060725088,5905.997571618726
1.828,0.8128644707241645,5915.144340889581
1.832,0.8308528010047874,5909.929664685966
1.836,0.8232948524713715,5906.793352400836
1.84,0.7892212896415229,5908.457358175934
1.844,0.7340187878637,5902.934978605332
1.848,0.6684607921039376,5910.184381532279
1.852,0.6059419306090477,5912.360878820046
1.856,0.5588607976873368,5907.819095112099
1.86,0.5354442872550003,5892.740686304896
