时间(s),电压(V),幅值(高频80K)
0.0,0.9740099620857665,5901.257907782664
0.004,1.0484211063834412,5904.989127629136
0.008,1.1111418492689928,5910.241859283663
0.012,1.1533997619259193,5899.851324022952
0.016,1.1706924672863355,5890.336554979429
0.02,1.1635762750895982,5909.102551804642
0.024,1.1375492090187256,5892.301288816055
0.028,1.1021282550364842,5907.959514052279
0.032,1.069071123594982,5910.876996175745
0.036,1.0497990824163914,5903.728612985207
0.04,1.052558225988225,5903.965384281635
0.044,1.080256560958277,5897.374891360154
0.048,1.1297512647613168,5898.077352636779
0.052,1.1927342882269063,5896.56019722778
0.056,1.2577837460527679,5897.914595830255
0.06,1.312921565220068,5904.38394181412
0.064,1.3480550458424547,5893.535783283185
0.068,1.3567976235670294,5906.8328974040205
0.072,1.3373349908323506,5907.169941346128
0.076,1.2922761215863505,5899.439880709399
0.08,1.2277459201496252,5902.205985583861
0.084,1.152148636342325,5904.145353677102
0.088,1.0749339494892596,5894.906944546167
0.092,1.005465292133826,5903.145216954062
0.096,0.9519817833654228,5892.559660703927
0.1,0.9207007285955658,5906.434593783138
0.104,0.9151436931694552,5900.468228882915
0.108,0.935714491507088,5903.160682417974
0.112,0.979538283140555,5903.159478981883
0.116,1.04065350790682,5897.837123301932
0.12,1.1106970768540674,5895.516351112015
0.124,1.1800842380694658,5895.2213160513575
0.128,1.2394411383978585,5907.258305058025
0.132,1.2809533356204506,5895.991982101161
0.136,1.2994243570255748,5896.629971724338
0.14,1.2930008268044917,5904.866889234422
0.144,1.2635266962667435,5902.938636258847
0.148,1.2163752398545797,5898.230154490572
0.152,1.1595888273934223,5899.525443965074
0.156,1.102388512291747,5897.009222688837
0.16,1.0534563406208728,5901.963461737016
0.164,1.0195179065782862,5896.121575020254
0.168,1.0045436923217093,5889.7020004416745
0.172,1.009561959376649,5905.077889376147
0.176,1.0329154083945251,5902.052319014359
0.18,1.0708430794546142,5900.214606563349
0.184,1.1183340347550907,5891.492803381447
0.188,1.17013669426673,5901.505342885088
0.192,1.22169814597096,5895.656068700592
0.196,1.269799124194274,5894.156946321578
0.2,1.3127574233834978,5900.744662144469
0.204,1.3501937281109566,5902.371336294285
0.208,1.3824321285573555,5891.524337920694
0.212,1.4097021648411954,5902.911116011851
0.216,1.4314531777394104,5900.180155325376
0.22,1.4461465824533914,5895.0968154043
0.224,1.451691881764488,5909.341703232116
0.228,1.4463233297892533,5896.848087105506
0.232,1.4294746318941811,5897.051843639086
0.236,1.4022686094203392,5892.730520622753
0.24,1.3674831223640969,5904.062031706387
0.244,1.3290729626525006,5902.80919785568
0.248,1.2914153708962748,5901.722922417168
0.252,1.2584283197319335,5900.298582150276
0.256,1.2326868669510538,5895.178353245376
0.26,1.214735535011564,5903.675740186056
0.264,1.2029142892435072,5909.710960876757
0.268,1.1939514006464083,5899.475390262577
0.272,1.1842200625583215,5908.802697111796
0.276,1.171164565330058,5896.38455106868
0.28,1.1543154717893758,5897.333355860504
0.284,1.1355421066618603,5891.334346683545
0.288,1.1184945451561934,5894.072863409348
0.292,1.1074262624260751,5898.735091900582
0.296,1.1057880077162066,5903.082844501187
0.3,1.1151144454956812,5899.602623382511
0.304,1.1346263068391695,5895.696640474166
0.308,1.1615963276697574,5895.199968979325
0.312,1.1921491875395394,5897.417837483625
0.316,1.2220982744902276,5905.532159546977
0.32,1.2476090118467325,5894.568753912894
0.324,1.2656294948233446,5910.542731926362
0.328,1.2740690342673338,5909.146969195476
0.332,1.2717659097644596,5900.606114287536
0.336,1.2583794203510115,5891.263700521661
0.34,1.2343522101076194,5899.988951456082
0.344,1.2009768485363732,5901.787689825556
0.348,1.1604460649897503,5914.282347552103
0.352,1.1157099010345797,5897.491178353132
0.356,1.070084455780611,5897.286338903185
0.36,1.0267530540604994,5898.635133909271
0.364,0.9883956306446181,5906.315034545436
0.368,0.9571129153170179,5905.2185253200905
0.372,0.9346285388693022,5901.715194426465
0.376,0.9225591765418879,5904.376068244084
0.38,0.92247423198488,5899.466133293441
0.384,0.9355949723819167,5904.717375857055
0.388,0.962220918343983,5904.557910147373
0.392,1.0011285478837684,5904.022159481093
0.396,1.0491885171945794,5895.768173864336
0.4,1.1014135303006585,5901.650332539261
0.404,1.15163779643685,5901.711558040649
0.408,1.1938621842719372,5900.589125823537
0.412,1.22388578533365,5897.797301623966
0.416,1.2404913857922784,5899.6639863407245
0.42,1.2455611644456592,5907.479271481156
0.424,1.2430585063181279,5896.223619440278
0.428,1.2373919537903362,5905.943193891226
0.432,1.2318967125145175,5899.556384898837
0.436,1.2280237276622021,5890.58416510618
0.44,1.2255089203131133,5904.229030653467
0.444,1.2233966756452384,5893.497218530477
0.448,1.2213765809254502,5897.138614944392
0.452,1.2206753327399538,5903.255256417267
0.456,1.223934287863523,5890.866442493126
0.46,1.234038792507276,5901.953575996222
0.464,1.2524478560180647,5901.0237502827695
0.468,1.2778772824715507,5902.330664880824
0.472,1.3060376349234089,5895.172034632651
0.476,1.3305914288591094,5900.484504372584
0.48,1.3448947161660616,5893.689990272443
0.484,1.3437908856166019,5901.695216810866
0.488,1.324857942690362,5897.459006894105
0.492,1.2889092164724387,5899.379996645226
0.496,1.2398915969984174,5905.362304195681
0.5,1.1843487299908537,5902.2631849524805
0.504,1.1303854554275452,5891.809276438165
0.508,1.0860270284625173,5890.702213651193
0.512,1.057277277938686,5897.820772563667
0.516,1.0466448726930437,5898.124379495685
0.52,1.05282881655197,5897.503228437726
0.524,1.071621455219583,5901.821736035298
0.528,1.0974454797702964,5907.969558408847
0.532,1.1247583098509468,5897.248767144028
0.536,1.148852581166651,5905.173003122675
0.54,1.1660588958882971,5898.754038505129
0.544,1.1736981263142623,5903.787021814693
0.548,1.1701594628815308,5898.769089100503
0.552,1.1552230794897602,5900.70247491617
0.556,1.130430117762317,5902.015460194551
0.56,1.0991793411365265,5903.042313831689
0.5640000000000001,1.0663399815489896,5903.5061511515
0.5680000000000001,1.03737149663755,5910.030592539243
0.5720000000000001,1.0171223645614869,5906.880387001057
0.5760000000000001,1.0086244214293576,5897.766475249538
0.58,1.0122803328163568,5904.897265352617
0.584,1.0257721318823576,5901.429674338176
0.588,1.0447492797313656,5901.824304729667
0.592,1.0640202417105586,5906.890616325364
0.596,1.0788129748112487,5902.425708253423
0.6,1.0857585567286518,5896.845082261012
0.604,1.0834425411628497,5891.467458447851
0.608,1.0725197746996094,5903.345918153616
0.612,1.05545623243737,5898.788510446061
0.616,1.0359430056042507,5906.958246936522
0.62,1.0180034909442408,5903.52832926752
0.624,1.004921739818531,5899.133606252672
0.628,0.9983166061239168,5899.186457062969
0.632,0.997722710276064,5894.888798916016
0.636,1.0008126389995382,5902.959611282542
0.64,1.004130887584256,5905.387980363707
0.644,1.0041256580829123,5891.89889336325
0.648,0.9982738372755375,5900.786503539092
0.652,0.9860341787264539,5902.2728343096405
0.656,0.9692976898157145,5898.1499999509815
0.66,0.9521058007895611,5896.436761142833
0.664,0.9396820816324156,5904.873915279174
0.668,0.9371040365355456,5906.104501886292
0.672,0.9480639159116885,5897.548930909859
0.676,0.9740669397386659,5895.421162306633
0.68,1.0141588869266072,5899.105931789904
0.684,1.0650667541508194,5900.986120469565
0.6880000000000001,1.1216453655223422,5899.350834455615
0.6920000000000001,1.1776531251838422,5895.008384059562
0.6960000000000001,1.2268670165945663,5900.762098466198
0.7000000000000001,1.264316837529075,5896.054305210115
0.704,1.2872008850827978,5906.7314633603655
0.708,1.2951051204841462,5900.541478479885
0.712,1.2894953160881304,5892.276509252896
0.716,1.272820119459885,5902.774286154531
0.72,1.2476699429130165,5901.179020288803
0.724,1.2162638361015479,5906.899525507584
0.728,1.1803078837325511,5895.775999659474
0.732,1.141170780868174,5897.607199942004
0.736,1.10031575315931,5904.118049511508
0.74,1.0598662567174142,5904.131341059462
0.744,1.023062938684,5896.944003605699
0.748,0.9943307012370446,5892.593928048997
0.752,0.9787751684099519,5903.683525094271
0.756,0.9811049840078135,5898.0579323342
0.76,1.0041896035968596,5899.22439157438
0.764,1.047691920465213,5903.577899997032
0.768,1.1073478309702909,5892.036571896723
0.772,1.1753367736490565,5886.261376807844
0.776,1.241802489000701,5909.96364703401
0.78,1.297164838257016,5896.307390762107
0.784,1.3345910838069799,5895.240202309467
0.788,1.351869684815451,5903.16433744076
0.792,1.3519825822543723,5898.25673143119
0.796,1.342028535449638,5894.500740463148
0.8,1.3307651449603277,5904.38279420497
0.804,1.325602968646071,5901.101273328555
0.808,1.3301002435421154,5902.399953722795
0.812,1.3428113145175928,5901.084455536616
0.8160000000000001,1.3578784789068936,5902.109811176153
0.8200000000000001,1.3671965989129973,5904.685861179481
0.8240000000000001,1.3634441013140195,5903.617906532605
0.8280000000000001,1.342911638702151,5891.974640574705
0.8320000000000001,1.3070702582822453,5901.234432216723
0.836,1.2622905780525884,5903.223374885994
0.84,1.2178620404997635,5906.609872645972
0.844,1.1830842215092618,5904.987248267124
0.848,1.1644406988666531,5899.373414595739
0.852,1.1637304483600701,5895.32675587289
0.856,1.1776742022362396,5902.532083217547
0.86,1.1990652030140982,5898.4001275751225
0.864,1.219077360010983,5901.268591584667
0.868,1.2299552038752857,5893.755148726705
0.872,1.2271575842817868,5896.599541207919
0.876,1.2102770390276856,5901.959896006561
0.88,1.182582030515765,5895.6257903778205
0.884,1.1495019594453344,5906.475356103933
0.888,1.116655868621466,5903.516354348118
0.892,1.088141417566025,5903.197529447629
0.896,1.0656990750891775,5896.015771200305
0.9,1.048995938996728,5896.811606033988
0.904,1.0367615808666593,5903.111525334412
0.908,1.028121024957299,5901.059810377035
0.912,1.0234348444321768,5891.426482076523
0.916,1.0242869623076003,5900.833760703509
0.92,1.032720713670835,5899.433865782791
0.924,1.0501205421797348,5908.656785044851
0.928,1.0761728612407522,5906.229353964724
0.932,1.108241138136,5905.675387721278
0.936,1.141402273299544,5902.46638209225
0.94,1.1692951362532797,5894.334116309646
0.944,1.1857055629774156,5894.684511286842
0.948,1.186469545005194,5894.83680984698
0.952,1.1710383499811625,5903.2768019812565
0.956,1.1430966248985412,5898.319284139208
0.96,1.109906493034777,5899.880162807896
0.964,1.0804273132361546,5897.163027699087
0.968,1.0626722543430847,5897.920334904216
0.972,1.0611309713037849,5899.122740445215
0.976,1.0752085842752657,5888.174659918078
0.98,1.0993419587070605,5901.309152386765
0.984,1.1248380146984995,5893.6283791545175
0.988,1.1428053863646201,5899.872950229711
0.992,1.1470934396312493,5901.390148216369
0.996,1.136109147022168,5893.30908637062
1.0,1.1128293252128914,5896.0706845112645
1.004,1.0831108678559005,5894.71594282954
1.008,1.0531282768637664,5898.831743085918
1.012,1.0270414464070206,5906.80236093857
1.016,1.0057604350379754,5899.842575370868
1.02,0.9871998716357272,5903.636856490054
1.024,0.9679159583421559,5900.621905250364
1.028,0.945507657158999,5907.879223022262
1.032,0.9207606900682155,5899.356621609864
1.036,0.8984908539656086,5906.863565216173
1.04,0.8865008601438339,5900.963759507607
1.044,0.8928569576574412,5902.102216895843
1.048,0.9225204248139565,5899.999627485081
1.052,0.9747876637774958,5899.99784505787
1.056,1.042679966324125,5897.774684094785
1.06,1.1145410293399778,5897.300430121974
1.064,1.1771566335978907,5902.147355180051
1.068,1.219186791923766,5904.563279256124
1.072,1.2338047010649673,5904.829298900913
1.076,1.2199771939760482,5912.832885278636
1.08,1.1823603965173537,5898.606861530802
1.084,1.1300630713689783,5907.9625407650665
1.088,1.0746180929725875,5901.28635819851
1.092,1.0275532688227713,5902.8234891455
1.096,0.9980345720385329,5889.898524679436
1.1,0.9911410617032297,5895.167053378127
1.104,1.007269062033581,5902.723320645872
1.108,1.0427879011627306,5899.638738951423
1.112,1.0914951816465006,5904.699208489983
1.116,1.146083315669611,5901.174817924205
1.12,1.199068042195302,5892.206365743931
1.124,1.2432601190737977,5896.955366552929
1.128,1.272303980419056,5895.688766735897
1.132,1.2816475795952613,5897.839976632658
1.136,1.2697071654354344,5897.525453412646
1.14,1.2385363561366685,5906.472468148873
1.144,1.193435923238888,5899.61329546833
1.148,1.141522896982066,5904.179452418853
1.152,1.0898228844381879,5903.581839745421
1.156,1.043613879542701,5903.671935562472
1.16,1.005556687189027,5899.937593349123
1.164,0.975799415376322,5896.33465352211
1.168,0.952902093725174,5898.255674148404
1.172,0.9351700375830512,5895.611768237505
1.176,0.9218490039936796,5896.877105414765
1.18,0.9136650350283331,5898.4215738634
1.184,0.9124506182427575,5897.757779474428
1.188,0.9200558017977737,5901.426349526868
1.192,0.9371395464889217,5901.722045652869
1.196,0.9624587941231297,5901.603642221353
1.2,0.9929190277916047,5899.372743119465
1.204,1.024239176580704,5903.626658911626
1.208,1.05187983065538,5896.2252524359565
1.212,1.0719150668533282,5896.487898985252
1.216,1.0817097996495497,5901.663977597696
1.22,1.0804487453983613,5897.485714012295
1.224,1.0695548662642624,5892.325591396549
1.228,1.0528132453936878,5902.072659528991
1.232,1.0358637047622368,5900.090456888931
1.236,1.0249310954321311,5903.955470345678
1.24,1.0251364999344839,5898.81432725537
1.244,1.0390656977160848,5901.007034424308
1.248,1.0661653219254035,5898.592888712818
1.252,1.103087012527878,5891.585986725317
1.256,1.1446570484708012,5907.680984881406
1.26,1.1849924047931508,5899.476666837471
1.264,1.218423015563735,5899.267495326367
1.268,1.2401406711207394,5905.449013559343
1.272,1.2467221587427262,5902.901535048727
1.276,1.2367376874014917,5905.559825402269
1.28,1.2114433496377568,5903.693441448637
1.284,1.1752096777660166,5891.220665583376
1.288,1.1352463675354232,5904.767258200022
1.292,1.1004908545027843,5899.942236249603
1.296,1.079924978892439,5897.599873373433
1.3,1.0807451683933014,5900.302302875236
1.304,1.106760376306104,5901.707178224301
1.308,1.1573111855214286,5892.782200502574
1.312,1.2269487681207791,5905.360889136823
1.316,1.306031569377263,5908.698141491645
1.32,1.3822655486578146,5904.118219453531
1.324,1.4430229634469165,5901.89709136374
1.328,1.4780068044135366,5896.893000255169
1.332,1.4815708532565175,5898.611667774186
1.336,1.4539816452463978,5898.052239723577
1.34,1.401228500949578,5903.373507543545
1.344,1.3334728960685742,5904.611560783114
1.348,1.2626157204806765,5895.074582536456
1.352,1.1996569583814904,5904.743947508479
1.356,1.15253751099097,5905.823079310514
1.36,1.124964307145661,5902.599210469885
1.364,1.116360753555167,5895.670993319204
1.368,1.1227178314122772,5894.736661287761
1.372,1.1379096616837536,5903.177273753875
1.376,1.1550377004999006,5896.406145800353
1.38,1.1675337716632999,5907.83939984408
1.384,1.1699746397754645,5897.835169148273
1.388,1.1587320745632013,5903.636625756032
1.392,1.1326045486142693,5899.137186158106
1.396,1.093387994854074,5894.259298614895
1.4,1.0460693163801738,5897.5838687803125
1.404,0.9982521669754494,5900.595149558852
1.408,0.9586769805156121,5906.592952434955
1.412,0.9351168366880399,5902.077610620522
1.416,0.9322844706931792,5902.543469268697
1.42,0.9505272726569751,5901.517449677624
1.424,0.9859146335070264,5894.54489989854
1.428,1.03179223534085,5887.483826974683
1.432,1.0811790520319124,5897.19237032016
1.436,1.128946671323457,5895.099159631307
1.44,1.1728608277742691,5903.187613740449
1.444,1.2131654346156115,5897.391958472118
1.448,1.2510711886845969,5893.501115765052
1.452,1.2869699745827683,5894.069367238311
1.456,1.319280753879462,5903.036390249239
1.46,1.3444988896569692,5890.751954233316
1.464,1.3583934004314524,5903.339548284726
1.468,1.357693588706304,5901.381899016706
1.472,1.341381774736844,5899.158863668464
1.476,1.311008868949105,5897.129533356788
1.48,1.2700631115148628,5894.837790222996
1.484,1.2228996831223198,5895.375907628953
1.488,1.1737898678152026,5904.08604136695
1.492,1.126387622197188,5908.618277299184
1.496,1.0836170190970378,5899.072586691231
1.5,1.04779138225285,5902.976168771686
1.504,1.0207117499792557,5898.304331335648
1.508,1.0035783313789528,5898.655670628216
1.512,0.9967362797724079,5892.757461093082
1.516,0.9994297965550257,5902.937777213819
1.52,1.0097425642121862,5895.343400944399
1.524,1.0247880941866427,5892.383501807463
1.528,1.0411340167815453,5894.710294237378
1.532,1.0554580464043155,5897.747524739542
1.536,1.0653654718608887,5900.270139295634
1.54,1.0700460125246205,5894.654343977229
1.544,1.0703271040227864,5897.700123441815
1.548,1.0680217029491863,5900.886090273396
1.552,1.0649835349231942,5892.14223886719
1.556,1.062401790424265,5896.516744573204
1.56,1.0605478550685397,5899.503270082601
1.564,1.058863275428596,5901.514852842689
1.568,1.0562265015215218,5899.487278713023
1.572,1.051357075779863,5900.829436194228
1.576,1.0433625201073453,5904.677782050858
1.58,1.0322871996974807,5905.4075952304665
1.584,1.0193565911270301,5900.686778551227
1.588,1.0066995672107852,5895.347494425371
1.592,0.9966442454363338,5900.356416234211
1.596,0.990912538521092,5896.464610826987
1.6,0.9900433002663035,5904.579644304654
1.604,0.9932573086302565,5908.418447760377
1.608,0.9988111506698086,5895.15387925802
1.612,1.0046905708107097,5903.35038705217
1.616,1.0093642666280953,5901.110757003829
1.62,1.0123383542960422,5894.642106719828
1.624,1.0143591730226096,5902.163462035752
1.628,1.0171961082517398,5897.794707417037
1.632,1.0230000012654399,5905.429367867718
1.636,1.0333709162913298,5899.050285833352
1.64,1.0484713795688752,5900.262216181126
1.644,1.066622102050966,5900.065617891063
1.648,1.0846716871709008,5906.285015786603
1.652,1.0990551723016553,5902.8695025699535
1.656,1.1070392550849926,5908.075831489774
1.66,1.1075043232634598,5897.398735818186
1.664,1.1009282621207714,5897.75104366124
1.668,1.0887951719967042,5903.707038383698
1.672,1.0729512465700883,5895.82382569671
1.676,1.0552354656504133,5897.813250488498
1.68,1.0373022524689095,5913.937362625485
1.684,1.0203639065444619,5907.068893814161
1.688,1.0047705208409705,5894.0738680507975
1.692,0.9896902839621653,5899.141912772881
1.696,0.9732780198909095,5900.709239198176
1.7,0.953456048072325,5897.46499558763
1.704,0.9289864840114043,5905.250626103229
1.708,0.900275123623733,5902.656424275873
1.712,0.8695072802263608,5900.181766126585
1.716,0.8401195024366648,5908.215963437682
1.72,0.8159490789106296,5913.378331823456
1.724,0.8004651163613746,5901.794148477693
1.728,0.7962710841437903,5903.1119936652585
1.732,0.8048020340485483,5907.917884575009
1.736,0.826080782596667,5908.054034923266
1.74,0.8585518001708154,5894.809423111748
1.744,0.899144686219559,5901.59784397081
1.748,0.9436707640485948,5896.990408033939
1.752,0.9874881303203403,5912.524495743598
1.756,1.0262267350303995,5906.872588302526
1.76,1.0563444625398217,5907.2249562246
1.764,1.0754184346384175,5909.611282278468
1.768,1.0822704502975256,5902.612406293017
1.772,1.0770803974312522,5900.080907229772
1.776,1.0614846682564707,5897.33853316932
1.78,1.0384991883624897,5900.500758545883
1.784,1.012174553482639,5895.017470901121
1.788,0.9870753374435831,5902.388078242724
1.792,0.9676876598628879,5904.017316950485
1.796,0.957699002716561,5899.750588754353
1.8,0.9590654373007778,5899.179881145311
1.804,0.9710171290375924,5893.508336514014
1.808,0.9894405222642609,5906.791071104723
1.812,1.0071576057798646,5905.748025267487
1.816,1.0154062103148713,5898.569334347257
1.82,1.0063347555403654,5897.198663674016
1.824,0.9757150736397973,5892.980916392045
1.828,0.9247120669045654,5903.642471711877
1.832,0.8598097837003478,5909.139813684506
1.836,0.7908494093342657,5896.583574045086
1.84,0.7280514977591239,5897.179735182767
1.844,0.6792890154962793,5906.97068414571
1.848,0.6485773360711629,5902.034378814547
1.852,0.6360304132903852,5894.918375628907
1.856,0.6388775692459019,5897.551129812396
1.86,0.6528984330395015,5902.208809902539
