时间(s),电压(V),幅值(高频80K)
0.0,1.3201088272973767,5906.770379812742
0.004,1.2081480972270324,5904.2410845894965
0.008,1.1109675666182999,5897.932869735642
0.012,1.0403688816253684,5896.585876666136
0.016,1.0024919451035978,5899.283913134299
0.02,0.9969362119794823,5896.7003282090045
0.024,1.017574236315604,5893.2871787094045
0.028,1.054698798667562,5897.891639056838
0.032,1.097722409675719,5894.988805449268
0.036,1.1376097079804324,5898.016425544741
0.04,1.1685090296723604,5903.5543807396925
0.044,1.1883666175052923,5899.515078469682
0.048,1.1984988992337178,5901.536189460142
0.052,1.2022881809732087,5903.8752647354295
0.056,1.2034531612556998,5895.5505000375215
0.06,1.20455465443321,5901.528627250417
0.064,1.206279967386438,5898.037523666324
0.068,1.207603809606939,5909.702209119867
0.072,1.2064591238885525,5900.849721628413
0.076,1.2004488477160404,5904.488749117561
0.08,1.187434506221883,5893.099284563159
0.084,1.166133400799646,5901.350229525373
0.088,1.1367527636894628,5892.183354125121
0.092,1.1013559781490545,5901.304819844638
0.096,1.0636055205959292,5901.87087094538
0.1,1.0279092502165466,5901.654223530355
0.104,0.9983863179151228,5895.504106812055
0.108,0.9780483815051744,5902.6103751454175
0.112,0.9682896228062938,5902.052848492607
0.116,0.9686173668397595,5901.860056219487
0.12,0.976654989843244,5897.262302513381
0.124,0.988549223638207,5902.927237375331
0.128,0.9997880576181964,5900.378896947077
0.132,1.006189977052214,5893.414079202781
0.136,1.004750869728456,5898.055780272252
0.14,0.9942022840396839,5894.614582683057
0.144,0.9752852357431365,5901.3674427199685
0.148,0.9506979109132125,5894.721282413813
0.152,0.9246218431412486,5903.095503000058
0.156,0.901882167089058,5899.132531604336
0.16,0.8870145044403427,5905.062678880311
0.164,0.8835328356951565,5899.00240636071
0.168,0.8935223575207967,5900.071836928193
0.172,0.9175168163714357,5899.356285311926
0.176,0.9545665762332112,5900.89363269775
0.18,1.0024169355261912,5902.169146729585
0.184,1.0577259354170678,5895.246206122337
0.188,1.1162631570072448,5892.528047086962
0.192,1.1731094588697624,5909.911608209436
0.196,1.2230003680894939,5906.33389171122
0.2,1.260961134254198,5900.953347948233
0.204,1.2831690900685888,5894.427261166638
0.208,1.2877120919846727,5895.773107926599
0.212,1.2748791764651843,5898.533750424191
0.216,1.2468814464499938,5893.601507791651
0.22,1.20720464198023,5901.342210763464
0.224,1.1598942007773732,5894.545324367613
0.228,1.108984763443339,5899.616001326191
0.232,1.0581650065340713,5898.700492970845
0.236,1.0106913405357043,5897.722852050316
0.24,0.9694912202903886,5900.689150198857
0.244,0.9372936910681507,5899.699447818276
0.248,0.9165637307001911,5893.999985434508
0.252,0.9091108936462273,5908.132853586495
0.256,0.9154840244623584,5896.921998336607
0.26,0.9344883713665512,5886.743453072051
0.264,0.9631711174837704,5899.505670581171
0.268,0.9973600072730874,5896.823056913901
0.272,1.032503403015533,5902.153970622207
0.276,1.0644588195160387,5899.051113241478
0.28,1.0900853716964134,5904.477983858583
0.284,1.1077273133589471,5900.207792611542
0.288,1.1176224202921015,5901.1538655080685
0.292,1.1219963184402337,5886.200835591551
0.296,1.1245027253174282,5899.844238978631
0.3,1.128993222010188,5902.422094080864
0.304,1.1381056771604892,5900.272439768282
0.308,1.1523386722184692,5896.728808680116
0.312,1.1699582671094035,5903.002025238667
0.316,1.1876059743373395,5895.774324212483
0.32,1.2012406576075803,5893.652377242531
0.324,1.2071022728123615,5895.904812664056
0.328,1.2025401039384949,5893.33242992423
0.332,1.1866399527644806,5906.244926458384
0.336,1.16056137220368,5904.158419294396
0.34,1.1274134129395104,5901.381973564072
0.344,1.0915144432151274,5900.373803206709
0.348,1.0571279678476952,5899.13240841235
0.352,1.0271543085447494,5892.494917082954
0.356,1.0024656933272997,5895.050954842841
0.36,0.9822952678949144,5901.37801082007
0.364,0.9654217086923138,5901.262806240045
0.368,0.9513695331304985,5905.229511455337
0.372,0.9409232219438431,5904.648689242855
0.376,0.9357952878378496,5893.753384783377
0.38,0.9377875039051567,5895.368041478886
0.384,0.9479389325127944,5902.9164144338
0.388,0.9660340198813583,5898.849093226154
0.392,0.9906253088180762,5895.594461376788
0.396,1.0194871870077533,5896.321305605714
0.4,1.050204833103207,5907.927968033506
0.404,1.0805407799867475,5888.773853382789
0.408,1.1084103277147817,5897.5221599897895
0.412,1.131622817945758,5894.719282098726
0.416,1.1477468487516818,5897.680426053872
0.42,1.154377156291747,5894.62457234933
0.424,1.149786510612662,5896.21103474473
0.428,1.13365436459895,5904.6512172055845
0.432,1.1074848034605138,5904.628603205594
0.436,1.0745092488030688,5889.932069068562
0.44,1.0391569731179546,5908.206781877524
0.444,1.0063332612217175,5905.01223767731
0.448,0.9806817056765108,5914.414699421764
0.452,0.9658693182376034,5897.874887856179
0.456,0.9639155056756512,5901.938111017993
0.46,0.9746966874810264,5897.795533302792
0.464,0.9958477575398261,5900.499148689016
0.468,1.0232335085224074,5901.2063021274025
0.472,1.0519719948929764,5904.741508048204
0.476,1.0777405827112811,5898.82477702511
0.48,1.09792589755284,5892.646783366835
0.484,1.1121990216886293,5897.783761076895
0.488,1.1222837493681697,5899.790166530723
0.492,1.1309512231233436,5903.170708757538
0.496,1.1405839107830575,5895.326717872144
0.5,1.1519278219568463,5898.35317000815
0.504,1.1636663778143872,5904.226519029529
0.508,1.173054537585126,5902.967707561418
0.512,1.1772551149595352,5897.330597758406
0.516,1.1746437075999705,5898.159181344096
0.52,1.1654501173577856,5907.803131400197
0.524,1.151561820757383,5898.508790082053
0.528,1.1357519580012077,5898.464293054864
0.532,1.1207411786073864,5896.0872683970965
0.536,1.1084220739595958,5896.74107513032
0.54,1.0994616195014866,5904.293600810945
0.544,1.0934026173893672,5897.748510088985
0.548,1.0892449804341313,5906.947375536332
0.552,1.0862770121596708,5900.718292968506
0.556,1.08473808511339,5901.826646871488
0.56,1.0859084099651557,5899.164282832923
0.5640000000000001,1.091519234206593,5899.005338885477
0.5680000000000001,1.1027734386947181,5905.459378283364
0.5720000000000001,1.1194656560361567,5901.805623524639
0.5760000000000001,1.139587350129978,5899.470701095798
0.58,1.1595441841629854,5903.761555145018
0.584,1.174893968290434,5899.933862905334
0.588,1.181398550019681,5903.315905095777
0.592,1.1761403971273454,5896.739502799196
0.596,1.158437079305362,5895.882130714806
0.6,1.1302679374452336,5900.7314016453965
0.604,1.0959617343228516,5902.745121604024
0.608,1.0610905141904383,5902.164325422927
0.612,1.030855302654681,5898.906829914585
0.616,1.008538151653361,5906.326445829985
0.62,0.9946419245975204,5897.471296296238
0.624,0.9870981613455295,5895.35060284774
0.628,0.9824868075135624,5906.331558991249
0.632,0.9777690826536097,5895.176218561962
0.636,0.9717988738569668,5898.783881033871
0.64,0.9659799786464586,5903.730542501423
0.644,0.9638378987381607,5895.704549517192
0.648,0.9697492515558798,5883.601460261444
0.652,0.9873550320032507,5897.904812288991
0.656,1.0181908968588131,5896.221924065686
0.66,1.0609041123414087,5904.629885833494
0.664,1.111219167417026,5899.412669630519
0.668,1.1626184898349734,5900.307400921885
0.672,1.2075445892639018,5898.314958203844
0.676,1.2388269375288348,5911.039705698754
0.68,1.251007855693399,5896.280601750861
0.684,1.2412925816064933,5896.034292352919
0.6880000000000001,1.2099647679836365,5902.006443600518
0.6920000000000001,1.1602545138433027,5898.902991715232
0.6960000000000001,1.0977665001526393,5902.865798713337
0.7000000000000001,1.0296245141168696,5902.627272669864
0.704,0.9634852851050032,5901.284263221134
0.708,0.9065601822162672,5903.261135836761
0.712,0.8647427485075805,5898.641115284198
0.716,0.8418782263766461,5899.914709631218
0.72,0.8392044155218061,5895.4217281595
0.724,0.8550659365454785,5903.424295451618
0.728,0.8850826641988186,5901.972456031829
0.732,0.9229558801744047,5903.9446941595
0.736,0.9619469313979035,5897.415812483113
0.74,0.9967255572729247,5902.291307047208
0.744,1.0249228845288771,5895.693285884961
0.748,1.0476637232088835,5895.495557232767
0.752,1.0687320799671383,5896.152709519295
0.756,1.092633749339164,5894.796131504714
0.76,1.1223307797512412,5903.640495813519
0.764,1.1575905346310003,5891.874500295591
0.768,1.1946197476930025,5907.391361882573
0.772,1.2270832894992112,5894.2603258624495
0.776,1.248069909416099,5899.082124935166
0.78,1.2522948820942106,5895.809907135238
0.784,1.2378252820050215,5904.395021346343
0.788,1.2067999492540356,5898.075545717581
0.792,1.164933092435553,5885.702594604504
0.796,1.119984090938709,5906.253824780471
0.8,1.0797587392854648,5901.769220946462
0.804,1.0503905000180966,5909.463538057072
0.808,1.0354478755227035,5896.788804490658
0.812,1.035916078919422,5897.874526010466
0.8160000000000001,1.0506707656123233,5894.843340532892
0.8200000000000001,1.0769686323623964,5898.793267111633
0.8240000000000001,1.110701237849399,5900.213691938602
0.8280000000000001,1.146515452967402,5899.674461377018
0.8320000000000001,1.1781689500850312,5905.165696055567
0.836,1.1994415970481946,5904.430029655819
0.84,1.205552619799341,5911.392159029179
0.844,1.1946134041197864,5899.713230465144
0.848,1.168482603854801,5906.720693526871
0.852,1.1325735815436517,5907.256780603252
0.856,1.0945591079089312,5900.640488059471
0.86,1.062312148496608,5901.30137741029
0.864,1.0416936245362538,5897.701375657698
0.868,1.0349202365817463,5902.202190559439
0.872,1.0401442416741598,5896.17521340312
0.876,1.0524701121091842,5910.144413483206
0.88,1.066038355935656,5900.628911972795
0.884,1.076344442383871,5904.6796040055
0.888,1.0818777533539963,5898.527707821456
0.892,1.0844605297682077,5892.7900278065
0.896,1.0881841813907878,5904.256908843473
0.9,1.0973929148450712,5894.771111862226
0.904,1.11455602321145,5904.274323738038
0.908,1.1389251858966165,5902.707810644991
0.912,1.1665302393870822,5902.550394225283
0.916,1.1914703559854414,5900.5419743652365
0.92,1.2079146908011713,5904.1082351443365
0.924,1.2119976238678656,5887.1543512345
0.928,1.2029261872839145,5904.038993918004
0.932,1.1829880018346504,5899.412221676149
0.936,1.156593266662019,5901.898414276738
0.94,1.1288379144043377,5900.909091947265
0.944,1.1041731940540878,5899.2627626758895
0.948,1.0855709870868997,5897.781144358272
0.952,1.0742636343210201,5895.21860309037
0.956,1.0699403444725462,5908.52094680928
0.96,1.0712422703668636,5892.208578419146
0.964,1.0763976902789354,5907.714324811087
0.968,1.0837989997054815,5903.578599571817
0.972,1.0923099769459081,5895.446667706106
0.976,1.1012137510033546,5906.595990858343
0.98,1.1099131000081388,5898.228577000044
0.984,1.1175695517382547,5897.070833775003
0.988,1.122779866409292,5888.526977625658
0.992,1.123361622664909,5908.26009572404
0.996,1.1164540087804045,5893.802743527833
1.0,1.099192967594922,5908.805501310591
1.004,1.069961453812931,5902.477422495089
1.008,1.0297852580001619,5894.004176600004
1.012,0.983187417089718,5898.144944920972
1.016,0.937916722196193,5899.248159979839
1.02,0.9033704333739655,5901.070583352405
1.024,0.888068908255719,5903.349741534895
1.028,0.8970112884129722,5908.455247426498
1.032,0.9299262539170191,5903.630889024042
1.036,0.9811635622682697,5894.696952751327
1.04,1.041293562325131,5911.067955688776
1.044,1.0997371941420564,5909.950580362053
1.048,1.1473950931488883,5904.468304085507
1.052,1.1784394411855283,5893.807356523658
1.056,1.1909244187670163,5894.320728189318
1.06,1.186348042684159,5899.168205558454
1.064,1.1686072739197662,5893.269936096677
1.068,1.1428430441023019,5903.132244189321
1.072,1.1144672301155958,5896.54531313545
1.076,1.0883823576923042,5897.451317125624
1.08,1.0682967315675984,5898.246624897637
1.084,1.0561608538591432,5897.816562354542
1.088,1.0519039283980414,5890.715227874936
1.092,1.0536088861598396,5897.531446269241
1.096,1.0580486673329963,5893.404104580227
1.1,1.0613433269924306,5899.721861905904
1.104,1.059569028921825,5901.553500561677
1.108,1.0493798464731532,5901.637167635975
1.112,1.02880686791502,5899.178090662682
1.116,0.9982074227859895,5896.001376220185
1.12,0.9610168671720684,5898.411680546461
1.124,0.9238143945055433,5908.550187629812
1.128,0.8953755465486675,5899.5683102690045
1.132,0.8847474644276604,5900.405320059074
1.136,0.8987975635666255,5892.851450317775
1.14,0.9400002033446815,5904.526034284834
1.144,1.0052533676531987,5895.342035500413
1.148,1.0861761655339872,5901.754622074011
1.152,1.1708009404545057,5897.0248589297935
1.156,1.2461235710714818,5892.162686446506
1.16,1.3007620870350536,5898.604055785754
1.164,1.3270147575428999,5906.709958058542
1.168,1.3218855831454486,5900.513125207561
1.172,1.2870638527317646,5902.1756764190695
1.176,1.2281920249061327,5896.3447083352585
1.18,1.1538224520488558,5894.142786026677
1.184,1.0742560726556676,5908.483605079743
1.188,1.000240146657076,5898.124520461493
1.192,0.9415203335072062,5906.164397403565
1.196,0.9054266659003755,5894.406979453487
1.2,0.8957654729468466,5895.083805825055
1.204,0.912221100996993,5899.588881844165
1.208,0.9504086300520854,5903.677645641196
1.212,1.002712122670686,5910.247705751355
1.216,1.0599053133271228,5893.138813733079
1.22,1.1131938332869384,5905.312935169254
1.224,1.1559858039050974,5901.746121392781
1.228,1.1847318800837583,5898.805994968994
1.232,1.1986252651631695,5903.876668032889
1.236,1.1985296188445338,5900.488002699865
1.24,1.1858588953088898,5910.032303198393
1.244,1.1620659709260845,5901.249430230248
1.248,1.128930519136279,5904.14346419326
1.252,1.0892651727519331,5897.323681681186
1.256,1.047378879239144,5894.55596058752
1.26,1.0088086210160503,5907.63959723291
1.264,0.9792872265684072,5903.674599074204
1.268,0.9633488679956858,5903.8883816270345
1.272,0.9631429115583328,5896.35915195444
1.276,0.9778963540143332,5903.546502661053
1.28,1.0041909799782127,5893.044141856472
1.284,1.036941882041436,5901.228788208
1.288,1.0707262920111404,5895.951258283552
1.292,1.1010029935452579,5903.414545848103
1.296,1.1248754708760982,5905.696224196929
1.3,1.1413025665695749,5891.523268090621
1.304,1.1508463226280303,5897.549350925846
1.308,1.1550936070645863,5909.537725293025
1.312,1.1559037310807836,5887.849221867506
1.316,1.1547054554727898,5895.514468530871
1.32,1.152112812051184,5903.865614434887
1.324,1.148020525690219,5906.03814499565
1.328,1.1420841919628686,5903.343805564644
1.332,1.134248985220172,5890.153309672675
1.336,1.1249690180278875,5905.025927352439
1.34,1.1150244300765273,5899.209591243089
1.344,1.1051841506482858,5896.968854230822
1.348,1.0960639420129963,5895.470126753637
1.352,1.0883141789859554,5901.656513653761
1.356,1.0829490129257335,5903.421623034277
1.36,1.081460111653212,5892.954129504916
1.364,1.0854725014261448,5902.3559991961365
1.368,1.0960176780218474,5905.996304926834
1.372,1.112767664855699,5892.74235288566
1.376,1.1335997278334644,5901.1898599018095
1.38,1.1547070070481094,5901.393448184506
1.384,1.1712904836639777,5891.07552367038
1.388,1.1786801478274822,5901.126908226605
1.392,1.1735374530815474,5898.886368166731
1.396,1.154721678828864,5901.126119906823
1.4,1.1235471311883238,5899.796698049918
1.404,1.0834093830698406,5887.573742160478
1.408,1.038975901078228,5893.955175470738
1.412,0.9952580850472019,5901.074569612414
1.416,0.9568615832355637,5900.959903490605
1.42,0.9275364204457591,5892.754771582617
1.424,0.9099304952146504,5904.525206905667
1.428,0.9053693977544663,5903.791737188944
1.432,0.9136005033312089,5904.98268859984
1.436,0.9326224872239932,5890.656892403844
1.44,0.9588140010659999,5904.936417592285
1.444,0.9875186711987018,5889.775356339258
1.448,1.014053218125059,5901.2186662432005
1.452,1.0348635958327543,5906.269377648925
1.456,1.0484251560563207,5896.565106433743
1.46,1.055573392911166,5895.03329238374
1.464,1.0591712723012303,5908.568489750182
1.468,1.063202048197155,5898.152063505927
1.472,1.0714860402497415,5894.070155183795
1.476,1.086321941087798,5898.534773415441
1.48,1.107451211242873,5894.223145512657
1.484,1.1317482705121273,5902.61778626735
1.488,1.1538687260998677,5897.647070391613
1.492,1.1677504599936084,5900.244978317513
1.496,1.1684897212331329,5894.548657417957
1.5,1.1539274768314909,5895.346719004261
1.504,1.1254132579226317,5902.731153329192
1.508,1.087559040804561,5898.268487645446
1.512,1.0471277277323,5899.411782972808
1.516,1.0114054614232686,5900.3084901021
1.52,0.986503804172742,5909.389255208298
1.524,0.9760385066404561,5899.921087454054
1.528,0.9805217389122313,5904.939379350538
1.532,0.9976148943625064,5900.740852196863
1.536,1.0231508552493178,5895.391227027691
1.54,1.0525528948423113,5900.92630854582
1.544,1.0820607957826933,5916.091881658425
1.548,1.1092445321521966,5900.452692458669
1.552,1.1327130566824113,5902.671795017557
1.556,1.1514446158257066,5898.358628814774
1.56,1.1643719335850107,5904.71331690793
1.564,1.170599068540737,5895.222168816904
1.568,1.1701302924820127,5905.9857910032415
1.572,1.164605943300068,5907.826313925335
1.576,1.1574724286315907,5904.333398162238
1.58,1.1532599915292716,5893.995603153846
1.584,1.1560646058318653,5896.323066235308
1.588,1.1677574366251753,5898.364193476129
1.592,1.186697311349332,5901.433794114105
1.596,1.2076246611563972,5911.892780141067
1.6,1.222955479132058,5905.331965215217
1.604,1.225116336321875,5898.165685461652
1.608,1.2091475924893675,5889.448570421905
1.612,1.174644977723215,5906.058519505909
1.616,1.126243072857368,5895.239620389274
1.62,1.0723444357446918,5907.001795759464
1.624,1.02253658048968,5896.197149087933
1.628,0.9846917558668415,5898.771359757726
1.632,0.962803235940744,5889.702617083628
1.636,0.9562602190850797,5893.985090230944
1.64,0.960721168211548,5896.057285651968
1.644,0.9701588375149154,5902.455325262382
1.648,0.9792088323415912,5892.14374647855
1.652,0.9848804878627795,5897.6250773906295
1.656,0.9870291156293994,5899.007808905243
1.66,0.9875602067733827,5893.400993965942
1.664,0.9888726485889401,5895.005075240491
1.668,0.9923274893671817,5905.885180861745
1.672,0.9974447840919943,5898.115318185842
1.676,1.0021385937493994,5902.185443615473
1.68,1.003800563597435,5901.768457475868
1.684,1.0006785711262292,5897.012054045538
1.688,0.9929159167889936,5906.712579537348
1.692,0.9827952957352014,5911.092972305953
1.696,0.9740496887914055,5907.770312850792
1.7,0.9704673716407651,5902.747431245402
1.704,0.9743345222652083,5893.325999276722
1.708,0.9853647123995757,5896.038375440245
1.712,1.000566057121822,5910.977501592655
1.716,1.015090469214733,5896.423373293712
1.72,1.0237124737298042,5908.912366447012
1.724,1.0223898433018956,5901.136490928936
1.728,1.009410000531304,5892.727735098874
1.732,0.9858370284455701,5896.2797475801335
1.736,0.9552480461154114,5900.095938155719
1.74,0.9229863686062899,5901.674985383585
1.744,0.8952325178744942,5894.389180949132
1.748,0.8780623068046969,5898.990094127555
1.752,0.8764602052874202,5901.370902377597
1.756,0.8932013891686363,5897.416932609885
1.76,0.9277214410083464,5897.5161272220685
1.764,0.9754272684124835,5903.052088613025
1.768,1.0280405714366854,5895.204569223511
1.772,1.075275405717005,5902.157763061336
1.776,1.107531409216453,5900.644997794399
1.78,1.118690407397179,5896.823336137682
1.784,1.1079033450382767,5906.226266045867
1.788,1.0796133590607295,5898.37709493417
1.792,1.0418420546847094,5904.431361454211
1.796,1.0035535908862852,5895.894957311131
1.8,0.972228129631994,5898.688885687198
1.804,0.9524396014145795,5899.360587040137
1.808,0.9455403322112209,5895.624624144425
1.812,0.9500399630268551,5906.009857252657
1.816,0.9622113638560135,5896.607970281721
1.82,0.9767184695468901,5900.304124960914
1.824,0.9873468658850844,5895.682412144607
1.828,0.9880324017111078,5901.696597786839
1.832,0.9742400208904992,5907.785584147436
1.836,0.9443966381547494,5903.927545644795
1.84,0.9007659372767945,5894.9171133624
1.844,0.8491782600956875,5900.548231332873
1.848,0.7975041037281847,5900.097493558864
1.852,0.7533980362435462,5895.649821422798
1.856,0.722185952491026,5894.268805071295
1.86,0.7056563764795466,5898.673387548746
