时间(s),电压(V),幅值(高频80K)
0.0,0.6169100615811061,5913.508224203762
0.004,0.724509103612309,5899.302717808902
0.008,0.8225715492177242,5905.441580003025
0.012,0.9043457647222753,5899.884104779009
0.016,0.9662216586568068,5900.914893132734
0.02,1.0080181363312117,5896.525026594548
0.024,1.0325790314017351,5897.823428906234
0.028,1.0449207130075708,5895.079880719622
0.032,1.0510285910546173,5900.960436418882
0.036,1.0564227211584458,5898.011958322644
0.04,1.0648438442139716,5901.790664722366
0.044,1.077495619922875,5898.306404721677
0.048,1.0930291240780614,5904.0199283723605
0.052,1.1081278100021512,5896.105155372476
0.056,1.118459579712038,5908.199634403331
0.06,1.1198522222467644,5904.107271584879
0.064,1.1095376954794518,5897.08162928234
0.068,1.087145365846222,5898.805519209487
0.072,1.0550602550745165,5894.427567563268
0.076,1.0179876787048312,5895.772911739112
0.08,0.9819269228069093,5883.640601491709
0.084,0.95295316115733,5902.278593904138
0.088,0.9361444300062611,5889.5244158797095
0.092,0.9348179253359101,5895.172751080397
0.096,0.9501064009851279,5896.975386461841
0.1,0.9808474905213189,5894.812316761025
0.104,1.0237728200980545,5900.412751719569
0.108,1.0740140324616114,5896.440297416655
0.112,1.1258833960796646,5907.464284187882
0.116,1.173762464660525,5907.204580957866
0.12,1.2129017692927098,5898.8619669733125
0.124,1.240020797859766,5900.983794593009
0.128,1.2536618347205706,5901.517515629978
0.132,1.2542511299017745,5887.763184639845
0.136,1.2438434075237699,5898.943000998025
0.14,1.2255896183481692,5898.468308464191
0.144,1.203010679591048,5900.600134498626
0.148,1.1791903330147644,5912.239484060836
0.152,1.1560795721014083,5899.477929403464
0.156,1.1341875109543198,5899.720885688288
0.16,1.1128682576690283,5895.648861122916
0.164,1.0911394936820296,5899.095578041233
0.168,1.068639611547881,5883.723144192885
0.172,1.0462074818698934,5899.833523079803
0.176,1.0257840109850138,5903.914002052499
0.18,1.0097411870667559,5887.069215631584
0.184,1.000025858592688,5895.370966161418
0.188,0.9974876512185045,5896.7774022877375
0.192,1.0015713267308548,5895.69234475024
0.196,1.0104061691149726,5893.186411163171
0.2,1.0212544788707483,5901.774946223851
0.204,1.031207617820863,5902.757229368661
0.208,1.0379247306042854,5905.733824514554
0.212,1.0401617105904044,5902.045025135218
0.216,1.0379116307947815,5896.905275737092
0.22,1.0321743939112749,5904.547182082748
0.224,1.0245622229462665,5895.741631111608
0.228,1.0169705257835846,5904.033373946045
0.232,1.0113897175992532,5893.304620394559
0.236,1.009745962298978,5901.569067788205
0.24,1.0136170454210733,5894.2110457274575
0.244,1.0238347883707473,5902.962829089098
0.248,1.0401818480826424,5897.922842230812
0.252,1.0613823479887858,5902.182508444582
0.256,1.085390386133705,5898.463438792583
0.26,1.109806518745134,5898.105537181331
0.264,1.1322151551351762,5903.684131251688
0.268,1.1503283111529217,5906.115109983918
0.272,1.162001174198737,5893.26777466679
0.276,1.165343095644664,5902.0512579719925
0.28,1.1591206633368059,5894.964774414207
0.284,1.1433817936262287,5896.563469029026
0.288,1.1199136120042985,5901.891284235288
0.292,1.092105957850382,5904.4448417260055
0.296,1.0641282306537405,5905.720005843636
0.3,1.0397678966320882,5892.832840416539
0.304,1.0214779652853592,5900.381416218412
0.308,1.0100437805025662,5906.413352743356
0.312,1.0049350270736037,5903.861451328341
0.316,1.0050556156733823,5907.633887058035
0.32,1.009441162646357,5899.438876257523
0.324,1.0175502949032122,5896.008850860822
0.328,1.0290284532590623,5898.194562910199
0.332,1.043074451179359,5900.050167094158
0.336,1.0577925102029293,5901.5839096152695
0.34,1.0700525932232798,5901.35650978589
0.344,1.0762001887433015,5904.075607200367
0.348,1.0734557728338774,5898.91090868144
0.352,1.0613579242295523,5898.436908438555
0.356,1.0424970407736025,5898.374244437744
0.36,1.022107837904722,5899.456182209726
0.364,1.0065999686390523,5895.268517793341
0.368,1.0015410447763151,5898.766412256536
0.372,1.0098030388970254,5902.224564068023
0.376,1.0305031166748146,5892.326411163754
0.38,1.0590834012043464,5898.953456680675
0.384,1.0884785097065952,5904.05423780023
0.388,1.1109371127381298,5890.888966857893
0.392,1.1198848540066533,5892.908274089996
0.396,1.1113417177246898,5890.6842086496845
0.4,1.0846978457743537,5900.50140919371
0.404,1.0428800068655562,5890.961974732898
0.408,0.9919878385478917,5895.755372939484
0.412,0.940390319671474,5897.523300485231
0.416,0.8972529599959687,5904.933077760601
0.42,0.8706808359731376,5906.290897813964
0.424,0.8659614300516979,5908.69307966513
0.428,0.8844433619399478,5901.3717790474
0.432,0.9233282068550933,5897.873862509489
0.436,0.9763445679704782,5893.169674999155
0.44,1.0351000301498978,5899.244921806143
0.444,1.0907929493510864,5898.256533737052
0.448,1.1358532698098784,5898.444020914877
0.452,1.1650927290788524,5901.640315382034
0.456,1.176166899230401,5903.180070825078
0.46,1.1694515634206832,5898.9076774381865
0.464,1.1476082723804595,5903.295787887174
0.468,1.1150850196089643,5893.308358573059
0.472,1.0776235580944098,5904.046949332727
0.476,1.041650514208216,5898.508997256097
0.48,1.0133837834856902,5901.890494669158
0.484,0.997669804024298,5899.442757627368
0.488,0.9968510084328096,5896.741634884353
0.492,1.0101086523294731,5897.857845575294
0.496,1.0336118021935154,5906.7060663496895
0.5,1.0615083886379326,5895.584183987857
0.504,1.0874864586881057,5911.501497819452
0.508,1.1064237579111147,5898.615128397954
0.512,1.1155915212505798,5898.479787610836
0.516,1.1150342785979497,5896.653094365157
0.52,1.1070762709518631,5891.718684628646
0.524,1.0952468514480016,5901.233649879016
0.528,1.0831010859831245,5897.59500998036
0.532,1.0733689149063477,5894.765857802247
0.536,1.0676427328385196,5898.589833763263
0.54,1.0665317480567504,5900.185911756018
0.544,1.0700095014818838,5904.910445565168
0.548,1.0776484670920026,5904.961493815827
0.552,1.088592416017623,5900.006112518609
0.556,1.1013884788162138,5900.755574598904
0.56,1.1139910111142692,5901.031221959502
0.5640000000000001,1.1241620619115986,5900.30762240947
0.5680000000000001,1.1301724121462988,5904.207060491174
0.5720000000000001,1.1314441991804856,5901.482195536487
0.5760000000000001,1.1287844351135523,5898.769604196194
0.58,1.1240783330982742,5898.874574524804
0.584,1.119575170118898,5897.204313312491
0.588,1.1170879657321326,5896.319365292767
0.592,1.1174529385489393,5890.426142789703
0.596,1.120439632299003,5896.055505262227
0.6,1.1250732142789566,5898.9546576206985
0.604,1.1301456193599801,5907.640988669518
0.608,1.1346140148924029,5900.006526364888
0.612,1.137669490149093,5901.573558865185
0.616,1.1384990574103564,5894.198300349036
0.62,1.1359954129395766,5890.119803484692
0.624,1.1286943629753001,5902.761644274109
0.628,1.1150341762732863,5905.857502584392
0.632,1.0938343517854283,5905.578481539057
0.636,1.064835764253583,5898.4667301312265
0.64,1.0291594087967528,5903.288551465172
0.644,0.9895172362442285,5905.730837762405
0.648,0.9500015049810568,5898.421100733637
0.652,0.9153992574690595,5890.324505458202
0.656,0.8902104345249137,5894.275863698622
0.66,0.8777324879778664,5903.1819014657385
0.664,0.8795450239144538,5904.066532287567
0.668,0.8955052972633631,5907.393480245409
0.672,0.9241350147910244,5899.855146708951
0.676,0.9631552392527627,5900.702278169951
0.68,1.0098958779387666,5903.946449727952
0.684,1.0613832150715172,5888.499493863919
0.6880000000000001,1.1141320041634175,5906.657132925447
0.6920000000000001,1.1639284626399227,5902.745236806699
0.6960000000000001,1.2059602113361796,5892.733893663692
0.7000000000000001,1.2354600263827222,5900.020053091553
0.704,1.248748948291918,5898.77284211742
0.708,1.244356090901419,5899.523551152828
0.712,1.2237950928674426,5905.372327397496
0.716,1.191607146469408,5910.635256711334
0.72,1.154480678556397,5902.942528248816
0.724,1.1196101091154378,5887.373341818192
0.728,1.0928132383027676,5899.013050349748
0.732,1.077080088988839,5892.995327979242
0.736,1.072076425452098,5905.788889445927
0.74,1.0747406712875502,5899.098017660794
0.744,1.0806548981204793,5904.21355377719
0.748,1.085570763201446,5898.43279456927
0.752,1.0865314546194411,5896.039983730487
0.756,1.0823796395489425,5913.406564129479
0.76,1.0737540660911158,5902.212739607987
0.764,1.0627415627707548,5900.26569544325
0.768,1.0522679334131368,5894.766300237944
0.772,1.0452862713988513,5895.843310489204
0.776,1.0439035583148442,5905.312597937571
0.78,1.0486810564379352,5899.4860013327925
0.784,1.0583579001178929,5903.222756705068
0.788,1.0701444440281664,5902.627219385485
0.792,1.0805403278549133,5898.050012963716
0.796,1.0864440993980826,5889.025460511956
0.8,1.0862202457971384,5899.237354537609
0.804,1.0803869384651388,5896.133347039709
0.808,1.0716717463519356,5904.754107591274
0.812,1.0643555173745822,5900.49176019041
0.8160000000000001,1.0630561776676954,5902.353253188245
0.8200000000000001,1.0713268069502637,5895.659662115108
0.8240000000000001,1.0905741028446412,5901.302348684976
0.8280000000000001,1.1197265094306297,5899.288633736689
0.8320000000000001,1.155736071692811,5896.605757505397
0.836,1.1945645148606376,5902.126778187282
0.84,1.2321139621417407,5906.106637650903
0.844,1.2647508647759826,5901.713868266852
0.848,1.2894404361545484,5899.69316489464
0.852,1.3037583313317478,5907.376854413461
0.856,1.3060312397969087,5897.945037816275
0.86,1.2956499999022852,5905.086404191156
0.864,1.273397829856173,5899.977265089157
0.868,1.2415868489342718,5899.200803792421
0.872,1.2038605480041649,5905.898040565765
0.876,1.1645970506534795,5902.338073738157
0.88,1.1279612068313145,5900.410348609446
0.884,1.0968643756190628,5904.701892743728
0.888,1.0722718146751409,5895.134829793008
0.892,1.053210621321846,5901.0601766804975
0.896,1.0374647859769985,5897.733751036482
0.9,1.0225920094770602,5904.555432692635
0.904,1.0068313654973529,5894.769785162265
0.908,0.9896576922250516,5900.582196845605
0.912,0.9719515447063125,5902.151741950496
0.916,0.9558523588557837,5907.603001612135
0.92,0.9443546971493044,5903.858509437268
0.924,0.9406697173347514,5902.41741506341
0.928,0.9474069838551702,5894.016889182492
0.932,0.965746754539171,5900.330858755539
0.936,0.9948371671783623,5899.809079148704
0.94,1.0315897361437045,5895.204426487279
0.944,1.0709542257390523,5894.3595169489545
0.948,1.1066927996993174,5903.438361407698
0.952,1.132583641614575,5897.033660115507
0.956,1.1438431856361257,5901.401822729618
0.96,1.1384240423950363,5897.92859656868
0.964,1.1177806671241695,5903.522399586054
0.968,1.0867607165602182,5900.579264042751
0.972,1.0525367660113099,5902.1278138989055
0.976,1.0228687729232526,5902.744844005306
0.98,1.004258867895874,5905.257109018301
0.984,1.0005513094789809,5903.893334162976
0.988,1.0122914755026982,5902.085062360342
0.992,1.0368831167507777,5895.89547659634
0.996,1.0693990106798137,5896.900187871419
1.0,1.1037982756969722,5901.368081618251
1.004,1.1342475287795017,5901.654711908871
1.008,1.1562535204324504,5894.979025658773
1.012,1.1674127059064259,5906.2841278349
1.016,1.167696335638173,5902.432763617261
1.02,1.1592237195106416,5898.653920812759
1.024,1.145478729403826,5897.536033888898
1.028,1.1300485358174515,5907.694293926283
1.032,1.1152366283105268,5906.367260688014
1.036,1.1011346806258826,5903.13599353049
1.04,1.0856992094445583,5895.173922960891
1.044,1.0659964887020459,5903.289508305802
1.048,1.040180596608549,5902.999095981792
1.052,1.0092643421585894,5895.276485136693
1.056,0.9777149105474359,5899.081747261076
1.06,0.9524860028332363,5909.965157152959
1.064,0.9409253447371332,5897.119326608123
1.068,0.9484916701309518,5901.542961775249
1.072,0.9771112794536299,5892.889539758674
1.076,1.0245306602902526,5896.750448429407
1.08,1.084606214964306,5897.611240888439
1.084,1.148332136223462,5902.155353938488
1.088,1.2054427348353511,5905.460656047845
1.092,1.246420976374468,5907.75552789772
1.096,1.264583620203619,5895.737374931188
1.1,1.25767996487162,5895.033700175021
1.104,1.2284037313031224,5902.677017411301
1.108,1.183567788650655,5896.358101159818
1.112,1.132253771021877,5908.115228328124
1.116,1.083613489033897,5903.245546272234
1.12,1.0449606668598734,5896.798833593339
1.124,1.0205180875227826,5901.097484974607
1.128,1.0109627111865689,5900.177188027233
1.132,1.0138204724438593,5902.847582451075
1.136,1.0246461337053534,5892.91843896849
1.14,1.0386576339742744,5897.01231264969
1.144,1.0522232753230452,5897.40964863674
1.148,1.0636122352307384,5901.976081436264
1.152,1.0727975422991558,5902.152961849909
1.156,1.0805987620583866,5902.253990983228
1.16,1.087724064654543,5906.066637311208
1.164,1.094173748693558,5896.087633798856
1.168,1.0991500063165496,5897.20779006769
1.172,1.101350292585706,5903.349594981469
1.176,1.099430433886516,5898.318373640187
1.18,1.092459039943352,5903.230317498378
1.184,1.0802722258166066,5902.242149578923
1.188,1.0637144190355001,5900.311976334652
1.192,1.0447489439593953,5900.782905598283
1.196,1.026349793176523,5900.229798282548
1.2,1.0120616082114944,5910.278864708443
1.204,1.005235585188722,5904.259971355727
1.208,1.0081497795898147,5902.897390870561
1.212,1.0213299496799026,5911.636809684092
1.216,1.0433129141217903,5897.4739218408695
1.22,1.0708975281540165,5900.343972351884
1.224,1.099732656763251,5903.813341150768
1.228,1.125011910441879,5896.7462283388495
1.232,1.1421186344034235,5896.835090906429
1.236,1.1472170659780052,5899.143424526824
1.24,1.1378866259628877,5891.188505226322
1.244,1.1138345306282489,5893.333592431947
1.248,1.0774977870405922,5910.373087376797
1.252,1.0341466937737356,5901.423656318653
1.256,0.9911675942431458,5899.83428562115
1.26,0.956556142081358,5906.6912262785645
1.264,0.9370469220029012,5902.01775005187
1.268,0.936464802956672,5900.077617045316
1.272,0.9547628743837403,5900.83947297735
1.276,0.9879837021900411,5902.479808355823
1.28,1.0291738321979018,5895.634664255381
1.284,1.070060599582945,5898.36613115283
1.288,1.1030535437517601,5901.781155698684
1.292,1.1229889885076156,5909.843532499726
1.296,1.128109106412745,5896.337428321915
1.3,1.1200350336769378,5903.8227868408985
1.304,1.102845681296866,5901.066382741859
1.308,1.0816533203862964,5901.651668324245
1.312,1.0611508900729747,5896.291848277765
1.316,1.0445167291916122,5889.796406037524
1.32,1.0329152675530313,5910.932105417053
1.324,1.0256782126288382,5892.395078392291
1.328,1.0210705993658615,5906.422748413706
1.332,1.0173590434262603,5901.510404069104
1.336,1.0137876178003258,5903.520207371193
1.34,1.0111000401133832,5898.677647276463
1.344,1.0114249743334371,5895.159918820397
1.348,1.0175889593350396,5896.552410686861
1.352,1.0321197584621504,5903.283838400148
1.356,1.056270540031648,5906.93969418179
1.36,1.0893546430161092,5898.270491259659
1.364,1.128591152223466,5897.634945359511
1.368,1.1695263519770431,5895.062423734742
1.372,1.2069214906454915,5903.661652973635
1.376,1.2358691766724057,5901.742215654116
1.38,1.2528838384871355,5906.685495412934
1.384,1.2567480515838174,5897.2217597363015
1.388,1.2489216792755196,5902.305828718684
1.392,1.233381196231214,5908.041886946971
1.396,1.2158838607031484,5901.56587230364
1.4,1.2027589086511763,5897.749422409741
1.404,1.1993840230560358,5895.503658049658
1.408,1.2086163956357938,5900.9889878880085
1.412,1.2296172645384007,5899.560450892712
1.416,1.2575550908406092,5903.706626557913
1.42,1.2844880804367207,5898.267244530853
1.424,1.301374621738201,5896.383194431836
1.428,1.3007248781527592,5902.721433403345
1.432,1.2790114346110182,5900.070870414253
1.436,1.237861326971059,5893.968258958562
1.44,1.1834729496975378,5894.399231742547
1.444,1.1245123381068491,5898.217783002109
1.448,1.0694666041309417,5897.201337992237
1.452,1.0245985576553247,5906.110809016143
1.456,0.993179863027657,5896.472342334921
1.46,0.9759406540284827,5895.959468717817
1.464,0.972143362421308,5898.886211648097
1.468,0.9805987438611832,5895.145896245036
1.472,1.0001787105547664,5902.342107077653
1.476,1.029715136697977,5892.1880975015065
1.48,1.0674658461552748,5897.472596274488
1.484,1.1105158240487625,5903.124274651384
1.488,1.1545433844026292,5894.541202401408
1.492,1.194291555698431,5903.790096437491
1.496,1.2247672054974583,5902.481449793985
1.5,1.2427034849957141,5906.755829636926
1.504,1.247520316069942,5906.575085178021
1.508,1.2412388559892449,5895.508745997288
1.512,1.2274325472063228,5898.896376845552
1.516,1.2098443610639638,5901.747274933133
1.52,1.191391165296525,5900.063489746762
1.524,1.1739246848480462,5903.151703777668
1.528,1.15861599832753,5896.14675477224
1.532,1.146504000003037,5912.446713802887
1.536,1.138766447752607,5905.370382171858
1.54,1.136547351076177,5902.866897420963
1.544,1.140458622581236,5902.345408215593
1.548,1.1500056125608964,5897.395705442415
1.552,1.1632013399717531,5908.915090760484
1.556,1.1766149635287182,5896.8072364750615
1.56,1.186015448886484,5888.19320831705
1.564,1.1875424909218917,5895.261318447291
1.568,1.1790083922353771,5904.848947892147
1.572,1.1607288428441822,5899.320597962736
1.576,1.1354360152674727,5901.837734857071
1.58,1.107320284849958,5895.848122629501
1.584,1.0807157719812979,5901.913982073337
1.588,1.0590223892640582,5894.295086351523
1.592,1.0441603306003648,5895.141075060555
1.596,1.0365187082632104,5896.56938114506
1.6,1.03523026841263,5894.152850317115
1.604,1.0386345083592217,5902.760935825998
1.608,1.0448323918030538,5896.3967181828
1.612,1.052216876109687,5895.88587306494
1.616,1.0598100469698064,5903.449088690769
1.62,1.0672478457782313,5898.124168545191
1.624,1.0744200189285793,5899.622821577079
1.628,1.0810241619683587,5884.687536377932
1.632,1.0863838264238173,5891.128043249039
1.636,1.089653547577258,5901.616705085772
1.64,1.0901581713239126,5905.823505264077
1.644,1.087469549812772,5896.959520040601
1.648,1.0810898865004557,5901.164929212015
1.652,1.0700458317748762,5898.629176560542
1.656,1.052887598180322,5907.519058856348
1.66,1.0283467652937173,5895.157736331705
1.664,0.9964066586957769,5893.423476180631
1.668,0.9591501951777234,5905.296990363734
1.672,0.9207679909713997,5897.517125868714
1.676,0.8865415227051383,5905.114917764294
1.68,0.8611755137262381,5893.732885323859
1.684,0.8471968165050511,5906.0877233757
1.688,0.8441203244930774,5902.218385051444
1.692,0.8487672755124768,5906.213800977186
1.696,0.8566404037158233,5898.30546101046
1.7,0.8637974955588512,5902.9840240863605
1.704,0.8684342723844221,5907.823647445417
1.708,0.8715059670014792,5897.589450399039
1.712,0.8761335436575192,5902.400909913179
1.716,0.8860719524708814,5893.250089712249
1.72,0.9039218716054692,5896.409615541945
1.724,0.9298526948931525,5900.640243160648
1.728,0.9613364298128726,5900.170589420493
1.732,0.9939138122348756,5901.013173658074
1.736,1.0225791416464076,5899.185808609765
1.74,1.0431766036379253,5897.697842725217
1.744,1.0532768278903668,5906.310486930446
1.748,1.0522842095970397,5897.607068993312
1.752,1.0409257156841858,5900.676752568894
1.756,1.0205915362357483,5897.337403190408
1.76,0.9929823661889743,5900.787782065424
1.764,0.9601686753388966,5894.069358846024
1.768,0.9248114765073069,5904.2507842902105
1.772,0.8902104960577748,5909.2522062396765
1.776,0.8599996860698114,5912.5837806559775
1.78,0.83751843923586,5903.179076079816
1.784,0.8250395727886333,5905.185111080313
1.788,0.8231160114586855,5899.270399208375
1.792,0.8303259476519638,5896.675939454757
1.796,0.8436160747809368,5903.088772821144
1.8,0.8592152836415045,5901.090617677674
1.804,0.8737938026893058,5898.668208182331
1.808,0.8853817786770001,5891.341804310915
1.812,0.8936813273531593,5905.497883063235
1.816,0.8997478961092711,5906.454060843136
1.82,0.9053430777706744,5895.7252398082655
1.824,0.9123254990878348,5900.220424834783
1.828,0.9222236340861998,5908.605542385652
1.832,0.9358774388246393,5906.661663255865
1.836,0.9530309662861225,5908.456737748472
1.84,0.9720060572813762,5913.131338814336
1.844,0.9897762694771961,5901.829214486344
1.848,1.0026094187447723,5900.137748547777
1.852,1.0070462330052903,5898.665196569726
1.856,1.0007182025847199,5905.778311443843
