时间(s),电压(V),幅值(高频80K)
0.0,1.2891659929150505,5897.222643825678
0.004,1.211157450845635,5904.293408517102
0.008,1.1445456911566878,5901.845327948922
0.012,1.0975438770298103,5900.081450361936
0.016,1.0727306648825172,5898.145672441636
0.02,1.0663925282627067,5896.920421594763
0.024,1.0698142162286015,5898.388999372852
0.028,1.0721001486708066,5905.8909268467
0.032,1.0634909836430506,5892.793218284725
0.036,1.0380231159207844,5898.1561958546345
0.04,0.994835542481688,5902.323115951437
0.044,0.9380587480998405,5888.776669870289
0.048,0.8755853742602799,5903.936480709332
0.052,0.817101644801651,5904.012731084698
0.056,0.7718240639145042,5905.368333982262
0.06,0.7465225107334778,5895.914384507231
0.064,0.7443911017240316,5899.391296828221
0.068,0.7649849797320072,5897.823853981161
0.072,0.8049817128331923,5899.15839645724
0.076,0.8593103249914462,5903.030769809121
0.08,0.9222757014895714,5903.615697443722
0.084,0.9884457257575535,5896.228034140848
0.088,1.0531217535781248,5905.406434210128
0.092,1.112297205144847,5899.76017904949
0.096,1.162249190812952,5906.141015756566
0.1,1.1991799255564168,5898.669220186266
0.104,1.2193335151473945,5894.458735168396
0.108,1.2196608481384197,5897.776765071044
0.112,1.1986829909523837,5900.991035184224
0.116,1.1570985914511822,5894.183783028727
0.12,1.097937507706175,5896.1021388810605
0.124,1.0263606224368471,5895.659759249198
0.128,0.9492419128740652,5897.067826395953
0.132,0.8744851795097854,5900.76206343176
0.136,0.8099496851979344,5891.853189079607
0.14,0.7620849628567385,5898.157288676337
0.144,0.7346901801496543,5897.477100894979
0.148,0.7282629653065547,5897.363657487906
0.152,0.7401521481613318,5901.440208391325
0.156,0.7654276883171042,5898.573367188352
0.16,0.7981921187273524,5898.362358315406
0.164,0.8329682751344759,5899.652243071121
0.168,0.8657835260148525,5905.112404570042
0.172,0.8946497396163577,5897.710997857158
0.176,0.919328994110741,5891.425166880948
0.18,0.940550355554156,5896.940407045623
0.184,0.9590720402477085,5901.253894858246
0.188,0.9750029664380354,5894.252430522231
0.192,0.9876156090105478,5902.281776154775
0.196,0.9956720403773637,5892.907625715292
0.2,0.998127015198708,5906.028648322273
0.204,0.9948974217060967,5907.280490998078
0.208,0.9872567795658502,5909.7781076342
0.212,0.9775560615699879,5906.3794628965
0.216,0.9684040035168261,5894.46362557417
0.22,0.9618171895984107,5897.185786122084
0.224,0.9588355059447887,5901.394779737124
0.228,0.9597140930163697,5888.818839045943
0.232,0.9643872211924039,5899.8083093770265
0.236,0.9727770289362643,5901.49562722732
0.24,0.9847138696536701,5902.195358180067
0.244,0.9995301178996896,5903.983709004278
0.248,1.0156073875565184,5905.169403263957
0.252,1.030229360842927,5897.58674684232
0.256,1.0399755806958373,5906.84307911462
0.26,1.0416258879135305,5898.539418822771
0.264,1.0332908995814327,5903.695986147731
0.268,1.0153497939075657,5890.356737389554
0.272,0.9907671805967045,5902.336261157371
0.276,0.9645231273274346,5903.801172363432
0.28,0.9422586426754137,5900.370745360379
0.284,0.9286445038159684,5897.39521885695
0.288,0.9261496342551081,5893.389173938027
0.292,0.9346907937683029,5905.35180640171
0.296,0.9521926164431483,5903.204990354112
0.3,0.9756427493463086,5896.493163343776
0.304,1.0020624976655863,5896.533219109346
0.308,1.0289945498522604,5899.832646295597
0.312,1.0544547941351265,5906.109888734092
0.316,1.0765782844497218,5911.812600732495
0.32,1.0933078607022548,5903.781726559403
0.324,1.1024136131295734,5904.525382878772
0.328,1.1019242353273035,5895.425456535189
0.332,1.0908326462828497,5898.058677336939
0.336,1.0698454111962392,5900.123379109245
0.34,1.0419223876162829,5905.691320131176
0.344,1.0122894646875977,5895.230979316237
0.348,0.9876067607079079,5903.163536031489
0.352,0.9742255436809992,5898.536973201391
0.356,0.975951398180297,5903.427633387635
0.36,0.9921991458282412,5897.300666218808
0.364,1.0175288557288173,5898.19556469276
0.368,1.0430611136229415,5896.020400574175
0.372,1.0593522297571858,5896.607938747058
0.376,1.05951654045546,5894.381891350438
0.38,1.0412355028749598,5896.293085024316
0.384,1.0069036355206509,5910.2008605356295
0.388,0.962135897891255,5895.690986039381
0.392,0.913576423698912,5892.935206407075
0.396,0.8670585129630951,5902.3261159078
0.4,0.826783832769512,5891.9499387127125
0.404,0.7956085512059464,5909.651735333694
0.408,0.7759837957467832,5903.280873687574
0.412,0.7707829847270247,5906.9744464597925
0.416,0.78332042584077,5901.966229109148
0.42,0.8163572854525047,5894.56001051322
0.424,0.8705432819892592,5900.499999804008
0.428,0.9431092160280269,5898.237370824581
0.432,1.0274852798362388,5896.99488166721
0.436,1.114064740971678,5895.140844251831
0.44,1.1918997113883911,5896.934540431909
0.444,1.2508721171078458,5896.484250062501
0.448,1.283799799114976,5897.985612870013
0.452,1.287956397737514,5906.804660732425
0.456,1.2656052680732484,5901.328679065061
0.46,1.2233825240482352,5904.781557275149
0.464,1.1706759949061467,5912.776086269512
0.468,1.1174399770796877,5901.27234452358
0.472,1.072040522330413,5899.159962356636
0.476,1.0396838543188351,5908.41827411287
0.48,1.021772303243418,5899.349902915306
0.484,1.0162379700624864,5909.4426298270855
0.488,1.0186323384447495,5898.716853414466
0.492,1.0235905448675027,5891.582355090441
0.496,1.0262640830955867,5900.996451941598
0.5,1.0234021475954789,5897.208362350559
0.504,1.0139007003790186,5893.2197177602
0.508,0.9987561387240668,5894.818009170941
0.512,0.9804679218939727,5895.067545250981
0.516,0.9621006372552873,5904.184672427562
0.52,0.9463892471108938,5905.916422393469
0.524,0.935271412953175,5899.369374908189
0.528,0.9299721700577047,5893.766277841179
0.532,0.9313970123601095,5898.923172458814
0.536,0.940378268092958,5896.127859348749
0.54,0.9574333248415778,5907.195364456361
0.544,0.9820602543975719,5893.813911016729
0.548,1.011965351776669,5901.538460388424
0.552,1.0427589612363668,5891.047936697867
0.556,1.0684971011697688,5899.493602814499
0.56,1.0830596820709704,5894.24208308876
0.5640000000000001,1.0819213173992694,5894.994721316396
0.5680000000000001,1.0636216624546209,5896.15568620672
0.5720000000000001,1.0303417418045628,5905.590349390647
0.5760000000000001,0.9873833026507622,5897.308360412009
0.58,0.9417633268921568,5898.254989894775
0.584,0.900358272926417,5896.537474238178
0.588,0.8681006101657183,5895.2499319829085
0.592,0.8467700046441031,5900.901903741459
0.596,0.8348561791495647,5895.290907249782
0.6,0.8286115663423382,5902.436095724071
0.604,0.8238548460606911,5903.60514584403
0.608,0.8177484235311789,5895.348921814174
0.612,0.8098922690497136,5899.855177529622
0.616,0.8024335975595274,5898.579009243176
0.62,0.7992044553456562,5898.062401114575
0.624,0.804175283464606,5902.80048166895
0.628,0.8197984853582382,5905.20588560835
0.632,0.8459304090118254,5905.63156751147
0.636,0.8797732093176541,5893.460676077898
0.64,0.9167733145057343,5895.328522281323
0.644,0.9519841639879864,5903.009636016988
0.648,0.9812931065379367,5897.876284420141
0.652,1.0021006040315479,5901.853653650057
0.656,1.0133556664583985,5902.820670632529
0.66,1.015153943779438,5899.888881922248
0.664,1.0082645085389785,5895.638546807455
0.668,0.9938666692103953,5899.936839935156
0.672,0.9735334149266239,5903.794585358376
0.676,0.9493147213010732,5902.51639930237
0.68,0.9237398928283438,5900.07186735248
0.684,0.8996098676377446,5896.512285601771
0.6880000000000001,0.879568998343414,5901.968981136717
0.6920000000000001,0.8656127059426583,5889.402924356172
0.6960000000000001,0.8587691674627215,5902.843411493921
0.7000000000000001,0.8591005069219998,5902.281944435452
0.704,0.8659892895265785,5893.44549281748
0.708,0.8785448969075056,5905.186200588433
0.712,0.895937965880895,5901.712691686435
0.716,0.9175296032169002,5895.50751824145
0.72,0.942760334168758,5901.755056524529
0.724,0.9708746973831615,5898.001377086189
0.728,1.000642002490734,5896.175134017732
0.732,1.0302210431508727,5893.405257537855
0.736,1.0572126515791351,5896.225874513593
0.74,1.078876501325236,5900.879855871536
0.744,1.0925204780178643,5901.445241096566
0.748,1.0960746495146247,5903.415841796659
0.752,1.0887252228117987,5891.272039815104
0.756,1.0713367199764374,5912.749605481509
0.76,1.0464393852104774,5902.529516267851
0.764,1.017777461172536,5901.2924484215655
0.768,0.989597646361309,5904.51710376268
0.772,0.965892621062074,5900.411629594188
0.776,0.9497280179963464,5897.587026539301
0.78,0.9426582375462484,5900.934418786727
0.784,0.9442067529277088,5901.921743806433
0.788,0.9515244782679234,5912.648118766584
0.792,0.9595356732871014,5900.223419752454
0.796,0.9619081397995966,5900.338160122658
0.8,0.9528930880935691,5894.034142839253
0.804,0.9295542338397644,5895.035822355283
0.808,0.8934815257099956,5902.315169116715
0.812,0.8511178178253399,5895.237496197996
0.8160000000000001,0.812364817084939,5901.137992984746
0.8200000000000001,0.7878629131568662,5898.167220964726
0.8240000000000001,0.7858534602505938,5902.566310032524
0.8280000000000001,0.809629435717265,5904.19860911643
0.8320000000000001,0.8563189308276873,5896.721257773879
0.836,0.917310455060156,5894.221739766095
0.84,0.9801875085596512,5890.603757501927
0.844,1.0316775276887291,5900.339219949572
0.848,1.0608680624068176,5894.6972602054175
0.852,1.0618483191270762,5899.117127018234
0.856,1.0350509496432745,5900.91967252087
0.86,0.9869022683606979,5892.404977229781
0.864,0.9278952542864227,5901.770093614792
0.868,0.8697534100605531,5899.510005276159
0.872,0.8227044468450535,5895.445957032698
0.876,0.7937817168217123,5907.594833845943
0.88,0.7864889536850515,5897.739673163197
0.884,0.8014030794424746,5909.530798492215
0.888,0.8368750018313152,5887.1136163651245
0.892,0.8892447913713828,5898.651992656501
0.896,0.9526551310966129,5896.671147706134
0.9,1.019028813462522,5904.760175777746
0.904,1.0787701007978012,5890.79692681732
0.908,1.1223879827052226,5898.825230207153
0.912,1.142741279780475,5900.108403788196
0.916,1.1371591774163259,5898.538062387486
0.92,1.1085556138855421,5904.41063085489
0.924,1.0649866498414589,5902.014829065101
0.928,1.0177001066260016,5902.79028367431
0.932,0.9782439790016243,5895.047526290886
0.936,0.9554772429725196,5903.200240774834
0.94,0.9533578368936063,5903.247459609096
0.944,0.9701321344523782,5903.328937010863
0.948,0.9990726952469088,5900.309103442166
0.952,1.030445882846798,5909.782727520343
0.956,1.0541368907717215,5900.314671138408
0.96,1.0623004042969229,5897.140309119996
0.964,1.0514178009959088,5908.575467882112
0.968,1.0231919759794808,5903.997316739036
0.972,0.9839254288561219,5906.51495730882
0.976,0.9425205326021046,5900.158527921446
0.98,0.907835992156116,5895.555764674165
0.984,0.8864096298048718,5902.706402781529
0.988,0.8812743366647472,5897.234490028511
0.992,0.891951973598473,5909.62877456867
0.996,0.9151618713288941,5899.435437028175
1.0,0.9456930882121855,5900.897167085792
1.004,0.9772622758026072,5901.559141191165
1.008,1.0035569410519072,5909.033843925795
1.012,1.0195796574458376,5901.183607802837
1.016,1.0229708012868595,5898.23345728887
1.02,1.0147108805560796,5899.740525491583
1.024,0.9987503034916999,5900.915486670218
1.028,0.980545817079422,5895.601365731935
1.032,0.9649824891800308,5904.130797511787
1.036,0.9545320241239806,5903.267689622719
1.04,0.9484958474367876,5903.783109132246
1.044,0.9437050624067324,5892.912826447433
1.048,0.9363536981734555,5895.381995353223
1.052,0.9241215438311817,5909.954810189828
1.056,0.9076147423029269,5895.5523369416005
1.06,0.8904380922725267,5906.828713841394
1.064,0.8778175296013877,5893.913244651582
1.068,0.8743724295104827,5904.9139115657
1.072,0.8820615329914477,5907.2367680598245
1.076,0.8992637446468842,5902.804657464441
1.08,0.9214066829802091,5905.938808381305
1.084,0.9427718532018496,5900.973267762865
1.088,0.9585325792919753,5899.223866686178
1.092,0.9660950988090468,5900.184928743066
1.096,0.965356827433515,5902.603500468836
1.1,0.9581116179201034,5904.362553749807
1.104,0.9471225943917628,5901.209625157982
1.108,0.935314137396174,5904.949786521477
1.112,0.9252965177275544,5900.563889756307
1.116,0.9191969796550872,5905.050568473481
1.12,0.9186192519981616,5901.241101855298
1.124,0.9245480775303768,5891.774490674439
1.128,0.9371539518095516,5907.956605900647
1.132,0.9556203067335312,5907.589606616572
1.136,0.9781526423218964,5901.081270842809
1.14,1.0021980230551573,5914.482988597138
1.144,1.024752323817996,5906.765984199463
1.148,1.0426402380564144,5897.568009778185
1.152,1.0528024265907627,5896.021504520599
1.156,1.0527204075141239,5904.297214526207
1.16,1.0410246256874638,5901.027091452123
1.164,1.0181384122753936,5899.330597980698
1.168,0.9866724670627465,5899.411785396768
1.172,0.9512891506723989,5896.727801279864
1.176,0.9179040738104818,5900.587125524325
1.18,0.8923489006768188,5898.194881858715
1.184,0.8788924160613476,5893.30589311
1.188,0.8791592538091144,5904.7379250518525
1.192,0.8918774323606447,5898.524636822224
1.196,0.9135324033181536,5905.131742169021
1.2,0.9396004758668146,5909.4440408710125
1.204,0.965850490286628,5903.945509007212
1.208,0.9893069268351506,5903.701138325742
1.212,1.008671478214881,5910.043430554828
1.216,1.0241589723337354,5895.42401499533
1.22,1.0368607081991879,5904.0909573430645
1.224,1.0479241817621472,5894.979787456063
1.228,1.0579122231105578,5907.165854827155
1.232,1.0665858238358565,5901.876641895912
1.236,1.0731205014257068,5895.473137497081
1.24,1.0765735067419888,5896.263642087583
1.244,1.0763546093909522,5901.202545771659
1.248,1.0725033258003673,5898.026941599578
1.252,1.0656967843640255,5899.774877469333
1.256,1.057052354928737,5899.583107003322
1.26,1.0478666002519905,5901.827517625421
1.264,1.0393968335062242,5903.532432115295
1.268,1.0327055616121863,5902.964349178531
1.272,1.0285555260689316,5896.586915741249
1.276,1.0273576277393104,5898.713844323813
1.28,1.0291509743435134,5894.963373121375
1.284,1.0335472506502736,5890.702528212347
1.288,1.039605332770434,5895.890291941826
1.292,1.0457237329768252,5906.084537787708
1.296,1.0497154873553654,5902.066538672492
1.3,1.0491641887154008,5899.620071653235
1.304,1.0420128474500305,5899.347469669355
1.308,1.0272365526267153,5905.995818695905
1.312,1.0054261816694998,5902.95504676252
1.316,0.9791006033097902,5899.602972250083
1.32,0.952554111969783,5895.628061990486
1.324,0.9311175612447875,5896.808078935508
1.328,0.9199204555944611,5898.739570631542
1.332,0.9224920107057764,5902.477665851107
1.336,0.9396511402941514,5891.15135454855
1.34,0.9690334867388866,5894.635690231828
1.344,1.0053934278903338,5898.382959072171
1.348,1.0416326016808617,5907.845179234395
1.352,1.070361361593502,5905.160046909132
1.356,1.0856531664374829,5907.887325484139
1.36,1.0845153997633992,5887.686030506397
1.364,1.0675878337334457,5898.5076118663055
1.368,1.038812646573155,5901.576063935042
1.372,1.0042245380830073,5902.422327731506
1.376,0.9703459951171133,5896.611330324552
1.38,0.9427763369687194,5898.53664430438
1.384,0.9254054128683094,5899.849628657803
1.388,0.9203151615801175,5902.055964291661
1.392,0.9280489110200115,5894.792363926822
1.396,0.9478162729148,5902.403035602079
1.4,0.9774502588012396,5902.550176504604
1.404,1.0133046841810225,5906.283286079735
1.408,1.0504623808860039,5898.544844272723
1.412,1.0835085235150606,5891.989435371179
1.416,1.1078032564778613,5895.279711740775
1.42,1.1208433356524143,5899.486847278096
1.424,1.1231210020899849,5905.649699945148
1.428,1.1180041950954878,5900.178615061011
1.432,1.110561825492984,5903.183481202904
1.436,1.1057371039508308,5899.757588154258
1.44,1.10657285727405,5890.168058079434
1.444,1.1131669801196573,5911.062435703508
1.448,1.122686926205016,5901.1918740807705
1.452,1.1303025474049342,5905.890654446887
1.456,1.130633666653767,5897.02685086992
1.46,1.1193411794147918,5897.722677943687
1.464,1.0945554247583151,5908.432321398499
1.468,1.0577678545831226,5897.117472411766
1.472,1.0138068730206489,5898.945082926664
1.476,0.9697748683688138,5902.528196460804
1.48,0.93323633479544,5897.610729872401
1.484,0.9102553131362013,5893.759027028893
1.488,0.9038979668037666,5895.231243268142
1.492,0.9135510657433388,5904.231298265821
1.496,0.935088524463078,5911.836059770788
1.5,0.9617884283491671,5900.915483981649
1.504,0.9859111209886757,5899.846387652706
1.508,1.00072069999903,5896.288417843918
1.512,1.00241133546951,5892.8423193169965
1.516,0.9911988533699222,5906.757666796336
1.52,0.9710463581154128,5902.090158546164
1.524,0.9480457120726102,5902.222514035704
1.528,0.9280751856312024,5897.609903666024
1.532,0.9146897009802462,5904.227046346795
1.536,0.9080794016537037,5905.063401470301
1.54,0.9054120409968094,5901.024744650535
1.544,0.902273050430146,5900.510421751292
1.548,0.8945454581133339,5900.597859443952
1.552,0.8800189266371071,5907.560702019514
1.556,0.8592313146427676,5885.058917663967
1.56,0.8354194848838461,5897.086434867846
1.564,0.813771977916568,5909.385041715816
1.568,0.8002507826303201,5910.68650465898
1.572,0.8001823192518908,5899.115489430777
1.576,0.816836739780789,5907.935333113683
1.58,0.850318549030546,5906.070390504666
1.584,0.8971094613437595,5894.715942483396
1.588,0.9504763763040835,5903.667363302213
1.592,1.0017377191770784,5903.6880615275295
1.596,1.0421236149591497,5894.119212738617
1.6,1.0647426949726326,5896.424284034473
1.604,1.0660929823335672,5902.46374106771
1.608,1.0467024576007549,5902.99644285367
1.612,1.0108055354912158,5900.655937128045
1.616,0.9652725727976859,5898.4008229977335
1.62,0.9181527399795785,5902.560018209985
1.624,0.8771796122546086,5903.881344900558
1.628,0.8485220846360837,5906.2602888866695
1.632,0.8359697055169149,5900.520265098172
1.636,0.8406136159588992,5897.31843823885
1.64,0.8609660487583269,5900.647438151736
1.644,0.8934037539697771,5897.808361017137
1.648,0.9328151131374782,5900.16387074512
1.652,0.9733452226777838,5894.76066565877
1.656,1.0091641119105113,5903.845971540218
1.66,1.035229704220775,5897.459476523364
1.664,1.0480368342271242,5900.70488453584
1.668,1.0462839774954784,5898.787988285509
1.672,1.0312743874681813,5898.954419403372
1.676,1.0068142672515017,5904.506715739901
1.68,0.978480457748582,5902.863938974335
1.684,0.9523769235809648,5900.240640846464
1.688,0.9337292209943902,5905.7646316494265
1.692,0.9257368120649705,5911.022186624292
1.696,0.9290052212887863,5900.12343512273
1.7,0.9416910258623264,5893.814236983521
1.704,0.9602698580046787,5900.935050932677
1.708,0.9806324689374378,5893.403958660769
1.712,0.9991273186101814,5893.181663561509
1.716,1.0132735834906148,5906.207375978576
1.72,1.0220796863222967,5907.452608319787
1.724,1.026033340492676,5896.860638663145
1.728,1.026824361203942,5908.711842648073
1.732,1.0268383200208955,5898.57588940117
1.736,1.0284934890664033,5897.232982776512
1.74,1.0335343876129697,5895.508006129673
1.744,1.0424080474339408,5899.409042811284
1.748,1.0538762430704893,5902.87181478394
1.752,1.065061983593406,5911.422597954934
1.756,1.072090644129754,5905.560929722433
1.76,1.0712707353882838,5903.253386612811
1.764,1.0604348745891716,5895.341280276286
1.768,1.039859948035132,5896.667593756465
1.772,1.0123110710063175,5903.478283919996
1.776,0.9821795010085509,5900.363782255715
1.78,0.9541426070185506,5902.581298538465
1.784,0.9319588449875401,5890.896341311118
1.788,0.9178201060002149,5908.739461747338
1.792,0.9123058083239096,5897.53060737204
1.796,0.9147189668799764,5898.737764051215
1.8,0.9235469034769869,5897.9767072698105
1.804,0.9368602596258546,5901.021529703567
1.808,0.9525481755085224,5895.09281818839
1.812,0.9684051603939864,5900.896801602935
1.816,0.9822062056720149,5899.333083692552
1.82,0.9919205578267691,5890.122213766782
1.824,0.9960929471867406,5903.87942490339
1.828,0.994266273242343,5901.391398460855
1.832,0.9872465874624906,5899.230120352967
1.836,0.9770492485851164,5911.956413440762
1.84,0.9664718146041794,5905.012935286448
1.844,0.9583757210222194,5893.330164198839
1.848,0.954904860065701,5893.650873030292
1.852,0.9569427513085198,5902.031041432275
1.856,0.9639985851646461,5894.374570580927
1.86,0.9744736741359403,5896.2642877299
