时间(s),电压(V),幅值(高频80K)
0.0,0.922265649042558,5903.929238860984
0.004,0.9000986204238756,5897.856074179149
0.008,0.8886472161206275,5897.593126702545
0.012,0.8961868805546785,5904.087534174962
0.016,0.9278204613246195,5904.94476050431
0.02,0.9838695503877205,5903.805618219413
0.024,1.059070801906627,5897.419337765842
0.028,1.1430802594782967,5893.075972120826
0.032,1.222132306646166,5907.528289486163
0.036,1.2813547878726532,5890.027769570087
0.04,1.3074770076703,5900.312457288603
0.044,1.2918886363125033,5900.493604706449
0.048,1.2335739086316864,5900.59359435037
0.052,1.1407166988715038,5896.794206467501
0.056,1.0297428006586435,5907.089209921704
0.06,0.9215707276616176,5898.709435945923
0.064,0.8361702200628323,5907.484923327847
0.068,0.7872590169883917,5898.081489632659
0.072,0.7788119791728584,5903.691380056371
0.076,0.8043572908677945,5904.690709731121
0.08,0.8492121253154832,5903.219636748001
0.084,0.8950016845583723,5906.305970430753
0.088,0.9250930662145302,5900.077303159216
0.092,0.9292578039417737,5897.808338053118
0.096,0.9062122375464944,5894.429376005778
0.1,0.8635076089671035,5897.020732955948
0.104,0.8150660424237272,5894.398212749507
0.108,0.777139908452412,5901.826204473097
0.112,0.7636771689766632,5891.973823356787
0.116,0.7822348433585522,5893.408336549593
0.12,0.8316474364601674,5907.280553377236
0.124,0.9022980400566653,5910.652833138148
0.128,0.9789241382283632,5904.047837803057
0.132,1.044840382517191,5899.4607398603885
0.136,1.0860165374445596,5893.068812677632
0.14,1.093919956968842,5901.713475843185
0.144,1.0668894249399816,5911.359660430432
0.148,1.0103023476201791,5903.412720244185
0.152,0.935786559113122,5902.755382569101
0.156,0.8595496957199713,5898.31232376905
0.16,0.7998062596952954,5895.190580972686
0.164,0.7733979313793916,5906.828813457847
0.168,0.792103541856697,5899.196913422399
0.172,0.8596016024098219,5907.301878552452
0.176,0.9701166131392522,5900.271468048678
0.18,1.1092935248173972,5898.6208732534815
0.184,1.2571212038264388,5892.08012102965
0.188,1.392121104434368,5901.031124577827
0.192,1.4956873387878105,5899.209413631604
0.196,1.5555188682803822,5894.922983566623
0.2,1.5675236333450657,5906.05366164096
0.204,1.5360934840802252,5902.888783936998
0.208,1.4728959502713401,5897.040669007123
0.212,1.3943344524983043,5905.781273024453
0.216,1.3179395512803338,5897.625253337788
0.22,1.2583545805347887,5894.008372752739
0.224,1.2240038419157906,5900.672580970659
0.228,1.2155284350838467,5891.449062976718
0.232,1.2265064567408082,5911.8010369087215
0.236,1.2461412494032147,5904.614353767601
0.24,1.2629207498942847,5890.821068719719
0.244,1.2679703127874358,5900.263272555756
0.248,1.257013988035389,5892.152046757734
0.252,1.23047551822792,5899.021120209183
0.256,1.1920548414561676,5906.115365533123
0.26,1.1467091304989807,5899.551513281081
0.264,1.0990294307601696,5903.427688561433
0.268,1.0525317675808452,5898.744168678485
0.272,1.0097022122852966,5895.016555426576
0.276,0.9722060752010346,5897.791175810173
0.28,0.940772080550015,5900.807803443174
0.284,0.9147813018761053,5898.5611047640805
0.288,0.8920842854342523,5901.226124718312
0.292,0.8695946195569586,5895.557107043553
0.296,0.8447132952997102,5892.4197037136
0.3,0.8170142950119528,5899.1137550845615
0.304,0.7893077602986578,5902.792065448223
0.308,0.7673791714838178,5896.552540495481
0.312,0.7583149191503701,5898.099578058875
0.316,0.7680588871770722,5898.107538572796
0.32,0.7992308040068825,5893.350695660662
0.324,0.8500181197247807,5915.302705509564
0.328,0.9143690143212927,5898.741085059631
0.332,0.9832186868988079,5901.576615103817
0.336,1.0462810761896915,5899.230795501899
0.34,1.0939564946818594,5904.202514078401
0.344,1.1189989789714816,5900.266805428841
0.348,1.1176857543845895,5903.650813722053
0.352,1.090371468091071,5901.817367963836
0.356,1.0414816746538578,5903.983169972681
0.36,0.9790505905494967,5901.334351690746
0.364,0.9137928862319076,5900.607327032431
0.368,0.857611860861205,5898.812593918459
0.372,0.8215495282072315,5904.836169326625
0.376,0.813447368714539,5899.864733276233
0.38,0.8358777537619406,5906.641359123794
0.384,0.8850573750284612,5900.351497331374
0.388,0.9513173813947731,5898.030802913501
0.392,1.02125316460935,5901.831492472176
0.396,1.0810683890125001,5896.204400415239
0.4,1.1201588185952007,5900.515297026612
0.404,1.133855198301582,5892.068226613949
0.408,1.1244473633463972,5895.763735560483
0.412,1.1001155369801476,5897.814058493348
0.416,1.0721470259155066,5905.173513999146
0.42,1.0514656620845797,5899.037623589746
0.424,1.0456466962973883,5893.194055553407
0.428,1.0572467300038757,5903.092441200906
0.432,1.0837223159680227,5899.887299641388
0.436,1.1186848723270255,5891.80890881581
0.44,1.153944455671552,5886.120970656917
0.444,1.1817638841057916,5901.440870746224
0.448,1.1967987549265577,5902.911006956502
0.452,1.1972455017232049,5900.476401615052
0.456,1.1848814744923286,5889.474332912472
0.46,1.164054116365843,5898.179950985031
0.464,1.1401178116657515,5892.470582309317
0.468,1.118022956537324,5899.165456746173
0.472,1.1015573458195467,5904.193874328744
0.476,1.0932654367186585,5901.310861025507
0.48,1.094659320883529,5894.157863641586
0.484,1.1062489297178144,5900.846107384066
0.488,1.1271815003765153,5899.881975610972
0.492,1.1546911028318547,5902.372967527162
0.496,1.1838432092095845,5901.400861651779
0.5,1.2080186086765468,5889.557933936998
0.504,1.220226493594008,5898.247606315957
0.508,1.2149180722766668,5899.967234693005
0.512,1.189740108208539,5895.499861387664
0.516,1.146646224782677,5903.165937463567
0.52,1.0919125350118266,5902.183617999859
0.524,1.0349138125839057,5906.845690997953
0.528,0.985957366052586,5902.695822817348
0.532,0.9538102548148423,5900.427085098179
0.536,0.9436328113654349,5897.359579924024
0.54,0.9558887219389213,5897.708362064786
0.544,0.9865079144764725,5907.123733626665
0.548,1.0281947346915192,5911.583787581304
0.552,1.0724249089191105,5910.654100551506
0.556,1.1114783610770913,5896.310733817635
0.56,1.1398688431677528,5899.917930471103
0.5640000000000001,1.154775083021667,5893.739833662838
0.5680000000000001,1.1554926120247673,5894.337080085704
0.5720000000000001,1.142337262607141,5902.316153477665
0.5760000000000001,1.115645491102529,5888.756588513811
0.58,1.0754443372944889,5900.1331089102905
0.584,1.0220226738561649,5910.878081087729
0.588,0.9571193062734473,5890.0618349178985
0.592,0.8850083430886496,5905.441249046907
0.596,0.8127512721361412,5898.023248185891
0.6,0.7493442266565361,5902.319830567602
0.604,0.7040424072954321,5901.791305850741
0.608,0.6844209834197195,5903.248686349185
0.612,0.6947086729004059,5900.16154280566
0.616,0.7347736363452453,5900.918205353259
0.62,0.7999451615375665,5897.008099430075
0.624,0.8816289707735483,5897.808025212235
0.628,0.9684874387118965,5897.7722887618975
0.632,1.0479355206614818,5900.207631569409
0.636,1.1078439633805788,5898.909258963329
0.64,1.138434183403492,5891.380368885837
0.644,1.1342049247581047,5904.90620076621
0.648,1.0954383936524854,5894.076027886244
0.652,1.0286776439277543,5896.132018902796
0.656,0.9457154060166104,5900.5440289681765
0.66,0.861067767996187,5896.902030772839
0.664,0.7885278088501889,5898.140986621613
0.668,0.7379529182049595,5897.289314698751
0.672,0.7135183496220712,5900.684945580612
0.676,0.7140490944410867,5897.922954643828
0.68,0.7350290053246546,5906.266771319661
0.684,0.7711394587539167,5899.135137713769
0.6880000000000001,0.8181519103770544,5897.218196337987
0.6920000000000001,0.8735676386695932,5904.047945820567
0.6960000000000001,0.9360865813849419,5896.550514728601
0.7000000000000001,1.004423986151142,5899.168508901864
0.704,1.076101121498632,5902.105574372564
0.708,1.1467378272103261,5900.158882660624
0.712,1.2101931370239791,5902.75676593081
0.716,1.259623539853979,5902.80481944961
0.72,1.2891503719738286,5905.265126829361
0.724,1.2955332575237115,5905.403468521719
0.728,1.2792409364947965,5904.929563773063
0.732,1.2445665452923318,5902.586123417465
0.736,1.1987665234055107,5893.716435731481
0.74,1.1504615823624913,5894.975577714678
0.744,1.1076792575154146,5903.729532146289
0.748,1.0759878094089377,5901.663514835425
0.752,1.05720478109141,5901.756207740572
0.756,1.0490991587165277,5901.267135784978
0.76,1.0462875135038625,5902.555795695475
0.764,1.042178292727622,5906.983482014009
0.768,1.0314011752511245,5906.816238133521
0.772,1.011804405574452,5898.991991337357
0.776,0.9851162272078733,5905.901932280104
0.78,0.9559758954531924,5896.658742842349
0.784,0.9299398555685363,5900.073817458938
0.788,0.9115355008773134,5908.106990171994
0.792,0.903145980942927,5904.015883125615
0.796,0.9048979667959077,5901.619917322168
0.8,0.9153107291604636,5903.393953074867
0.804,0.9322900938593237,5902.949308053424
0.808,0.9539616867826644,5896.263195859936
0.812,0.9788986653516222,5904.572595249493
0.8160000000000001,1.005662876576575,5903.029995499083
0.8200000000000001,1.0321056547195486,5903.799982596302
0.8240000000000001,1.0551029981834452,5900.413613684234
0.8280000000000001,1.0710573527702993,5897.965722876019
0.8320000000000001,1.0769246024328112,5909.369733445926
0.836,1.0712557431132859,5893.479728566296
0.84,1.0548201349504094,5905.306032363095
0.844,1.0305193322882629,5894.109538798961
0.848,1.0024986792471606,5898.361491639904
0.852,0.9747474352954076,5908.653854383196
0.856,0.9498447264407623,5899.942587795305
0.86,0.9285017243370253,5895.510729308325
0.864,0.9101226768821535,5900.672211697265
0.868,0.8940385457005108,5899.149528720527
0.872,0.8806997647456193,5911.563022928605
0.876,0.8721562013980768,5899.157611437801
0.88,0.8715637419286117,5900.259151575755
0.884,0.881982999932639,5901.443709334152
0.888,0.9050779079921052,5904.595684846059
0.892,0.9402851464287476,5900.047359984545
0.896,0.9846536188087327,5903.468348563238
0.9,1.0332010454459197,5896.234173000233
0.904,1.0796168430749167,5909.852153861195
0.908,1.1172988259096424,5901.888749127807
0.912,1.1407007936200497,5903.217727192733
0.916,1.146777409174354,5905.684827583434
0.92,1.1361258146060818,5901.809565895419
0.924,1.1133274281048877,5897.490663089279
0.928,1.0860916801343679,5907.655147546933
0.932,1.0632129974933129,5901.912624910132
0.936,1.051920101773521,5903.096565174478
0.94,1.0555190597068442,5894.435361281178
0.944,1.0720950465912653,5905.139410545049
0.948,1.0946661109081335,5905.7705268770815
0.952,1.1128848095055346,5897.926653391216
0.956,1.1161180714198058,5897.332500055088
0.96,1.097276341705826,5902.611299616703
0.964,1.0561876954346803,5899.536488610492
0.968,1.001052727316483,5893.789842915488
0.972,0.9469505175594488,5897.506366979416
0.976,0.911471065523745,5901.643503899704
0.98,0.9088544653874553,5889.348041446686
0.984,0.9448335290512235,5908.01014693079
0.988,1.0142093989621332,5906.594367815811
0.992,1.1020782115198988,5897.147107089636
0.996,1.18814271466834,5900.307601220052
1.0,1.2524408791501838,5892.913068944934
1.004,1.2805489494262319,5904.4757119306405
1.008,1.2667618889645762,5897.32822181765
1.012,1.2145647504363637,5901.573265321051
1.016,1.1346324855980783,5893.020379026375
1.02,1.041367820540132,5898.264248976993
1.024,0.9492793493987244,5895.840779771936
1.028,0.8702437223950905,5903.27144852126
1.032,0.8121267136665977,5903.027837555456
1.036,0.7786421578554805,5898.794959754045
1.04,0.7699461681224656,5902.65411659467
1.044,0.7834671139487147,5902.151328079287
1.048,0.8147698776192481,5899.024973764194
1.052,0.8584769841755439,5902.128876768969
1.056,0.9091580432228981,5897.694318773801
1.06,0.9618696234669041,5900.153056306983
1.064,1.0121269494511378,5904.637047852709
1.068,1.0555489487702674,5902.05024852305
1.072,1.0877553152485955,5899.025156044483
1.076,1.104917775025414,5892.956841685647
1.08,1.1048193507041217,5894.992237961331
1.084,1.0878232031706547,5902.541393811431
1.088,1.0571495482761861,5898.06253196079
1.092,1.0182691120427414,5911.553808630282
1.096,0.9776640791111201,5902.916956894204
1.1,0.9413605697723827,5894.532190679095
1.104,0.9135637125027765,5891.640696765374
1.108,0.8956688036058207,5898.405737865604
1.112,0.8859368577822405,5899.230278803303
1.116,0.880071060814699,5897.164793548605
1.12,0.8726859185080066,5904.785243293389
1.124,0.8592904530134842,5889.517504001879
1.128,0.8381577945760316,5898.58557633533
1.132,0.8114797083247806,5906.00778988071
1.136,0.7854039685969196,5903.26557969383
1.14,0.7687861261300165,5908.248382857876
1.144,0.7707916610970122,5886.749926184694
1.148,0.7979290467793032,5892.889322025941
1.152,0.8515215821547819,5899.066793932673
1.156,0.9266709965973563,5901.477927872169
1.16,1.0132177483060396,5895.358830009657
1.164,1.0983146261479526,5893.503962096695
1.168,1.1695430425515998,5896.110769557434
1.172,1.2173922536653252,5893.781694438549
1.176,1.236407580289887,5896.014064619229
1.18,1.2251091865658998,5897.673082090527
1.184,1.1853971986188536,5904.950460473067
1.188,1.1221707065411917,5905.653431772392
1.192,1.043319251338779,5907.069862770439
1.196,0.9595858418906438,5898.128191970735
1.2,0.8835985097818875,5888.879518544465
1.204,0.827758188441021,5898.871464253775
1.208,0.8013197674131667,5899.387989652881
1.212,0.8075259631143887,5900.904547806445
1.216,0.8418978872169358,5903.386713331819
1.22,0.8926484253880779,5898.2021316024575
1.224,0.9435411910771511,5896.039632379522
1.228,0.9785341963537946,5901.947533441893
1.232,0.9867177623911308,5901.4692936759775
1.236,0.9657976261213478,5896.483782922356
1.24,0.9228129917159835,5888.285524543127
1.244,0.8718025903152835,5895.132643024867
1.248,0.8293168111324215,5903.657596129528
1.252,0.809398855219592,5899.139905659034
1.256,0.8196260475026866,5899.257121624159
1.26,0.8592589135038664,5904.111040723904
1.264,0.9198461831576988,5904.508898150368
1.268,0.9879338072545691,5894.285796373652
1.272,1.0489508762869622,5903.208474177598
1.276,1.0910681532934738,5892.471158009742
1.28,1.1079067565523641,5901.84577828273
1.284,1.099392452840448,5898.425929701625
1.288,1.0707661860665254,5900.456492323321
1.292,1.030512464021037,5894.406899694124
1.296,0.9882551656151896,5905.807168804607
1.3,0.9532663226579141,5897.243862359957
1.304,0.9335209162517671,5893.704648294233
1.308,0.9348348910413331,5892.93533445812
1.312,0.9598232619533335,5899.002999108201
1.316,1.0069486912571644,5902.020510412811
1.32,1.0702589641819564,5905.931808244068
1.324,1.1402212783577335,5905.218041553513
1.328,1.2055418093356094,5901.496561652573
1.332,1.2554249952850196,5899.821148113806
1.336,1.2816009041970375,5898.008282873171
1.34,1.279613068161328,5902.417082334199
1.344,1.2491872095141077,5894.195713482226
1.348,1.19380071671256,5900.881626055513
1.352,1.1197036063539665,5899.773946507761
1.356,1.0346754494837476,5905.467783647534
1.36,0.9468714698357136,5900.025793781788
1.364,0.8641192979449909,5906.391451496457
1.368,0.7937653093742058,5897.693570269933
1.372,0.742715939471902,5894.498959090357
1.376,0.7170776755976018,5899.447686832456
1.38,0.7210495870616727,5903.629481479865
1.384,0.7553139752353968,5895.496405175504
1.388,0.8156866598841064,5900.522480412282
1.392,0.8928883295424649,5900.05392802913
1.396,0.9739108935590843,5903.00186936441
1.4,1.0447739898938442,5900.501942635248
1.404,1.093860186312895,5902.745750241306
1.408,1.1147931113543066,5891.665987914078
1.412,1.1079939572622017,5908.251104734633
1.416,1.0804225335538569,5898.73453637464
1.42,1.0434879994892634,5913.880371713765
1.424,1.0097016607920042,5898.621799872086
1.428,0.9891512818818459,5903.226811234446
1.432,0.9869598638581658,5905.433764028669
1.436,1.0024386304821604,5894.698092016816
1.44,1.0299449085739611,5914.675011389094
1.444,1.060924216015414,5897.817602831708
1.448,1.0864509883770377,5897.384834182464
1.452,1.0996957612754403,5898.449803032108
1.456,1.097882364480009,5891.521611279897
1.46,1.0832855181822207,5895.863062111544
1.464,1.0627919019228926,5896.166042055989
1.468,1.0458062629179818,5901.292037858499
1.472,1.0409175043456425,5906.598916665191
1.476,1.0524655738679614,5906.0235460003205
1.48,1.078479948862238,5901.854677726878
1.484,1.1110428774053354,5899.3961302421685
1.488,1.1390548980233632,5909.227551591818
1.492,1.1522183363914522,5894.987609751946
1.496,1.144545438800963,5908.987821398096
1.5,1.1161530079519488,5904.420327195504
1.504,1.073052493158988,5891.954624966792
1.508,1.025321051809092,5898.738125451438
1.512,0.9842379500926118,5891.57945979453
1.516,0.9590553147076559,5893.687558429013
1.52,0.9542298013587797,5892.417570921493
1.524,0.9679346280742737,5914.63491842655
1.528,0.9923443654321179,5906.0599241775735
1.532,1.0156764827921647,5901.49137598413
1.536,1.0254423014787273,5902.967877300305
1.54,1.0119665880959874,5898.013432662857
1.544,0.9712069338969987,5904.190177783598
1.548,0.9062370407585028,5899.371318709603
1.552,0.8271273618970986,5902.927787796412
1.556,0.7491619088201622,5905.534272983254
1.56,0.6895352176413009,5901.254718203433
1.564,0.6630614745692565,5904.2263045319005
1.568,0.6778982039399492,5904.25254874279
1.572,0.7325719698490732,5902.916037635107
1.576,0.8154500993259225,5911.563485040416
1.58,0.9071502618791636,5898.582294430522
1.584,0.985441722306247,5905.804623264303
1.588,1.031373457190887,5896.4749273894095
1.592,1.0349261709685444,5894.52939798458
1.596,0.9984803862439169,5901.729326460587
1.6,0.9368406999309884,5906.234322324652
1.604,0.8734710497114515,5890.50538638826
1.608,0.8338246833422045,5901.575196708724
1.612,0.8377641978655165,5892.667450057562
1.616,0.8935169751431699,5894.437339581411
1.62,0.9951308439062945,5902.414618502608
1.624,1.124193485288852,5900.673016675442
1.628,1.2551533856045716,5898.389886957821
1.632,1.3624262445485766,5901.157359648811
1.636,1.4269804129513615,5901.039269595319
1.64,1.4404773291088484,5904.650779152227
1.644,1.406104682638217,5904.168965180916
1.648,1.3363918719810686,5898.47024153982
1.652,1.2490449555525593,5896.367105940754
1.656,1.1621213251327265,5903.992916069524
1.66,1.089801606456512,5895.417320918583
1.664,1.0396878255352207,5896.693962355271
1.668,1.012111039241952,5892.890981654789
1.672,1.001480130884045,5894.993111058604
1.676,0.9991710611624047,5892.228144566637
1.68,0.9969075334900313,5895.347523655262
1.684,0.9894133449389187,5899.907826764401
1.688,0.9755378672456128,5891.857931175221
1.692,0.9577606287504902,5895.843919483861
1.696,0.9405505757213859,5902.7591166260345
1.7,0.9283287679481562,5903.396168032218
1.704,0.9237358412552862,5896.89992649924
1.708,0.9266183788445288,5894.033646455308
1.712,0.9338781294950326,5903.801628812988
1.716,0.9402292947827252,5901.625832099715
1.72,0.9397969204729921,5904.970866699558
1.724,0.9281691926894597,5900.4169615150495
1.728,0.9041786878857369,5900.752156567278
1.732,0.8706918740244043,5895.817545732628
1.736,0.8340780461577993,5897.8273087623065
1.74,0.8025207011092953,5896.673149217549
1.744,0.7836732843765182,5900.491824578323
1.748,0.7823222802112196,5889.106512518008
1.752,0.798777166782243,5897.440606125232
1.756,0.8286204636402805,5903.019003947333
1.76,0.8640567559312932,5901.297573216764
1.764,0.8963932294226379,5902.202098228417
1.768,0.9185772603379652,5901.308859984171
1.772,0.9267441576555748,5905.35780926271
1.776,0.9204198708831547,5899.632403976577
1.78,0.9017924381169584,5889.646773117665
1.784,0.8747293381226603,5902.453831210374
1.788,0.8439523312724907,5901.589541823697
1.792,0.8143870866922092,5906.646616350714
1.796,0.7905159032545853,5892.270856878074
1.8,0.7756333773549178,5894.369757001159
1.804,0.7711104898972142,5894.790301217752
1.808,0.7759236097401505,5904.193021328137
1.812,0.786681185728005,5900.56981371448
1.816,0.7982353654052656,5901.991510321429
1.82,0.8048095860662404,5906.154350851243
1.824,0.8014103142462237,5905.41505916204
1.828,0.7851207634103692,5896.942777472155
1.832,0.755839740739441,5901.41593151434
1.836,0.7162435688100212,5901.012781303972
1.84,0.6710887477723863,5911.461893807476
1.844,0.626208013903153,5897.30918010047
1.848,0.5875506064809639,5891.664109311175
1.852,0.5604004631264387,5893.188140732025
1.856,0.548681225252902,5898.433893108205
