时间(s),电压(V),幅值(高频80K)
0.0,1.5012295323904836,5896.470167273606
0.004,1.3244603862181599,5902.338434301746
0.008,1.1654665815876795,5892.561460843821
0.012,1.0373595231891173,5899.217030059516
0.016,0.9462376100650246,5905.227834204982
0.02,0.8908471352555924,5897.592583455293
0.024,0.864418740996154,5895.348672781588
0.028,0.857767105294174,5890.939903136336
0.032,0.8623314386869295,5903.915595341963
0.036,0.8721488974053123,5901.194294678368
0.04,0.8844868275885669,5903.546872425038
0.044,0.899421349756405,5897.544788129394
0.048,0.9187652394502399,5906.295181301954
0.052,0.9446519497574777,5897.203997078078
0.056,0.9780843173635659,5900.023107433946
0.06,1.0178664320745958,5901.162189968783
0.064,1.060368954297459,5900.216411551411
0.068,1.1003683644145914,5894.467075575485
0.072,1.1327333790862057,5904.895599018175
0.076,1.1542399722096943,5898.315204964127
0.08,1.1646489912852072,5894.953809437179
0.084,1.16653486503151,5909.119070287329
0.088,1.16399270524412,5894.066444906317
0.092,1.1608757932734262,5912.46621418157
0.096,1.159352110218357,5895.220481703424
0.1,1.1593125872743884,5905.474959462858
0.104,1.1587065301649,5902.289884651514
0.108,1.1544808262928514,5891.539017593812
0.112,1.1436677430149125,5906.413249008273
0.116,1.1243023889249728,5892.457898712125
0.12,1.096041431903461,5897.817780248613
0.124,1.0604163344223578,5900.400203464369
0.128,1.0206340099899336,5893.893898113431
0.132,0.9809101262717315,5898.330834851712
0.136,0.9455224532770004,5906.398698617346
0.14,0.9179376677728042,5893.015940539993
0.144,0.9003413814134661,5894.419454636322
0.148,0.8936918071847387,5899.959053448888
0.152,0.8981361618402013,5900.681215558728
0.156,0.9134507041061707,5899.576778406876
0.16,0.939210980625157,5897.246128314599
0.164,0.9745915552234784,5908.102197487533
0.168,1.0178897228046395,5910.230918765352
0.172,1.0660422199015458,5904.700963072667
0.176,1.1145351873324523,5906.130733851068
0.18,1.158037726059413,5895.445307330862
0.184,1.191700415195635,5891.313658557939
0.188,1.2125295681467467,5901.973295298598
0.192,1.2200297636087623,5900.183432687421
0.196,1.2157303526114152,5897.882519256317
0.2,1.2020142327357404,5893.918644480005
0.204,1.1811199324394315,5906.717697669194
0.208,1.1548748634558892,5902.515566353722
0.212,1.1250104673722927,5903.914105184572
0.216,1.093504517495012,5896.988364539059
0.22,1.0625711840101164,5901.062161662987
0.224,1.0343565907803725,5908.643380313868
0.228,1.0106013062055896,5907.10869627753
0.232,0.9923872246851638,5900.233047401314
0.236,0.9799239721504641,5899.116007237038
0.24,0.9723948898991297,5908.7629244502405
0.244,0.968007462963484,5906.9856463856095
0.248,0.9643365297456429,5907.029247977425
0.252,0.9588810722279876,5899.002216217941
0.256,0.9496870411525504,5899.1928809449855
0.26,0.9359141732257135,5895.351338551048
0.264,0.9182015095118948,5892.100771119165
0.268,0.898641929915656,5897.436136682913
0.272,0.8802626501754802,5895.946452986657
0.276,0.8661334287536002,5902.5735850046885
0.28,0.8584371507540668,5906.038367962572
0.284,0.8578948820263028,5904.529176554589
0.288,0.8637765137344666,5901.116994333942
0.292,0.8744068144760225,5909.532360226962
0.296,0.8877840331896178,5893.824936007049
0.3,0.901874513705182,5897.957209375011
0.304,0.9144171705617203,5904.9223466342455
0.308,0.9225305794946003,5896.3243190770645
0.312,0.9227188330724321,5900.748974774401
0.316,0.9116990799785951,5897.230273158193
0.32,0.8878693932871331,5900.491186339447
0.324,0.8526605739905764,5899.357547474383
0.328,0.8109346719296688,5900.669271137981
0.332,0.7700559000338904,5904.9949041183445
0.336,0.7379326010307012,5890.641862688866
0.34,0.7208151605938937,5896.727026915648
0.344,0.7216999350720307,5896.318140337625
0.348,0.7398472133613041,5906.671348955628
0.352,0.7714110485018831,5904.136535097741
0.356,0.8107759248568612,5899.563344417109
0.36,0.8520254707953192,5894.110081638337
0.364,0.8900402743801227,5904.244616067815
0.368,0.9209999339385952,5894.618779651016
0.372,0.9424023633119946,5904.840408803987
0.376,0.9528951856192907,5901.615037394548
0.38,0.9521779322089732,5905.470083411797
0.384,0.9410908014645418,5901.066995636873
0.388,0.9218431012692822,5908.483261184018
0.392,0.8981890573465845,5905.849280199551
0.396,0.875296083352983,5904.31486929549
0.4,0.8591181761621056,5895.099104125571
0.404,0.8552720025249625,5903.641648142673
0.408,0.8676540125746975,5897.510717805701
0.412,0.8972143069391846,5898.103561214713
0.416,0.9413142337353544,5904.081417315615
0.42,0.993949422793072,5893.92658992107
0.424,1.0468860422487203,5899.213484704525
0.428,1.091483669712805,5898.723531434965
0.432,1.1207181973491416,5894.07891727986
0.436,1.1307810840269072,5896.216710047746
0.44,1.1217517183702153,5896.973579409728
0.444,1.0972232540757798,5901.673904418223
0.448,1.063169947119155,5902.121469144785
0.452,1.026502708278181,5893.793954583079
0.456,0.9936719388667952,5903.674582700188
0.46,0.969543535060364,5896.628634342577
0.464,0.956690658849541,5896.376757674474
0.468,0.9551564927801377,5896.544599221663
0.472,0.962624645082346,5895.0160288218985
0.476,0.9748615281663636,5906.839096159713
0.48,0.9863532924586345,5899.998903262157
0.484,0.9911975684948462,5904.964649880119
0.488,0.9843389705413935,5893.979720484604
0.492,0.9630358686389819,5906.581769848338
0.496,0.9281451791839307,5907.7830270460645
0.5,0.8846760183033041,5908.129454632392
0.504,0.8412072391570541,5901.786028162567
0.508,0.8081159118584856,5904.934337391404
0.512,0.7950101887153612,5882.940135961261
0.516,0.8081383867627142,5901.892269593759
0.52,0.8486289865106468,5906.597733875597
0.524,0.9121089695599452,5892.126634135273
0.528,0.9897226854087945,5904.4540870942665
0.532,1.0701193744011939,5895.564738094801
0.536,1.1417785183269071,5908.575819509879
0.54,1.1950982792931353,5902.233841435845
0.544,1.223858038501274,5897.647202339479
0.548,1.2258549932037868,5902.079205254883
0.552,1.2026937092549006,5907.314158456493
0.556,1.1589368090346126,5897.6192379736
0.56,1.1010397019282996,5899.63104155162
0.5640000000000001,1.036475472323366,5898.749231767191
0.5680000000000001,0.973128374896449,5898.580436764296
0.5720000000000001,0.918667083166249,5895.098103702618
0.5760000000000001,0.8796079537958749,5906.314204988779
0.58,0.8601947676444577,5903.437579831906
0.584,0.8615879580191653,5903.761551146309
0.588,0.8817530217576032,5906.240433335713
0.592,0.9160507135838695,5897.120583198498
0.596,0.9582934995430954,5903.266349221181
0.6,1.001998853011294,5900.629253743763
0.604,1.0415568176738286,5906.491308349294
0.608,1.0730250364105909,5889.58174347658
0.612,1.0943656547280556,5889.7859888088415
0.616,1.1051430687244612,5907.684484470918
0.62,1.1059132576326478,5904.375150322398
0.624,1.0976352896923312,5900.910344601555
0.628,1.0813697290411042,5896.74275361602
0.632,1.0583675573571463,5897.802505133279
0.636,1.0304739408891537,5906.5898482357015
0.64,1.0005575539904865,5904.319971072848
0.644,0.9725046670478761,5913.147545584003
0.648,0.9504556014587062,5890.533249098261
0.652,0.9374848894422889,5896.639663839916
0.656,0.9344334962138134,5907.499552242052
0.66,0.9396078358990191,5901.11130581096
0.664,0.9495373515686162,5895.77719605323
0.668,0.960354044279712,5900.800665338585
0.672,0.9690769778052397,5890.712388764855
0.676,0.9742739755510146,5892.784636698325
0.68,0.9760004135052477,5904.866589583049
0.684,0.9752452877419155,5896.683894887023
0.6880000000000001,0.9731903149081089,5905.899171911432
0.6920000000000001,0.9705265358738888,5903.2894287174895
0.6960000000000001,0.9670552041051709,5899.1691606760905
0.7000000000000001,0.9617960387270705,5912.987017934346
0.704,0.9536587882078915,5897.422531752244
0.708,0.9423910721876397,5900.547642982719
0.712,0.929251650534559,5905.755835544884
0.716,0.9169327897578876,5899.379287364243
0.72,0.9086585301633195,5895.656840270061
0.724,0.9068621025322636,5909.830705713077
0.728,0.9120971145727882,5897.703568154446
0.732,0.9227100642473751,5901.962539825731
0.736,0.9353885300065024,5890.020532793915
0.74,0.9462762585093732,5901.884138815009
0.744,0.9521685931117186,5895.223513329481
0.748,0.9514111129460354,5902.757805103452
0.752,0.9443363571011031,5897.009518561454
0.756,0.9331916754244063,5901.541549033655
0.76,0.9215427499820693,5894.972339517225
0.764,0.9132332998094896,5898.0783843557465
0.768,0.9111965006611471,5895.277832319639
0.772,0.9165776972912508,5894.1478003693055
0.776,0.9285020425550928,5893.325679657041
0.78,0.9444432886810169,5899.155651658952
0.784,0.9608903427343869,5902.043238314132
0.788,0.9740993365601627,5894.43282491344
0.792,0.9809241904186691,5901.6906089067015
0.796,0.9796841558622686,5897.124011212077
0.8,0.9708008399667781,5905.754146730308
0.804,0.9568695254254711,5896.334221607489
0.808,0.942040536706972,5897.241001882308
0.812,0.9308695350313686,5899.216067048862
0.8160000000000001,0.9269973039458494,5904.975670964556
0.8200000000000001,0.9321283102190562,5896.640426591754
0.8240000000000001,0.9457093280781643,5906.523126319525
0.8280000000000001,0.9653895924595072,5886.655083043286
0.8320000000000001,0.9879491765332468,5905.694926006806
0.836,1.0102248022222693,5901.347209378261
0.84,1.0297243428119356,5899.65832744074
0.844,1.0448756997309607,5900.794162631505
0.848,1.0549897075481605,5901.699763549501
0.852,1.0600466180717132,5901.901636130108
0.856,1.060410392514039,5899.997082340751
0.86,1.0565400690185198,5894.9868061088
0.864,1.0487669387067275,5910.112622889178
0.868,1.0372775196337851,5899.539615326516
0.872,1.0224231790572111,5894.736957098304
0.876,1.0052432176775052,5899.786513490863
0.88,0.9878394526387376,5899.182633811176
0.884,0.9732668687733323,5897.689438948985
0.888,0.9648827252458682,5898.959445695102
0.892,0.9653515385270455,5895.105348980575
0.896,0.9756128872443453,5904.169821028153
0.9,0.9941759815997415,5900.009259026855
0.904,1.0170896738113946,5904.868429600453
0.908,1.0387085066338786,5898.852419031346
0.912,1.0530292082018984,5905.451843959953
0.916,1.0551808943493384,5907.249532857388
0.92,1.042670306545292,5896.8899807151765
0.924,1.0160692119449029,5899.230664798251
0.928,0.978944594606515,5894.836115952468
0.932,0.9370256609048829,5900.990323341493
0.936,0.8968448302037866,5896.256966656753
0.94,0.8642678432920915,5896.950955701418
0.944,0.8433484511959445,5895.858719693901
0.948,0.8358018739750138,5888.972727283093
0.952,0.8411600719773697,5895.549594558866
0.956,0.8574394004071481,5888.7355510667385
0.96,0.8819916098988169,5902.153186249484
0.964,0.9121733301948546,5902.886452452975
0.968,0.9455659283686333,5906.100087747376
0.972,0.9797011665188363,5909.628191907964
0.976,1.011565076312742,5904.061556961894
0.98,1.0373744207148319,5894.451174244548
0.984,1.0529898073231616,5892.369816930855
0.988,1.0548828219605997,5904.803393956152
0.992,1.041185579418884,5903.353282767982
0.996,1.0123154112403816,5903.257417634572
1.0,0.9709419770596915,5900.534438184524
1.004,0.9214244506836254,5905.600540570773
1.008,0.8690769214613331,5894.195869636067
1.012,0.8195757796918958,5907.371628988668
1.016,0.7785499713888929,5912.805481884296
1.02,0.7511543732430039,5896.742593571429
1.024,0.7414253419269947,5904.3291926823085
1.028,0.7514304276744336,5903.270136069359
1.032,0.7805048206133257,5895.210771745505
1.036,0.825021493741187,5898.661055149913
1.04,0.878984135739239,5903.346683290399
1.044,0.9353098397737629,5898.867748390577
1.048,0.9873129409898626,5903.494059230891
1.052,1.0298779399409361,5896.614284257731
1.056,1.060041325533182,5898.130882016049
1.06,1.0769453997188072,5887.759599859987
1.064,1.0812947165162947,5898.247275758013
1.068,1.0745969050375697,5904.471408333545
1.072,1.0585659756350168,5896.261012100632
1.076,1.0349636811159082,5894.06494621508
1.08,1.005845118544704,5902.066131762553
1.084,0.9738806523195361,5898.254411512505
1.088,0.9424004187186344,5890.47755837688
1.092,0.915059469033134,5904.473885220335
1.096,0.8952855553464879,5894.494886357634
1.1,0.8857053829866053,5898.207446745583
1.104,0.8876066705247652,5895.358114986735
1.108,0.9004392971319111,5899.272370491326
1.112,0.9215063083881743,5894.558601611336
1.116,0.9461623724170448,5902.8606197928575
1.12,0.9687528680881118,5899.522329442614
1.124,0.9841587365662784,5898.172598611935
1.128,0.9893989585839035,5903.816800119424
1.132,0.9845651476503935,5911.0991017517335
1.136,0.9725840285961126,5891.129940928939
1.14,0.9578787546478505,5894.567181747885
1.144,0.9446002782291165,5912.032597568804
1.148,0.9352948433010904,5903.36015945856
1.152,0.9305329849849134,5901.297617676402
1.156,0.9294369637010215,5906.739692249134
1.16,0.9306099187540542,5903.0710453782885
1.164,0.9328965200219352,5898.610985638384
1.168,0.9356399542813529,5904.763772685913
1.172,0.9384452509623468,5902.305980088056
1.176,0.9407216070149016,5904.778685078627
1.18,0.9413627099620944,5903.869145786185
1.184,0.9388202678202369,5892.64219915464
1.188,0.931572110101863,5899.002529587234
1.192,0.9187240292401385,5899.550019512889
1.196,0.9004198376870175,5892.505027883654
1.2,0.8779200098602651,5902.084379965581
1.204,0.8534423682095159,5899.736137170316
1.208,0.8299109368970172,5904.974007769106
1.212,0.810639734536593,5901.2041944379935
1.216,0.798880235358641,5894.290893307012
1.22,0.7972342836383679,5909.951078192993
1.224,0.8071303290191763,5904.007556606572
1.228,0.8286406685777215,5903.09348785845
1.232,0.8607005892143228,5898.480969561747
1.236,0.9014550367002964,5905.440067752734
1.24,0.948380999319988,5895.510677977622
1.244,0.9981017968723881,5900.421782765187
1.248,1.0461463264302935,5902.790913236516
1.252,1.0870358018686668,5894.458330951839
1.256,1.1149506363059913,5910.165504327203
1.26,1.1249572707912798,5904.369294532207
1.264,1.1145019956633255,5904.505514330738
1.268,1.0846760148834569,5903.3552978327525
1.272,1.0406668907936438,5899.2266620349565
1.276,0.9909513538362981,5895.490615271907
1.28,0.9452411657985624,5901.00135015404
1.284,0.9118048661218349,5904.712133298043
1.288,0.8951604579509277,5908.409907037989
1.292,0.8950016278945075,5899.247461494784
1.296,0.9067138874083169,5900.628758986752
1.3,0.9232749032876635,5897.971663216662
1.304,0.9378771919622656,5896.4835211339005
1.308,0.9463278953138062,5901.017596775367
1.312,0.9483344221941691,5903.133611185082
1.316,0.9472574922195675,5893.0854062138
1.32,0.9485505816581972,5892.95388990715
1.324,0.9575272235554375,5896.457275252073
1.328,0.9771953692234716,5897.82938771373
1.332,1.0068138468619043,5905.269535971583
1.336,1.0416284412143995,5904.529173043164
1.34,1.0738878089411523,5903.852036229381
1.344,1.0948233383092574,5909.725165227473
1.348,1.0970323979455754,5898.494204893164
1.352,1.076674365699368,5905.5910916169805
1.356,1.0349283929004178,5901.141715294334
1.36,0.978246064902077,5902.626948365968
1.364,0.9171854270933099,5897.413260314708
1.368,0.8640397752069928,5899.460055403612
1.372,0.8298730475489412,5900.773782510889
1.376,0.821750187838977,5903.26664348477
1.38,0.8408992520738866,5901.971629275845
1.384,0.8823427082917819,5903.043159469349
1.388,0.9361862860848436,5897.89690505387
1.392,0.9902472338868524,5899.098624345135
1.396,1.0332087490375135,5902.993015236209
1.4,1.0572792720508677,5903.197323435321
1.404,1.0595485145729733,5900.0949647473935
1.408,1.0417697952887914,5896.801957534026
1.412,1.008921024179965,5899.301719656076
1.416,0.9673261012615105,5898.8291082363385
1.42,0.9231538408465662,5906.402918952885
1.424,0.8817476370745365,5894.70998686822
1.428,0.8476875512852701,5904.357226427072
1.432,0.8250671242474975,5889.466235450444
1.436,0.8174099363650221,5905.638274386825
1.44,0.8269590872133796,5906.363043417645
1.444,0.8535740289048206,5898.630015317488
1.448,0.8939021166400836,5897.056287966184
1.452,0.9415481841750731,5898.726553009118
1.456,0.9884983949305284,5906.118174296865
1.46,1.0273305380555853,5904.45412752608
1.464,1.0532660901253055,5905.215622846065
1.468,1.0651717795540996,5887.621967922753
1.472,1.0651203598638208,5893.920360446984
1.476,1.0568113549913405,5897.85238598868
1.48,1.043673127969952,5902.750542610445
1.484,1.0274921106738508,5902.944484762611
1.488,1.0080060673340623,5892.471716892261
1.492,0.9834714370196533,5897.128604971242
1.496,0.9519666770657047,5893.488125702526
1.5,0.912959722115339,5901.632112620782
1.504,0.8684441086417005,5905.050387492065
1.508,0.8230403147590597,5901.31429082025
1.512,0.7829587761211038,5899.428100820254
1.516,0.754263621981322,5892.394411598113
1.52,0.7411010006696219,5902.054619200876
1.524,0.7444942909828829,5889.440727224504
1.528,0.762120394700051,5896.021128350177
1.532,0.7891470449178198,5904.241723439764
1.536,0.8197620977038008,5896.791064171715
1.54,0.8487464957344554,5902.979990932951
1.544,0.8725356319160983,5902.759117029591
1.548,0.8895383909348861,5897.999396836237
1.552,0.8997964341344191,5895.464796422306
1.556,0.904262058555858,5900.289085822122
1.56,0.9040425203951086,5901.10480062225
1.564,0.8999262564384763,5892.057524638282
1.568,0.8923883564632178,5898.6996842507015
1.572,0.8820444250878062,5894.877630320811
1.576,0.8702221524201295,5903.3806077348845
1.58,0.8591592694034335,5897.44390715801
1.584,0.8515257661738524,5907.729689912408
1.588,0.8494255377122397,5901.969353790521
1.592,0.8534241019928739,5896.200533258222
1.596,0.862215914782126,5902.459076654082
1.6,0.8732486175636416,5898.588622486102
1.604,0.8840785633278677,5908.782876967667
1.608,0.8937344777434828,5896.086697504466
1.612,0.9033103978185704,5896.99154853763
1.616,0.9154962397247084,5894.126374715806
1.62,0.9333789500614481,5899.933517109059
1.624,0.9591219596545486,5894.551743977593
1.628,0.9929893087259292,5902.455722340668
1.632,1.0329036615543685,5902.750910518467
1.636,1.0745566766324457,5905.858461490085
1.64,1.1120571772766414,5895.26911862298
1.644,1.1390852023212088,5906.30204411047
1.648,1.1503971307652676,5899.539177112697
1.652,1.1433262684651682,5900.613295608239
1.656,1.118779495675719,5893.227605511139
1.66,1.0812575004897393,5894.08227643904
1.664,1.037706916920687,5896.063046408027
1.668,0.995532917310147,5895.171959335773
1.672,0.9605954250106141,5895.4698124772585
1.676,0.936078363759487,5892.465359757664
1.68,0.9226039192917107,5912.89492977051
1.684,0.9191940813957207,5905.210027825364
1.688,0.9242683718170778,5898.500033689226
1.692,0.936135750767662,5894.199769015563
1.696,0.9530717820464372,5902.761807897557
1.7,0.9734299610223662,5893.5521526424445
1.704,0.9960382676650087,5897.062467273046
1.708,1.0206687859334542,5899.358751350969
1.712,1.0480978807566865,5895.9465053348285
1.716,1.0794289381855056,5884.858628993288
1.72,1.1148543781806237,5909.807763376128
1.724,1.152544184217863,5906.895682716451
1.728,1.1884355554506645,5900.173470618285
1.732,1.2172335338622975,5903.433765171933
1.736,1.234243653887373,5900.242363367768
1.74,1.2371957578846786,5896.565570411964
1.744,1.2271930221693192,5897.319151107566
1.748,1.2083086640610856,5906.473941770157
1.752,1.185986677832984,5900.96934901712
1.756,1.1649562636045268,5889.232186630015
1.76,1.147543121972202,5895.815166876604
1.764,1.1330311607325236,5905.917300566127
1.768,1.1182613864114406,5901.349764577664
1.772,1.0991413291353487,5898.890606448276
1.776,1.0724051200994111,5902.9818336134185
1.78,1.0369657047951426,5908.358303886358
1.784,0.9944576043436797,5900.864642352271
1.788,0.9488977405704343,5893.539645381984
1.792,0.9056755059190472,5897.145656264941
1.796,0.8702356906381736,5894.623631459069
1.8,0.8468038101714496,5897.612211594252
1.804,0.8374182342995944,5896.141997780247
1.808,0.8414812133001055,5904.994728372314
1.812,0.8559755671579352,5904.350244271243
1.816,0.8763356996278918,5897.142983905643
1.82,0.8977727076308942,5898.354951800501
1.824,0.9167319869101634,5909.714501130994
1.828,0.9320801039010916,5897.387859015573
1.832,0.9455531506139034,5902.970718147517
1.836,0.9611044361398003,5899.180772640265
1.84,0.9832058572696586,5900.8032496679
1.844,1.0147086864930037,5899.638848206119
1.848,1.05515411531824,5902.392959608634
1.852,1.1002364803999185,5903.012593619861
1.856,1.14264189063082,5908.111659224942
