时间(s),电压(V),幅值(高频80K)
0.0,1.6708763964748137,5906.888185063333
0.004,1.5877313687172332,5904.512836929771
0.008,1.5080329659682423,5900.94090403754
0.012,1.4359401577389759,5898.377897584365
0.016,1.3752670432976253,5902.962699461924
0.02,1.3288342131669806,5893.955230369112
0.024,1.2979342144752368,5893.519746885576
0.028,1.282050959276054,5901.144983651754
0.032,1.2787456052519612,5897.645423740205
0.036,1.283682817414362,5905.31511294616
0.04,1.29104632663795,5895.751340865947
0.044,1.2946231817831422,5905.57773295417
0.048,1.2894303090741097,5906.791148905422
0.052,1.2732814863870585,5899.349219090058
0.056,1.2476318216339868,5900.827830159594
0.06,1.2173984056833844,5901.127391929764
0.064,1.1897962733978686,5901.521704074605
0.068,1.1723088701697233,5899.127422449361
0.072,1.1700541774733142,5896.582237252791
0.076,1.1833286051681873,5900.145538842989
0.08,1.2066246714667774,5903.712211072584
0.084,1.230152989725008,5904.539405278026
0.088,1.243699399000368,5900.610286279429
0.092,1.2412780966834753,5896.858443215231
0.096,1.2244435649567487,5900.291663948321
0.1,1.202660228964063,5897.716895791562
0.104,1.1904572333394208,5903.209484711645
0.108,1.2024660378625067,5900.250310899168
0.112,1.2481795961815683,5899.035789029255
0.116,1.3282077961487742,5894.62365898922
0.12,1.4331984276824257,5898.821469258776
0.124,1.5457446721442563,5909.961391085836
0.128,1.6446701447963106,5910.526945479655
0.132,1.710310740140889,5898.685706556673
0.136,1.7291831227719077,5898.2998170390165
0.14,1.6968737391215174,5907.477242893841
0.144,1.6187239148281625,5898.565797638724
0.148,1.5084399761279037,5893.854639081304
0.152,1.3850352844523592,5900.982230721619
0.156,1.268760792005174,5904.523049907041
0.16,1.1769849956196747,5902.503230885162
0.164,1.1210576329276496,5889.032677620874
0.168,1.1048153316915166,5908.873310511937
0.172,1.124790767493949,5895.7739103920585
0.176,1.1717446689248874,5899.483727734726
0.18,1.2329599195024075,5906.2328896146055
0.184,1.2947402913164865,5900.660282946709
0.188,1.3446915392370116,5897.572639506557
0.192,1.3735863825119783,5907.49580918625
0.196,1.3768051942964552,5897.720384123462
0.2,1.3553281496979936,5900.031727640376
0.204,1.3159918338824796,5902.769781149213
0.208,1.27048716906685,5906.9254005885405
0.212,1.2327650239202623,5893.278013164891
0.216,1.2151977640595923,5903.675702450457
0.22,1.2246271063859855,5903.909860604423
0.224,1.2597627032410967,5900.458170698307
0.228,1.3109835419560343,5906.246459201699
0.232,1.3626748121980208,5910.086672159045
0.236,1.3973846624039585,5906.613265991995
0.24,1.4006414782429706,5903.811809543084
0.244,1.3651646765447984,5896.584909047257
0.248,1.2933140540173,5901.628679573056
0.252,1.1969960828049808,5895.489437325201
0.256,1.0949526292617453,5900.575283597272
0.26,1.0082389491945556,5897.23606992066
0.264,0.9552901859737291,5900.703741409926
0.268,0.9478970859541406,5902.085152311303
0.272,0.9888212938286656,5902.533374414084
0.276,1.071241053826851,5894.4036241998665
0.28,1.1800222254288832,5889.960399687409
0.284,1.294684474215551,5896.433314664782
0.288,1.3935938513301358,5904.008976088922
0.292,1.4585462139702519,5896.754384132889
0.296,1.4787957396138427,5894.895692064585
0.3,1.4536522279053594,5906.745675749786
0.304,1.3928569537830995,5890.169232041428
0.308,1.3142503875834168,5900.983873019618
0.312,1.239051469270611,5900.129291539975
0.316,1.1861051308229398,5909.119424114672
0.32,1.1669960832395396,5896.401084224791
0.324,1.1835753632966126,5902.91701996827
0.328,1.2284718805350467,5901.345579623822
0.332,1.2880979943976893,5908.261854080585
0.336,1.346908154242633,5898.837241453797
0.34,1.3914841425183624,5901.0727502772
0.344,1.4134490848798444,5895.312475706641
0.348,1.4109061305735195,5904.752004279366
0.352,1.3885128749678544,5896.239617364611
0.356,1.3563024553319163,5897.449709229003
0.36,1.3273303769878362,5897.705077641736
0.364,1.3144740013842695,5901.647260398217
0.368,1.3270900214119798,5907.871963594084
0.372,1.3684198028194703,5904.175594487179
0.376,1.4344841389316554,5902.4010036363325
0.38,1.5147844218774666,5905.167720891996
0.384,1.594611242057696,5899.372252290171
0.388,1.6583898697389456,5895.37937209073
0.392,1.6933377560966285,5891.917452921537
0.396,1.6926471211773049,5905.610790000495
0.4,1.6573821980540406,5890.8738206795815
0.404,1.5964274978990083,5896.281905837847
0.408,1.524270202028807,5905.438466510426
0.412,1.457100737473557,5899.920246400006
0.416,1.408409166938639,5898.062189332696
0.42,1.3855502862533078,5901.110812926621
0.424,1.3884032638815158,5897.523528377042
0.428,1.410403135861453,5905.4978594099575
0.432,1.4412893994999316,5903.640240907078
0.436,1.4703528429072041,5905.124712157993
0.44,1.4890510345515315,5889.54973694225
0.444,1.4924480393514552,5901.596732853414
0.448,1.479498281100428,5896.727877378331
0.452,1.4524698109940084,5900.40763335714
0.456,1.415920611405734,5892.150743105755
0.46,1.3756572110291072,5895.488238711947
0.464,1.337909122566259,5896.787707416742
0.468,1.308637993776814,5903.935338866103
0.472,1.2927741962655814,5903.841545812867
0.476,1.2933720156494597,5905.242439929674
0.48,1.3109709725727487,5912.114374174085
0.484,1.3435072108174724,5889.944305987695
0.488,1.3868482044833,5897.585189750784
0.492,1.4356634793536847,5893.238181993518
0.496,1.4842029817485296,5900.013932032674
0.5,1.5267265642124683,5903.730748800153
0.504,1.5576644880598312,5891.595063407871
0.508,1.5718732011554595,5905.073848303679
0.512,1.5653914963163467,5892.810872186081
0.516,1.5367780175080723,5899.399570864858
0.52,1.4885490722557448,5902.9402356781375
0.524,1.4278628886520357,5894.436906576842
0.528,1.365760503979404,5899.539256297727
0.532,1.314877672110628,5901.295851833031
0.536,1.2862149494197501,5903.2906954611135
0.54,1.2859992581902489,5889.856482588216
0.544,1.3137253536825293,5901.4722940673
0.548,1.3620726016983113,5907.015819516371
0.552,1.4187180982300713,5898.91954898612
0.556,1.469455652719647,5906.869499868828
0.56,1.501705027759022,5896.378715176609
0.5640000000000001,1.5074443232413375,5901.7332114546725
0.5680000000000001,1.4847731497397108,5897.782893355857
0.5720000000000001,1.4377408774785672,5895.533750481332
0.5760000000000001,1.3746864283679714,5901.000607579827
0.58,1.3058679350860838,5901.323765678063
0.584,1.2413070376637418,5896.815880654143
0.588,1.1894260384105235,5905.808885453223
0.592,1.1564436126619357,5893.054086026443
0.596,1.1460867760723246,5897.338961041657
0.6,1.1592624450416553,5895.610361631351
0.604,1.1937075860207023,5900.045699334703
0.608,1.2439066833743737,5901.954718900746
0.612,1.3015926701059155,5898.662894564361
0.616,1.3570155281004213,5902.143140361638
0.62,1.400893470833052,5898.387801695779
0.624,1.4265559670224193,5898.5513466653
0.628,1.4314737270114195,5897.011723525107
0.632,1.41749132496489,5900.600096206145
0.636,1.3896624177192844,5910.468865741283
0.64,1.3542591086568259,5907.521939816859
0.644,1.3168639707767686,5901.742462995638
0.648,1.2812961045791804,5897.988924176939
0.652,1.2496032780671684,5902.226318883508
0.656,1.2227832883371665,5897.124981326076
0.66,1.2016126461603973,5902.471681613532
0.664,1.18710584461809,5895.201587528315
0.668,1.180523436402842,5899.7421399546965
0.672,1.18311839803697,5897.210485640769
0.676,1.1957642275609948,5913.836996533143
0.68,1.2184551713231224,5900.434296084401
0.684,1.2497433378246756,5899.788224211441
0.6880000000000001,1.286437636794869,5900.268501419656
0.6920000000000001,1.3239370049067216,5898.790788088329
0.6960000000000001,1.3572133031875806,5896.688359233672
0.7000000000000001,1.3819911500799327,5901.831611428872
0.704,1.3955305421416393,5907.012781208701
0.708,1.396741585688726,5900.48917601178
0.712,1.3858807070335184,5896.156318162629
0.716,1.3643506360695896,5906.048558590408
0.72,1.334909497693245,5899.8096638161205
0.724,1.3020686808989141,5891.995194214304
0.728,1.2720846509482193,5898.220743156293
0.732,1.2520725261161954,5893.985593508941
0.736,1.248319664804331,5903.6775285287
0.74,1.2644248221509125,5896.3519399012885
0.744,1.3000170828405426,5899.054651467364
0.748,1.350487871177578,5896.775580733985
0.752,1.4077637892505106,5893.223244023281
0.756,1.4619627532541037,5897.928976685661
0.76,1.5036469967389705,5901.80004422078
0.764,1.5260607345715613,5895.081961075085
0.768,1.5264967317955402,5895.397826804618
0.772,1.5062547218383902,5892.3409979508215
0.776,1.4694281199580976,5895.682613449631
0.78,1.4213442977931916,5895.6575812511965
0.784,1.3674290049542475,5891.396965390165
0.788,1.3127010151565472,5894.9224675049445
0.792,1.2615722598706913,5891.507998926241
0.796,1.2175515209004102,5900.151636337496
0.8,1.1827509279915813,5899.635123814965
0.804,1.1574045375811135,5895.497580279721
0.808,1.139716733486635,5900.725419712247
0.812,1.1263024954942147,5899.633535052857
0.8160000000000001,1.1133022289925818,5900.608540184886
0.8200000000000001,1.0979204929517774,5901.242145887404
0.8240000000000001,1.0797675797628186,5899.740007366783
0.8280000000000001,1.0613200134230831,5908.1718238356425
0.8320000000000001,1.0472683324573708,5896.461041496127
0.836,1.043156604452538,5902.145803305243
0.84,1.053940875401931,5898.698263869647
0.844,1.0827977680041685,5901.943988712557
0.848,1.1301935295286938,5895.466536932801
0.852,1.193232790466905,5903.584431114984
0.856,1.2654691659625774,5894.177422757986
0.86,1.33738223470605,5900.205535427664
0.864,1.3975810812186698,5906.263362030927
0.868,1.4346324982601906,5893.641300274047
0.872,1.4393084765766708,5899.64632174243
0.876,1.4069346398324376,5902.460169277696
0.88,1.339339558379785,5895.991650921235
0.884,1.2457526463271458,5900.438937412287
0.888,1.1420623346284635,5904.949381127116
0.892,1.0482104125425102,5899.587270796051
0.896,0.9840499627223424,5899.281308595962
0.9,0.9645369790804224,5903.839391512397
0.904,0.9955280681788743,5891.274602580605
0.908,1.0715774595341645,5892.160913394481
0.912,1.176743221487028,5904.409982624942
0.916,1.2884705682631155,5899.412106556736
0.92,1.3834663021028566,5902.983253593268
0.924,1.4436734533207842,5905.108750986949
0.928,1.4604025757653278,5903.563180520075
0.932,1.4354150336598848,5895.022005056882
0.936,1.3789488119612399,5895.562352272427
0.94,1.3057932593616075,5898.033909336416
0.944,1.2310813828018237,5898.3655228719
0.948,1.167238326397009,5896.8616571313005
0.952,1.1226471348545646,5903.630430132559
0.956,1.1016577543367243,5898.845647074371
0.96,1.1052022801765538,5896.493845661243
0.964,1.1315239847647187,5890.80318789184
0.968,1.176862579285816,5898.749490521583
0.972,1.236028788552284,5895.236708901337
0.976,1.3028247560164161,5901.832782396768
0.98,1.3704330091566894,5892.606523177688
0.984,1.432048229639043,5897.043541428066
0.988,1.481886527194067,5897.912450679987
0.992,1.5162929359155644,5903.049349190829
0.996,1.534348132113477,5902.968590564704
1.0,1.5375285316695793,5901.323283127353
1.004,1.5285393211235434,5903.377810859247
1.008,1.509931257005743,5902.950143546499
1.012,1.4831514488313726,5907.311603665532
1.016,1.4483437508547286,5900.993420530466
1.02,1.4048624302117825,5899.878446432445
1.024,1.3523311156780338,5900.679817157705
1.028,1.2920258807893314,5899.178695441389
1.032,1.2281082639528116,5902.396759361901
1.036,1.1679232286343546,5907.109669220179
1.04,1.1207223388122063,5901.769390287764
1.044,1.0949368164570452,5907.547794774027
1.048,1.0950195222964652,5902.160824717343
1.052,1.1192585227213723,5904.06401831212
1.056,1.1596022289401406,5895.900505182665
1.06,1.2036775326099338,5899.256499837597
1.064,1.2382904610516097,5901.580752423019
1.068,1.2531604110651406,5901.510001344552
1.072,1.2436534488867284,5905.798221319258
1.076,1.2117934558960783,5898.16133334529
1.08,1.1654797299138688,5908.332407898174
1.084,1.1162332622040814,5896.559614185957
1.088,1.0759765118910949,5904.15083485258
1.092,1.0536508252824244,5897.309808997116
1.096,1.0527913367404762,5896.392207313794
1.1,1.070988372470332,5891.084502874066
1.104,1.1013648651195087,5904.841335128245
1.108,1.135326084486263,5892.145193665672
1.112,1.1653897055347247,5886.393581778209
1.116,1.187015580662509,5900.017965828922
1.12,1.1989650985066223,5901.471420629857
1.124,1.2025139757858139,5896.031988089497
1.128,1.2002867658111702,5904.676097482447
1.132,1.1953392143802102,5895.916037222652
1.136,1.1906559565482218,5897.039041615916
1.14,1.188839780786855,5893.759325637091
1.144,1.1916626364997056,5890.347090986007
1.148,1.1993714800730877,5895.169034506358
1.152,1.2100197921461906,5898.923818365186
1.156,1.2193095850474014,5901.297936709152
1.16,1.2212905809438555,5892.649396346254
1.164,1.2098818965977556,5902.975517607062
1.168,1.180825903558,5900.304022505965
1.172,1.1335068000479958,5898.687050934318
1.176,1.0720419363799902,5896.262197993728
1.18,1.0051665603642113,5891.842603977674
1.184,0.9447522471484415,5901.794318931447
1.188,0.9032918000745536,5901.425045489539
1.192,0.8910837435569495,5905.077250168752
1.196,0.9138768723008388,5903.064595500523
1.2,0.9714236720887955,5897.678900470642
1.204,1.057093179258011,5903.065250449193
1.208,1.158653802731178,5894.502951848265
1.212,1.2603206068003459,5902.566131322337
1.216,1.3458076028242674,5907.361538653605
1.22,1.4016186995867943,5897.940471716503
1.224,1.4196894865068481,5904.328690504407
1.228,1.3988441685858013,5896.436979093431
1.232,1.3449276533139858,5903.001204290868
1.236,1.2696210498789295,5904.412706723667
1.24,1.188020760225742,5893.651841021534
1.244,1.115324579580823,5905.111170634303
1.248,1.0633501173770894,5896.910221477247
1.252,1.0378396088722976,5908.181504293661
1.256,1.03746443861,5899.85232963754
1.26,1.05506899555527,5896.402810335401
1.264,1.0808814854842776,5903.307763730519
1.268,1.1064320080573347,5903.122271234848
1.272,1.1274656499738087,5897.758525396654
1.276,1.1446399116656192,5898.08580673505
1.28,1.1619027097265051,5897.474266945305
1.284,1.1834896391825611,5907.198766496829
1.288,1.2110018752345166,5907.601796214852
1.292,1.2418523789910625,5897.0253708692135
1.296,1.2696324934255667,5904.068173058215
1.3,1.2861245970664206,5897.864366760065
1.304,1.284169848272972,5896.141273080328
1.308,1.2603806213559328,5900.992474289812
1.312,1.216698853667024,5899.206390148855
1.316,1.1602102366365412,5903.157318014841
1.32,1.101364857712743,5895.399133100552
1.324,1.0513176567750409,5906.039735350233
1.328,1.0191784209453059,5909.651420725297
1.332,1.0098058378375718,5907.096135754394
1.336,1.0226663516911418,5893.251169582885
1.34,1.0520937181190193,5902.443743989438
1.344,1.088896984006172,5908.560507104776
1.348,1.1228454778162602,5896.63589404133
1.352,1.1453275314339535,5899.750887712862
1.356,1.1514577305438318,5898.023775098173
1.36,1.1410571522101058,5903.160874207534
1.364,1.1182402501871627,5908.303734578217
1.368,1.0897610599577827,5898.523049999096
1.372,1.0627035164294958,5894.537460008046
1.376,1.0423619194434286,5901.438125544086
1.38,1.0310334569872657,5902.630945247658
1.384,1.027978900377992,5898.430324895325
1.388,1.0303256105641978,5907.306245726296
1.392,1.034427066580957,5892.108714147464
1.396,1.0371572242193074,5899.359850936934
1.4,1.036741167678177,5892.231746701756
1.404,1.0329629197114514,5906.475618329124
1.408,1.0268589053150625,5903.741073721681
1.412,1.020137276808012,5906.149710787934
1.416,1.0145097245198502,5906.207772213922
1.42,1.0110797545420096,5900.95738279805
1.424,1.0100174643096966,5908.3551666285175
1.428,1.0107576947545143,5896.198155542228
1.432,1.0126932941028461,5903.232474276968
1.436,1.0159476234152007,5899.116133350369
1.44,1.0216358535215326,5905.867743521336
1.444,1.0312690542389942,5903.032003760147
1.448,1.045524857603795,5907.2512552925655
1.452,1.06314601993705,5897.765444333033
1.456,1.0808226195207369,5906.914879853494
1.46,1.094387837497626,5902.731015541281
1.464,1.1007853025002718,5902.828837805551
1.468,1.0996692645307484,5902.39206286878
1.472,1.0936640671715248,5897.823390010269
1.476,1.0871349233352523,5904.833024796429
1.48,1.0841780544715283,5900.119492319026
1.484,1.0868493113056275,5898.439441526502
1.488,1.0943847626525265,5906.98327188621
1.492,1.1036547111623096,5895.231837826656
1.496,1.1105579507578622,5905.8583499847855
1.5,1.1116461375626079,5908.936953829587
1.504,1.105231787063004,5891.377025479857
1.508,1.0916226864436136,5911.307099973221
1.512,1.0725281268733728,5897.632656024374
1.516,1.0498525924631255,5903.465444586644
1.52,1.024329638193909,5901.518259558659
1.524,0.9948429456938856,5900.772051670015
1.528,0.9592301676447516,5894.290442020465
1.532,0.9164548764763016,5907.174019147635
1.536,0.8688881300834335,5904.898401682592
1.54,0.8231044727953268,5900.980085491516
1.544,0.7883816326824453,5905.690010226215
1.548,0.7734336134605574,5913.511679125159
1.552,0.7829502387202604,5908.559587903038
1.556,0.8156339878441425,5911.8100690696565
1.56,0.8645762452434383,5904.711200842112
1.564,0.9196055107110973,5903.993797793283
1.568,0.970431998200428,5905.274642816784
1.572,1.0093504214912408,5906.675835445519
1.576,1.0327510022411148,5898.388205087297
1.58,1.0412717079004006,5902.72132654953
1.584,1.0387842118463084,5906.025400605912
1.588,1.0305774697107732,5902.69611970958
1.592,1.0212763904747195,5905.134057452961
1.596,1.0132045582627578,5907.29086513253
1.6,1.0058471710675032,5899.785897286247
1.604,0.9966407433778299,5892.273054148921
1.608,0.982661914857366,5899.463370198876
1.612,0.9623258660778339,5901.366095449464
1.616,0.9362933235275138,5900.732464836302
1.62,0.9073669029894992,5904.267725492978
1.624,0.87975745150118,5903.964329211779
1.628,0.8582462262701898,5911.306876055182
1.632,0.8474466043305559,5909.0952203328925
1.636,0.8510296896086862,5906.077500070633
1.64,0.8708278226186911,5896.4920103635
1.644,0.9060788136033237,5894.568773160181
1.648,0.953272683230646,5900.812186052496
1.652,1.0068346047948533,5911.493162462996
1.656,1.060398639143617,5907.440302648258
1.66,1.1081072120818587,5897.582882075543
1.664,1.1454639016314456,5899.3751205799645
1.668,1.1696625157649574,5913.594065304844
1.672,1.1796489943137587,5901.409609111446
1.676,1.176167136798997,5900.984585815946
1.68,1.16176620816054,5901.564101444352
1.684,1.1405277558529905,5906.964757117827
1.688,1.117327998585921,5898.535840911354
1.692,1.0967212921734903,5900.650239986275
1.696,1.0817772527357874,5913.822597764063
1.7,1.0732948553047654,5901.077508547804
1.704,1.0697402618865477,5903.134280441116
1.708,1.067993007287443,5906.678464315331
1.712,1.0645802310338397,5906.727156401108
1.716,1.0567830100475493,5897.482036416492
1.72,1.0430965404652108,5908.566813023739
1.724,1.0229763385297321,5897.492270650736
1.728,0.9962343620226324,5905.306462191207
1.732,0.9625614721892792,5899.37165769297
1.736,0.9215036387229182,5897.783638338687
1.74,0.8730022131025797,5908.643063829955
1.744,0.8183221483265409,5901.596696122631
1.748,0.7608378295759775,5904.442559447263
1.752,0.7060366765518025,5900.069941116943
1.756,0.6604942958865282,5908.767796431174
1.76,0.6301851460656023,5910.079972011488
1.764,0.6188046117089896,5900.297167224577
1.768,0.62668218627635,5908.784424407497
1.772,0.6506030129595843,5900.402259919524
1.776,0.6845465089937521,5898.179750540367
1.78,0.7210004938106359,5897.773365377653
1.784,0.7523089193146324,5904.229070461101
1.788,0.7716933270573153,5910.657030890372
1.792,0.7740349622234654,5907.344530088952
1.796,0.7567621013737064,5904.977439816301
1.8,0.720908697307549,5907.501094695716
1.804,0.6718042576452062,5900.583165586164
1.808,0.6186001718802352,5898.931021958804
1.812,0.5723391244804006,5899.525487939019
1.816,0.5431162094027309,5912.23570634641
1.82,0.5373280729143172,5908.779769914017
1.824,0.5558867807846305,5907.210088264101
1.828,0.5939548330463604,5900.378857173596
1.832,0.6424178314155785,5909.562807062589
1.836,0.6907988927083191,5901.757610285369
1.84,0.7306732138031784,5913.7410119665965
1.844,0.7582403946473608,5899.7432781743855
1.848,0.7749112986376034,5896.578281452888
1.852,0.7856367142939272,5911.736097918983
1.856,0.7958614111668629,5902.514799612931
1.86,0.8086558631119204,5901.757861744632
