时间(s),电压(V),幅值(高频80K)
0.0,0.9871625054127775,5901.401676123262
0.004,0.922790165408428,5893.463927932419
0.008,0.8730740268102037,5895.863732346926
0.012,0.849452671706477,5895.270574321878
0.016,0.8575838638852576,5904.446477217243
0.02,0.8955520615471202,5900.830585991943
0.024,0.9541150387032927,5905.11139757527
0.028,1.0193195107873472,5905.963006949333
0.032,1.076618477924005,5896.639342979964
0.036,1.1148914366635292,5900.569010159133
0.04,1.1290016772600697,5895.404415842971
0.044,1.1203315741385387,5900.639578149702
0.048,1.095465013652366,5906.602293129662
0.052,1.06361254463442,5903.767274691011
0.056,1.0336085257342793,5892.011948928467
0.06,1.0113703712548148,5897.426084743847
0.064,0.9985070072518513,5898.812698842329
0.068,0.9923511246163864,5897.73778126137
0.072,0.987280536225417,5897.234155857988
0.076,0.9769026274681618,5901.59055471976
0.08,0.9564632975396775,5896.418606056285
0.084,0.9247390810383815,5903.184582846568
0.088,0.8848038512038275,5900.818452756583
0.092,0.8434216520994535,5897.704281348584
0.096,0.8092474878017077,5901.997056256891
0.1,0.7904049723900592,5908.62216746202
0.104,0.7922627527812378,5894.546147580014
0.108,0.8161567746675249,5911.34157259937
0.112,0.8593229381197742,5896.755523888702
0.116,0.9157167600498317,5892.128543468209
0.12,0.9771405279689476,5903.314452742954
0.124,1.0343014038735117,5894.121018036992
0.128,1.0778348251831058,5901.333864034179
0.132,1.0995676722360792,5907.296099566357
0.136,1.0941575756756627,5897.408660340032
0.14,1.060831684192666,5900.549766723765
0.144,1.004544199108778,5901.910887306589
0.148,0.9357564799635094,5892.1720804981
0.152,0.8684140157861364,5895.493040554526
0.156,0.81651148394612,5901.81917922886
0.16,0.7904581694730581,5886.877701215554
0.164,0.7946674780152563,5896.9240150566975
0.168,0.8271688571415365,5893.393582407342
0.172,0.8810127976661913,5904.684041448551
0.176,0.9465518294540254,5905.863868772097
0.18,1.013691922906855,5899.047062404401
0.184,1.073604018931413,5898.643542995588
0.188,1.1196825527137326,5892.029860839365
0.192,1.147714444626332,5892.8408074286
0.196,1.155539440939397,5907.423156679707
0.2,1.1428196142783327,5897.900601534512
0.204,1.1113836504962114,5898.374357959685
0.208,1.06589818154964,5897.2435036802935
0.212,1.014041462334272,5899.192500105242
0.216,0.965531457576853,5903.863115416912
0.22,0.9300833776078108,5903.2183299869375
0.224,0.9150121538478986,5907.741524404192
0.228,0.9234071394643055,5898.548802968955
0.232,0.9535925016680694,5895.957896675048
0.236,1.0000501651766767,5899.963719988708
0.24,1.0553145151623449,5899.4422661704175
0.244,1.1119144445001565,5906.607772897576
0.248,1.1635605309663952,5893.741911923496
0.252,1.2053818052187868,5900.35072717067
0.256,1.2336683616400765,5908.421257925891
0.26,1.2458179235190827,5893.974558046002
0.264,1.240834948593997,5904.63190778927
0.268,1.2200462825064466,5908.053913539042
0.272,1.1872728808828827,5895.083586408423
0.276,1.147941005036909,5906.493118075089
0.28,1.107340423933224,5893.275893002362
0.284,1.0688730235706818,5894.581041730121
0.288,1.0332213768803704,5898.146123062071
0.292,0.998851736473304,5894.82875960412
0.296,0.9635183241197773,5910.42239989451
0.3,0.9259514519800623,5902.802324379394
0.304,0.8869316146813012,5901.645632263523
0.308,0.849346673066544,5906.599629653805
0.312,0.817317009893106,5894.977646140786
0.316,0.7948525500409507,5894.284300196744
0.32,0.784651464738741,5894.403033095285
0.324,0.7874775085010911,5886.928785128601
0.328,0.8021649642327107,5905.861975787914
0.332,0.826001096411211,5904.92749477763
0.336,0.8552141663838229,5901.555209215641
0.34,0.8854551696860196,5892.394702973237
0.344,0.9123216859255848,5909.269360675098
0.348,0.9320351470638827,5898.153081344902
0.352,0.9423130798800016,5904.895600298291
0.356,0.9432788442835199,5899.491221719657
0.36,0.9379952752391814,5906.442465411464
0.364,0.9320771786269132,5903.954673653728
0.368,0.9320854891002203,5907.911097834747
0.372,0.9430737504081753,5895.7560289738185
0.376,0.9663133972879339,5901.639450803839
0.38,0.9983006389961652,5900.634785435835
0.384,1.0315587615451263,5895.907034621402
0.388,1.0569249087812658,5912.757946982925
0.392,1.0664154481083234,5891.211806626804
0.396,1.055620401235049,5906.873725924469
0.4,1.0248886839849898,5904.382802850379
0.404,0.9791282460034992,5893.116297201656
0.408,0.9264945486859937,5898.310103073999
0.412,0.8763666826344673,5894.387964080238
0.416,0.837023026043539,5895.211472012978
0.42,0.8136100984652027,5908.300228944201
0.424,0.807142212405363,5895.469395579714
0.428,0.8149376226735747,5896.883365403838
0.432,0.8321864035148745,5893.467891386144
0.436,0.85385912573011,5902.602027557932
0.44,0.87624896768042,5903.979275147538
0.444,0.8978527259737679,5899.05879014274
0.448,0.9196015996298987,5891.141226891646
0.452,0.9444937753538034,5893.8072905868885
0.456,0.976642994209715,5903.909442079129
0.46,1.019853182407884,5905.160467932395
0.464,1.0760355486822015,5903.575986473023
0.468,1.1439124906862816,5897.979788331877
0.472,1.218409038307285,5902.397898256002
0.476,1.291006797218052,5900.085629046494
0.48,1.3511675363333506,5899.24603560859
0.484,1.3886128943852771,5900.860158688661
0.488,1.3958188801195617,5903.887442056639
0.492,1.3698667697022582,5899.328097513397
0.496,1.3130178484404742,5895.459760246338
0.5,1.23195068397851,5905.236384208001
0.504,1.1361858927181465,5896.955628508404
0.508,1.036447822626189,5900.872817169873
0.512,0.9434097532564831,5891.292810418064
0.516,0.8667188191593985,5897.183943662293
0.52,0.8139397551330121,5898.65000515734
0.524,0.789315863780245,5900.754645515068
0.528,0.7927007419883761,5895.771465347418
0.532,0.8192606367327487,5904.666552048389
0.536,0.8604379539888883,5898.037430109778
0.54,0.9061618261146568,5894.859835745127
0.544,0.947549689962976,5903.974838634764
0.548,0.9789343092197407,5909.228894822237
0.552,0.9984278536513976,5892.267315101054
0.556,1.00708442092802,5898.270069062048
0.56,1.0073324483881463,5900.536493113089
0.5640000000000001,1.0014331860867598,5895.716598375667
0.5680000000000001,0.9905084759855115,5905.552878516741
0.5720000000000001,0.9744170452544857,5902.75389505006
0.5760000000000001,0.9524897595545914,5901.897878878721
0.58,0.9248451123792022,5904.4337260985085
0.584,0.8937266919734621,5895.640022764235
0.588,0.8641398475530956,5890.607153524795
0.592,0.8431759655807671,5898.923890977311
0.596,0.8378952037857299,5897.405921991351
0.6,0.8523827605719204,5896.647661188113
0.604,0.8852268566118053,5901.0345914144455
0.608,0.9287177193144199,5902.773739481732
0.612,0.970386980383398,5893.073676288879
0.616,0.9964807409460888,5907.757066815
0.62,0.9961475382446474,5905.407018644034
0.624,0.9648261025623461,5897.217080583034
0.628,0.9056088205498203,5900.3764651121055
0.632,0.8281933653799054,5900.478008827265
0.636,0.7460657282338441,5895.491970309769
0.64,0.6731485573299673,5895.459292584535
0.644,0.6209821483230291,5894.677377506761
0.648,0.5969376178112956,5902.802418749711
0.652,0.6035239944039199,5899.865400850066
0.656,0.6386573950912897,5902.604604303423
0.66,0.6966280768864666,5908.165034249585
0.664,0.7693896323028756,5898.369993450328
0.668,0.8478375240283655,5906.157250815988
0.672,0.9229475823978667,5895.28737135574
0.676,0.9868251227855026,5899.418020492499
0.68,1.0337393180101222,5896.246758671708
0.684,1.061101134138195,5893.263430815985
0.6880000000000001,1.070139819500814,5892.200211530615
0.6920000000000001,1.0658436929102317,5901.253836819175
0.6960000000000001,1.0557745573217658,5898.634993776056
0.7000000000000001,1.0478001873996508,5898.894507745983
0.704,1.0474475394039588,5897.957055330857
0.708,1.0560128663994857,5904.439162528058
0.712,1.0703887506019223,5903.383721738633
0.716,1.0847659173343565,5905.184085341489
0.72,1.0933801066436244,5901.080234040311
0.724,1.092962815926203,5896.190754343451
0.728,1.0838596262661992,5896.741262288603
0.732,1.06958863095451,5898.784931332529
0.736,1.0553109383675117,5895.658672859085
0.74,1.0459471194045247,5901.701992483956
0.744,1.044566913178471,5900.892027441475
0.748,1.0514243047390288,5898.164907893612
0.752,1.0638046637590086,5892.270044559065
0.756,1.0767575133483256,5899.0926215367135
0.76,1.084670250612116,5903.590959872013
0.764,1.0833362430823779,5900.587413629386
0.768,1.071766672739492,5900.715639187062
0.772,1.0528333466727033,5902.266415687441
0.776,1.0322478925204688,5898.035109627609
0.78,1.0162861651950759,5910.3101326756805
0.784,1.0093997211671817,5900.124851566179
0.788,1.0128081395293744,5897.746106269206
0.792,1.0244641093166593,5904.440070509414
0.796,1.0400665726237723,5904.490501884013
0.8,1.0544794181717585,5897.668789155707
0.804,1.0629961329977309,5892.782187992351
0.808,1.0622077118266344,5903.293084767926
0.812,1.0505324588058311,5900.729892601658
0.8160000000000001,1.0285283964470797,5893.009884490064
0.8200000000000001,0.9989757350168824,5900.751088185423
0.8240000000000001,0.9666252324095208,5904.128113436364
0.8280000000000001,0.9375441748284541,5902.809357856338
0.8320000000000001,0.9180541975235873,5899.235727902985
0.836,0.9133276112707824,5905.095779836665
0.84,0.9258984751603567,5899.158191620301
0.844,0.9545996980276701,5911.490886846196
0.848,0.9944727708381776,5898.655147079527
0.852,1.037862485321461,5899.830502198287
0.856,1.0764202496270392,5896.640953197881
0.86,1.1033810277218201,5900.892237198551
0.864,1.1153464384754812,5892.204220333513
0.868,1.1129382193391115,5895.762217973759
0.872,1.1001090926572055,5893.7735207722535
0.876,1.0824514486542953,5902.737315576059
0.88,1.0652161288244564,5889.798234944363
0.884,1.0517650882656555,5901.40077650192
0.888,1.0429112575615145,5906.305416577069
0.892,1.037221970912195,5903.766243446022
0.896,1.0320131456011343,5901.541255481307
0.9,1.02456483381632,5903.112600249934
0.904,1.013124006104318,5896.619267648673
0.908,0.9974494920782304,5891.949710854447
0.912,0.9788593252376772,5892.443940508288
0.916,0.9599166276319802,5898.621032775567
0.92,0.9439786833165227,5900.832728668104
0.924,0.9347235979732816,5897.112068290098
0.928,0.9355471446360714,5899.007863597308
0.932,0.9486843271678986,5906.802434175713
0.936,0.9741669515907908,5897.530266197044
0.94,1.0090536811769002,5908.605114379
0.944,1.0474525891243849,5901.556292109083
0.948,1.0815678139714666,5900.917743906945
0.952,1.103516020726298,5903.440842428201
0.956,1.107336187380332,5897.570852707926
0.96,1.0906313496005033,5905.365115757423
0.964,1.0554707662847285,5900.145165869196
0.968,1.0083372719407322,5896.0183670753695
0.972,0.9590081021355275,5907.193596173951
0.976,0.9184220699404848,5894.028830215977
0.98,0.8959226194992399,5893.717290882837
0.984,0.8966885513316392,5898.518398987511
0.988,0.9203141237753194,5906.725779662299
0.992,0.9611017731346798,5899.220383712692
0.996,1.0098663593260266,5900.218758941648
1.0,1.056415430928752,5900.495036467484
1.004,1.0917542710608759,5898.165065866207
1.008,1.1094796447668658,5902.197974280433
1.012,1.1063923437455994,5890.493333953579
1.016,1.0826274806608192,5889.473700449915
1.02,1.04150110733469,5899.644876584234
1.024,0.9890871005244551,5893.870506529991
1.028,0.9334747627106883,5903.853806322255
1.032,0.8836719914583542,5895.43939258519
1.036,0.8481542443370044,5902.059291432076
1.04,0.8331977521044007,5905.458101394124
1.044,0.8414108727698018,5896.61176551387
1.048,0.8710669851977534,5899.004646595755
1.052,0.9166503071204056,5899.2677306034575
1.056,0.9704700400902809,5894.712823916314
1.06,1.0246513349651765,5895.930940777565
1.064,1.072672534316428,5904.1093184492765
1.068,1.109992374257237,5899.289480507663
1.072,1.1339176594503049,5904.674870736306
1.076,1.1432457358526364,5903.322978313414
1.08,1.1381616818256535,5903.689008313255
1.084,1.120533867909024,5902.946267966337
1.088,1.0943519665945043,5896.389687813214
1.092,1.065736757070717,5903.403129658025
1.096,1.0419820737310141,5899.597754209347
1.1,1.0296529851659177,5893.406997894387
1.104,1.0325106687645507,5901.8359291529705
1.108,1.0502774628759843,5897.6057772978
1.112,1.078769390911805,5895.059041854262
1.116,1.1111814226193317,5895.708441678649
1.12,1.1398698050882348,5887.950551818287
1.124,1.1579748095487452,5909.748809292075
1.128,1.1605262609375544,5899.311175352338
1.132,1.1450759281460832,5900.138455637157
1.136,1.1121220355855774,5901.970003546984
1.14,1.06540547054476,5913.316819486378
1.144,1.011756652953088,5898.346875433427
1.148,0.9600758300719454,5898.627907933902
1.152,0.9194495835454974,5898.018642454975
1.156,0.8969656358865649,5900.087961725502
1.16,0.8959957964981957,5901.537930896076
1.164,0.9154771497789858,5897.934675478495
1.168,0.9502844024968027,5891.615163827055
1.172,0.9924173763947551,5891.800256952052
1.176,1.0325586421133879,5901.840945184471
1.18,1.061619026689603,5899.239502162075
1.184,1.0721114701499554,5905.013262054306
1.188,1.0593895608974477,5898.655154999919
1.192,1.0227943706854137,5900.97651777278
1.196,0.9665819263628183,5897.317658249898
1.2,0.9002436862030074,5897.753840240335
1.204,0.8375948493113052,5905.251887726384
1.208,0.7941073002400756,5899.642406649271
1.212,0.7827256138525853,5897.26249790653
1.216,0.8094954822380123,5899.849771774243
1.22,0.8708577240937735,5904.880762662126
1.224,0.9539227517471298,5900.082516210939
1.228,1.039812712398592,5903.185215987615
1.232,1.1089613105661398,5903.904175256013
1.236,1.146561565608494,5909.02165245073
1.24,1.1463035526172476,5891.247415229821
1.244,1.1111762981152464,5893.240863899838
1.248,1.051288939665257,5902.855111467598
1.252,0.9798989216827498,5906.196020829578
1.256,0.9094024372447956,5886.127062466769
1.26,0.8486373437924004,5902.294397848027
1.264,0.8019163136834879,5894.691996707084
1.268,0.7694635680135585,5905.415530619654
1.272,0.7487068105590537,5909.838007139036
1.276,0.7359969955375967,5903.274894800605
1.28,0.7283996546831409,5900.16665945052
1.284,0.7250781427847895,5905.895936833937
1.288,0.7277341704012624,5898.921373473898
1.292,0.739836195650208,5902.37842714166
1.296,0.764844770538422,5903.190695237395
1.3,0.804079064267229,5902.809852727116
1.304,0.8550910880073417,5894.233912996862
1.308,0.9113008724497873,5899.074810871188
1.312,0.963166377040275,5896.483482945296
1.316,1.0005261364575972,5903.021027325687
1.32,1.015319701527763,5903.946452081944
1.324,1.0038767185610245,5902.480304756776
1.328,0.9682513966552428,5898.179659063948
1.332,0.9163365172477143,5901.451415615943
1.336,0.8605915424840191,5902.378290208512
1.34,0.8153964953572134,5898.386010072034
1.344,0.7934799705545296,5905.392758915461
1.348,0.8023671503662471,5905.738060352006
1.352,0.8420075001796083,5900.830784826614
1.356,0.9044897476444282,5905.600118128266
1.36,0.976069234574198,5903.883646674941
1.364,1.0408754582918749,5908.566187817544
1.368,1.0850348226766302,5900.368265783077
1.372,1.0998509285506342,5903.674204599397
1.376,1.0831869685406494,5897.858912303138
1.38,1.0390215500275528,5897.205988238245
1.384,0.9757878894649858,5905.222423524254
1.388,0.9042058429032735,5897.571261220388
1.392,0.8350510381813036,5902.997920626231
1.396,0.7771087403805427,5894.358065522289
1.4,0.7355940774348361,5893.622924636997
1.404,0.7114054291063914,5900.842332721357
1.408,0.7014801903259343,5891.3123077591545
1.412,0.700187328560331,5899.544366375721
1.416,0.7013033283538959,5906.592237301567
1.42,0.6999279442080643,5901.543439095991
1.424,0.6937714956444939,5901.939753063858
1.428,0.683483996811563,5902.682907909595
1.432,0.6720154439845796,5899.133108780671
1.436,0.6633348491433431,5898.570563977612
1.44,0.6610534941549816,5894.963252210652
1.444,0.6674679249402318,5902.830995770739
1.448,0.6832918819284478,5904.311642362342
1.452,0.7080315288248389,5903.045698180026
1.456,0.7407047495532052,5901.04142443622
1.46,0.7804911134615998,5909.511938369858
1.464,0.8269827018151581,5901.834049173018
1.468,0.8799597319803057,5899.844686252724
1.472,0.9388483304766441,5899.314578646725
1.476,1.0020578912038047,5909.390760227601
1.48,1.0663447482515718,5896.618821123651
1.484,1.126428380790583,5914.3988836968365
1.488,1.1752262228601775,5901.6686111874205
1.492,1.204953348793633,5894.125087780803
1.496,1.208885471672227,5898.575031451093
1.5,1.1831772293347538,5906.682929824509
1.504,1.1281191830928687,5905.714767740255
1.508,1.0485196470479092,5904.591321746262
1.512,0.9531830499244952,5896.71881716618
1.516,0.85359105882494,5898.111015268691
1.52,0.7619667993668191,5895.552902058474
1.524,0.6890058722295497,5901.719276763958
1.528,0.6416845813658529,5910.185781732326
1.532,0.621647870131939,5890.843426679485
1.536,0.6246955897891009,5896.42911260247
1.54,0.6417696820101411,5906.02289371178
1.544,0.6614673587122398,5902.940202547761
1.548,0.6734697092265658,5902.834685230075
1.552,0.6717342875345174,5898.615420678932
1.556,0.656275014069508,5896.985791270844
1.56,0.6328955418612241,5905.887431145312
1.564,0.6110339029979026,5895.854478506928
1.568,0.6005256587866057,5903.176449296328
1.572,0.6083935278379788,5894.938904503317
1.576,0.6367142562644666,5887.002413473982
1.58,0.6821968950386361,5902.0032863077
1.584,0.7373889362903241,5905.07169957882
1.588,0.7927747892880588,5908.663203330249
1.592,0.8388940150365839,5893.781712205556
1.596,0.8679882635599853,5901.034738175175
1.6,0.8751546044817321,5897.310383022023
1.604,0.8591575400945893,5893.38094872244
1.608,0.8228998507146298,5911.358882033851
1.612,0.7733237529110278,5888.613489765708
1.616,0.7204819000532535,5899.784433310172
1.62,0.675747276024725,5899.444678360369
1.624,0.649474623907402,5902.740235202025
1.628,0.6486873833816943,5905.2990666595415
1.632,0.6754294189859142,5892.546183025068
1.636,0.7262930115556908,5901.487982260831
1.64,0.7933711764040202,5897.404269411473
1.644,0.8665045609677136,5903.0670082438655
1.648,0.936222674194589,5902.021791468097
1.652,0.9963807701189129,5895.0016629837055
1.656,1.0454592777495817,5899.216013928288
1.66,1.085983315133883,5897.532783623924
1.664,1.1223542154910147,5912.696002415032
1.668,1.1581095540394255,5901.168872654557
1.672,1.1938064719453905,5893.804548546531
1.676,1.2262848430593525,5895.238652229681
1.68,1.249400946589189,5894.586140369958
1.684,1.2558632337852258,5897.127126458163
1.688,1.2395970440193989,5898.915640074699
1.692,1.1979514801919122,5903.806008593458
1.696,1.1330561769022276,5894.831517046876
1.7,1.0518648124916656,5906.488313465311
1.704,0.964849631122144,5891.999741980263
1.708,0.8837590314855571,5896.321911791293
1.712,0.8191304506041971,5900.839980320504
1.716,0.7782337136768125,5897.278807129053
1.72,0.7638654729111841,5904.694141359643
1.724,0.7741412047668572,5901.777104050231
1.728,0.8032384672224794,5897.655477770996
1.732,0.842867976401859,5893.1957270316325
1.736,0.884065588765638,5893.593662302502
1.74,0.9188122514274792,5888.632557360514
1.744,0.9411419507422846,5896.299592468855
1.748,0.9477632145956191,5901.510576589387
1.752,0.9384722182760348,5903.205948905043
1.756,0.9164821359113594,5898.472203649683
1.76,0.8883984380582561,5900.620036773758
1.764,0.8633563537644235,5906.471560452499
1.768,0.8510344615887886,5902.0470411060205
1.772,0.8588481932636035,5904.243183528297
1.776,0.8893430106132693,5899.66232085501
1.78,0.9390497872568304,5895.417775230556
1.784,0.9994093316734696,5895.912116025105
1.788,1.059289201858789,5896.640912133248
1.792,1.1080200717119002,5890.591762337192
1.796,1.1379920800517431,5905.430583723967
1.8,1.1462060839686428,5901.122228002168
1.804,1.1345134935402987,5903.888157917063
1.808,1.108674764288477,5895.237337024612
1.812,1.0767085537015382,5906.852424126708
1.816,1.0470508772368077,5893.868633125914
1.82,1.0268462385115,5898.362818271978
1.824,1.0205245246894241,5891.698251449024
1.828,1.0288145250633165,5909.547892347548
1.832,1.0484205024226845,5890.10669157979
1.836,1.0725881124246641,5903.941599189204
1.84,1.0926112185669796,5906.373917341538
1.844,1.1000138542018119,5898.603306954149
1.848,1.0888632048858897,5896.732366816639
1.852,1.0575851681763055,5907.192608718861
1.856,1.0097252540315231,5899.640149325209
1.86,0.9532692970013361,5898.055092403494
