时间(s),电压(V),幅值(高频80K)
0.0,1.0922374158365589,5904.777485340333
0.004,1.0715179246579492,5906.9355389172215
0.008,1.0484610544062538,5896.476417456561
0.012,1.0225920939158746,5900.295569005973
0.016,0.9958052760460793,5898.600997459778
0.02,0.971913740577227,5896.554969740377
0.024,0.9552497773482704,5896.60006936576
0.028,0.9489653299281163,5903.026792148209
0.032,0.9537287705790863,5898.428062896992
0.036,0.9673149994574841,5903.170360436192
0.04,0.985266320931107,5902.54405444667
0.044,1.0023726715187726,5897.492538496568
0.048,1.0143223485443693,5903.188261549223
0.052,1.018803422442249,5893.954950976081
0.056,1.0156956156328811,5907.770699600052
0.06,1.0065239354106135,5893.930530000511
0.064,0.9936568976039639,5901.453056965735
0.068,0.9796518051487576,5899.987047087031
0.072,0.9668615819710905,5892.8814570619215
0.076,0.9572326662256876,5892.935070597653
0.08,0.952226145828033,5900.239071805495
0.084,0.9528159357806137,5906.886090958188
0.088,0.9594630233095455,5893.025109651017
0.092,0.9719793011194936,5889.090332566974
0.096,0.989376380951586,5904.365754743886
0.1,1.009936317425999,5897.931073544673
0.104,1.031600146681955,5905.60285210393
0.108,1.0524569340260965,5894.163926396571
0.112,1.0709810374241935,5896.94738038743
0.116,1.0858858257251696,5902.238263034371
0.12,1.095844444251706,5896.522876028711
0.124,1.0994799823189818,5895.69150839422
0.128,1.0957709583935487,5891.52980506723
0.132,1.0846244634534168,5890.013233018297
0.136,1.0672452457360895,5903.572803280483
0.14,1.0461272192466884,5896.868563405465
0.144,1.024716613637815,5902.982515150036
0.148,1.0068361773997503,5897.081409735668
0.152,0.9959333497761272,5900.564185291923
0.156,0.9943005811423513,5899.459501684497
0.16,1.002532221676789,5896.224202535338
0.164,1.0194124259958337,5893.066894379156
0.168,1.0421851279935028,5893.109851867128
0.172,1.0669962974720721,5905.435809831318
0.176,1.089372550298578,5905.0345464210895
0.18,1.1047745148710646,5899.353647929288
0.184,1.109301018127997,5903.465441824303
0.188,1.100459636681174,5900.687352819237
0.192,1.0777461139508684,5899.292497491298
0.196,1.0428169728818382,5903.81206072452
0.2,0.9992898865604251,5903.403098489309
0.204,0.952394597272046,5896.89751506433
0.208,0.9085860419891142,5910.92342916604
0.212,0.8749335673168098,5906.5768619083165
0.216,0.858002417280902,5898.636565126704
0.22,0.8622596572932815,5894.102431856288
0.224,0.8885306982491962,5901.386794540929
0.228,0.9332588140273038,5905.592021839992
0.232,0.9890596056969573,5903.94783759455
0.236,1.0464869681184417,5902.780523736506
0.24,1.0963986683414566,5898.029845305815
0.244,1.1320758209791213,5907.827072433377
0.248,1.150364174018864,5896.151818702285
0.252,1.151531269122114,5897.662445515567
0.256,1.1381232452756285,5904.59272728417
0.26,1.1135361144948077,5911.224992916895
0.264,1.0810165127066012,5898.165600708728
0.268,1.0434168789774623,5899.550373834813
0.272,1.003541012874855,5898.998084116116
0.276,0.9646188521126771,5904.260835630593
0.28,0.93046065205703,5891.284407925812
0.284,0.9050852954924653,5898.798363236678
0.288,0.8919233855424532,5902.794988737174
0.292,0.8928991583511795,5900.009106587152
0.296,0.9077232602935559,5893.204102801708
0.3,0.9336403634287581,5895.166446095303
0.304,0.9657642963398902,5892.160343755006
0.308,0.9979866074391479,5901.292215541116
0.312,1.0242201122000585,5893.088649397298
0.316,1.039555831151867,5899.251087743786
0.32,1.0409839498313878,5902.686553538551
0.324,1.027654307221271,5917.054896178363
0.328,1.0009196652799508,5900.428138475889
0.332,0.9643407940752251,5893.449910426659
0.336,0.9235287337559517,5893.50299787912
0.34,0.8855015543270934,5891.220887208022
0.344,0.857377221547861,5889.696819924864
0.348,0.8446410413810264,5903.221075138263
0.352,0.8496065430819641,5900.86200651085
0.356,0.870733040126977,5903.971512707577
0.36,0.9031255152269655,5899.086694108197
0.364,0.9400426294817746,5896.770652637355
0.368,0.9748587179137024,5900.496358610386
0.372,1.0028213654367246,5898.631443272876
0.376,1.022096777958364,5899.804029823604
0.38,1.0338707204516882,5897.14477626846
0.384,1.0415558912651144,5907.120402374372
0.388,1.0493966055360908,5897.545303465607
0.392,1.0609182210532278,5895.376057499008
0.396,1.0776880542381835,5890.372392245917
0.4,1.0987318995124191,5904.679633700916
0.404,1.1207439054728738,5898.51886124387
0.408,1.1389973116812842,5907.294432397094
0.412,1.148656279270632,5892.78949383988
0.416,1.1460774510519385,5906.636890079331
0.42,1.1297372108382795,5899.916992985748
0.424,1.1005897491685996,5894.650756041716
0.428,1.061841282860476,5894.13272613252
0.432,1.018251667354753,5894.193937433977
0.436,0.9751547102374238,5901.683380202877
0.44,0.9374466432945039,5892.801346336471
0.444,0.9088160679516922,5902.282970875588
0.448,0.891422413040062,5900.33154857227
0.452,0.8860437589145661,5899.389499451467
0.456,0.892484841705513,5896.293503417573
0.46,0.9099127752409601,5904.387048036294
0.464,0.9368708021457113,5906.370179097749
0.468,0.9709572156988316,5904.416611412179
0.472,1.0083960921922768,5895.233860027328
0.476,1.0438810792985782,5895.255750455748
0.48,1.071109906393581,5904.399823035939
0.484,1.0842100287640064,5894.743374829619
0.488,1.079713009737519,5897.2675809589055
0.492,1.0581990022849983,5897.911164061013
0.496,1.024712380072235,5903.735367158972
0.5,0.9876181156940853,5901.43448559582
0.504,0.9562828865958682,5901.739514260442
0.508,0.9383795077682268,5907.650301511139
0.512,0.9376533330922524,5899.548632593602
0.516,0.9528256218934678,5904.097155483797
0.52,0.9780250699331153,5906.867579940771
0.524,1.0046776083745517,5895.438583077213
0.528,1.0242271754581236,5912.421422836445
0.532,1.0307159943674384,5901.988296062323
0.536,1.0223394704708408,5898.471723655499
0.54,1.0015149685814098,5898.300336858517
0.544,0.9735501566623068,5904.005974312534
0.548,0.9445066582545366,5904.105408332432
0.552,0.9191434455412671,5894.998723181298
0.556,0.8997043310230702,5911.870289423089
0.56,0.8858419836756444,5896.366129825757
0.5640000000000001,0.8754657331267284,5903.788242649306
0.5680000000000001,0.8660339946622099,5901.619030467532
0.5720000000000001,0.8558064960515377,5910.635951404053
0.5760000000000001,0.8446815018150802,5894.311860689213
0.58,0.8343605370345957,5899.174732718063
0.584,0.8277510542910844,5906.555375765014
0.588,0.8278076276182011,5899.522485055421
0.592,0.8363171217973987,5904.313496066976
0.596,0.8532092082899949,5890.557224989944
0.6,0.8767045028648407,5905.371884503517
0.604,0.9041438146146772,5897.612063135785
0.608,0.9329630202188236,5898.780262789366
0.612,0.9612329252882094,5908.302712341308
0.616,0.9875160264070507,5899.063175367829
0.62,1.0102786084581512,5905.467758013452
0.624,1.0273904299117396,5901.416009190734
0.628,1.036158242279813,5908.58910963046
0.632,1.033984136836006,5899.168852056756
0.636,1.0193925164600803,5908.201307704519
0.64,0.9930149812992164,5900.148912681282
0.644,0.9581342654017202,5903.896085034256
0.648,0.9204735851236348,5897.622585106892
0.652,0.8870978372171475,5892.311278070569
0.656,0.8646309525886889,5905.378887369754
0.66,0.857370022815049,5899.538962469068
0.664,0.8660205408265764,5900.384443924167
0.668,0.8875612046497937,5903.138040997416
0.672,0.9162955237083664,5900.895707874958
0.676,0.9456822114369149,5906.003652855938
0.68,0.970256242008499,5900.96754086287
0.684,0.9869643265802218,5908.622010223435
0.6880000000000001,0.9955043415256533,5901.657048295008
0.6920000000000001,0.9976544168737568,5899.914123308098
0.6960000000000001,0.9959673416265544,5906.014631741724
0.7000000000000001,0.9924408666033244,5896.478739049937
0.704,0.9877346285450802,5897.673044818967
0.708,0.9812043507246644,5910.837509583734
0.712,0.9716403370207183,5900.987761180349
0.716,0.9583289764563755,5895.6228200513
0.72,0.9419664014522596,5887.186971119315
0.724,0.9250157374684116,5909.820603203907
0.728,0.911321037300888,5896.527953240743
0.732,0.9051323240342839,5894.836058017768
0.736,0.909948783073302,5904.839450197276
0.74,0.9275603822554256,5890.316253978679
0.744,0.9574590020353123,5902.726783960979
0.748,0.9966529052416871,5906.467943453664
0.752,1.0399033787624201,5894.8262066568495
0.756,1.0803712551370177,5896.257432411056
0.76,1.1105986873586458,5900.897370342575
0.764,1.1237405961683695,5902.3298664607655
0.768,1.1149351332855915,5897.203058438829
0.772,1.082570255778153,5892.433053537991
0.776,1.0290832434008281,5895.661957893857
0.78,0.9609843776054466,5897.129797944074
0.784,0.8879822416421123,5891.304656036885
0.788,0.8212913641184938,5901.754929811427
0.792,0.7714225799998293,5895.23573571645
0.796,0.7459815259766097,5898.158748454231
0.8,0.7480923886461104,5896.7663641532845
0.804,0.7759075315454114,5905.160703255352
0.808,0.823308838043123,5893.506472712113
0.812,0.8815181855303647,5892.133630141992
0.8160000000000001,0.9410956421517388,5900.470679322371
0.8200000000000001,0.9938105485415267,5895.652051121221
0.8240000000000001,1.0340309933751328,5900.98073221475
0.8280000000000001,1.059415592804057,5893.337713298198
0.8320000000000001,1.070786504522088,5899.0761977399015
0.836,1.0712278380378168,5901.054721971517
0.84,1.064696675744402,5899.293903607833
0.844,1.0546267864285843,5897.525697984279
0.848,1.0430349642968848,5902.710384027686
0.852,1.0304441511494806,5886.551461346743
0.856,1.0165503638241198,5898.237129982005
0.86,1.0012083536008842,5894.64549970771
0.864,0.9852290747471794,5895.83799453644
0.868,0.9706459772940753,5903.293461175314
0.872,0.9603540001542648,5891.192203528551
0.876,0.9572694346679299,5895.774328791842
0.88,0.9633249131006499,5897.153060638283
0.884,0.9786247043734307,5912.129347493117
0.888,1.0010010655245056,5895.5726781134845
0.892,1.0261352880809023,5905.966623003465
0.896,1.0483061768263102,5901.696886383089
0.9,1.0616432808914926,5902.160118616913
0.904,1.0615607954217408,5899.04542919548
0.908,1.0459617648352835,5904.815839454703
0.912,1.0158843445543124,5903.2113460478095
0.916,0.9754486977953728,5904.931993443282
0.92,0.9311384275220679,5897.944933783213
0.924,0.8905608544325813,5888.522615907064
0.928,0.8609198143933987,5900.185497402653
0.932,0.8475318691234848,5904.261192895118
0.936,0.8527542247835126,5897.653463203496
0.94,0.8755983075749701,5908.196852203086
0.944,0.9121084480392113,5903.924282806602
0.948,0.9563798331825659,5893.268634610748
0.952,1.0019273618487265,5901.365483608563
0.956,1.043019447046226,5899.065112943518
0.96,1.0756030301320056,5898.631467592994
0.964,1.0976176749761852,5901.884138211434
0.968,1.1087738147894934,5904.540751996006
0.972,1.1100667879405648,5899.225610018949
0.976,1.1032839912537569,5907.67899404298
0.98,1.090624180249786,5907.43925255653
0.984,1.0744400794816833,5903.603641294457
0.988,1.0570619126648186,5901.115048309478
0.992,1.0406372689409873,5904.437558755003
0.996,1.026960463637588,5903.044533933317
1.0,1.0173228584274565,5903.242263355168
1.004,1.0123959832713412,5900.7254830470365
1.008,1.0121065033180334,5908.348619771728
1.012,1.0155118472548748,5898.604337965679
1.016,1.0208146145273949,5898.18878686371
1.02,1.0256817492376438,5894.822638791519
1.024,1.0278547681498476,5899.0353962526415
1.028,1.0257861476471242,5897.157837909234
1.032,1.0189808309857706,5901.7741927329935
1.036,1.0079284988591362,5902.262610914685
1.04,0.9937683475562222,5896.317693639357
1.044,0.9779297845346924,5901.138766574922
1.048,0.9619335441834853,5892.856030295424
1.052,0.9474153521890183,5913.790145850309
1.056,0.9363101915171435,5898.403647718422
1.06,0.9310091893876568,5892.659482510168
1.064,0.9342163608416412,5899.124901427557
1.068,0.9483169246127464,5895.392605079828
1.072,0.9743456510806757,5909.337401889259
1.076,1.010928555169322,5902.276499180659
1.08,1.0536844674234591,5892.02178503375
1.084,1.0954863861340922,5895.370510225648
1.088,1.1277244595830844,5891.197245655497
1.092,1.1423361642485506,5902.945558034237
1.096,1.134010310992726,5893.144772695711
1.1,1.1018082553306983,5900.204262336302
1.104,1.049604344523206,5900.217616212225
1.108,0.9851974987571134,5913.311478260318
1.112,0.9184508217355454,5899.689680632395
1.116,0.8590998157577848,5898.487537074326
1.12,0.8148453810670457,5899.834946165858
1.124,0.7901285219449661,5902.771490834473
1.128,0.7857372643489924,5904.012330991291
1.132,0.799219979621032,5897.553054443511
1.136,0.82594016191826,5907.026776257158
1.14,0.860433973713262,5901.538608594785
1.144,0.8975961464164617,5904.5480355108775
1.148,0.9332990649443058,5901.313701942415
1.152,0.9643695682469652,5897.96833968806
1.156,0.988207102667194,5887.782771089384
1.16,1.002489851904568,5895.633573313221
1.164,1.0052943216323034,5892.943540491431
1.168,0.9956370081907753,5899.184688850683
1.172,0.9741356313180632,5904.219463170094
1.176,0.9433848531622328,5903.881455414336
1.18,0.9078004171892318,5902.115165103146
1.184,0.8729527693928691,5905.050624123701
1.188,0.8445886733589196,5903.28564260897
1.192,0.8275739640491488,5905.627670418295
1.196,0.8249579314342621,5906.941150223987
1.2,0.8373336804253612,5905.298356471804
1.204,0.8626461859680238,5899.316155757197
1.208,0.8965276835140722,5894.7438126267925
1.212,0.9331115075993449,5907.841797047023
1.216,0.9661577683763891,5890.422699788849
1.22,0.9902637418142535,5899.376730952682
1.224,1.0019073381586148,5902.427495113451
1.228,1.0000819783390014,5903.994565717875
1.232,0.9863761093491106,5890.918550050061
1.236,0.9645200120397146,5897.408712822434
1.24,0.9395666267083924,5902.454830111751
1.244,0.9169294124790296,5896.421600289177
1.248,0.9014791538546167,5890.962380358641
1.252,0.896822749237834,5898.693781700024
1.256,0.9047890570328295,5902.1259255395225
1.26,0.9250960898666328,5898.726416316689
1.264,0.9552053433751847,5898.5705532941565
1.268,0.9904432799524069,5895.188994683034
1.272,1.024496464082293,5897.156939028871
1.276,1.0503305404154653,5907.978145425563
1.28,1.061500243584474,5901.860093357603
1.284,1.0537140236795026,5893.637306383344
1.288,1.0263295862788353,5906.292015591276
1.292,0.9832524413025819,5890.730838248224
1.296,0.9327022657099454,5902.886089653099
1.3,0.8856248951902627,5898.645483937642
1.304,0.8530561472797429,5904.648266202164
1.308,0.8432315054864827,5904.12994328681
1.312,0.8594263800184142,5898.052050790077
1.316,0.8992790208385681,5892.540943637443
1.32,0.9557804870176508,5897.131131528353
1.324,1.0194835914887004,5898.530104111396
1.328,1.0810638588914103,5893.555404764144
1.332,1.1333110104748434,5899.446478292784
1.336,1.1719645340833234,5888.715964408921
1.34,1.1954085420502774,5894.818329978391
1.344,1.2037981111646543,5903.188799978163
1.348,1.1983506398190098,5893.182399340362
1.352,1.1811915941036781,5896.748554779901
1.356,1.1555657824178411,5889.285680790432
1.36,1.12588079386498,5904.988920541485
1.364,1.0971899158859129,5903.77599667829
1.368,1.0741686104710477,5906.450398988803
1.372,1.0600042417059532,5904.7545622528105
1.376,1.0556619597496357,5907.452016145272
1.38,1.0597619578178943,5895.235535823467
1.384,1.069027826518051,5901.574832575867
1.388,1.0790919758547786,5902.248811405319
1.392,1.0853907343606293,5898.000180139708
1.396,1.0839561477407251,5900.120672564368
1.4,1.0720634256334962,5893.77421101136
1.404,1.0487585675219377,5889.563255024517
1.408,1.015213318699209,5901.006024020272
1.412,0.9747820897708253,5900.3767960301775
1.416,0.9326655831339177,5896.017335419007
1.42,0.8951528183467388,5891.941670941651
1.424,0.8684744905396486,5904.603783341572
1.428,0.8574116752154006,5898.849403773466
1.432,0.8639763307288953,5898.251759008431
1.436,0.886597954449757,5904.958399875954
1.44,0.9201750250835979,5900.399932001363
1.444,0.9570809312244125,5894.592655474337
1.448,0.9889021480768934,5895.466194904791
1.452,1.0084673285204198,5900.635534372891
1.456,1.0116323061165426,5894.26347624627
1.46,0.9983269091994743,5897.603797592009
1.464,0.9725606269965192,5896.459968824633
1.468,0.9413800691687417,5894.029483280954
1.472,0.9130664548663007,5903.896944710595
1.476,0.8950579349077203,5902.132667231776
1.48,0.8921328890954836,5899.444649560358
1.484,0.905308701136406,5899.4428519007415
1.488,0.9317239073877215,5900.06421591394
1.492,0.9654940871009705,5899.018533720503
1.496,0.9992251211786316,5904.498018141272
1.5,1.0256832404842497,5895.414955986747
1.504,1.039191977739016,5896.00311608872
1.508,1.0365864217924214,5899.087179544371
1.512,1.0177450805481876,5897.604398188741
1.516,0.9856798650391237,5897.4680571323925
1.52,0.9460566452988287,5896.750440943531
1.524,0.9060907282638732,5899.517232380465
1.528,0.8730088660722997,5886.859002713862
1.532,0.8524853037330208,5898.270939813863
1.536,0.8474954486223047,5894.900882649133
1.54,0.8578912136713245,5900.476455034495
1.544,0.8807696735310918,5898.619269463766
1.548,0.9114584046009323,5893.979848773551
1.552,0.9447450331463088,5896.2178243582985
1.556,0.9759289203445124,5899.35778265842
1.56,1.0014291542078313,5900.369994728799
1.564,1.0189617567586775,5902.246991844893
1.568,1.0275115184794759,5893.269684112396
1.572,1.027339846156405,5906.8471579892375
1.576,1.0200996454330713,5897.199192293269
1.58,1.0088858005104333,5900.98323072917
1.584,0.9979141404197777,5891.760356111669
1.588,0.9916558637139776,5900.889491554635
1.592,0.9936144052904021,5894.746530633656
1.596,1.005216554009029,5905.331924147551
1.6,1.025247337999861,5897.679677751762
1.604,1.0499768031866514,5896.1876509799495
1.608,1.0738793737921852,5897.52165036966
1.612,1.0907582529997626,5892.207606757193
1.616,1.0950830117596555,5895.0260898732295
1.62,1.0833152387655012,5899.410220797116
1.624,1.0549118956982733,5894.504946426964
1.628,1.012659219082625,5891.554297922653
1.632,0.9621380193076349,5898.736539289666
1.636,0.9104543095959095,5908.448100170728
1.64,0.8646872046212885,5908.806754534821
1.644,0.8305744945883201,5898.014579270724
1.648,0.8117479741759746,5901.695024570847
1.652,0.8095384884757075,5902.637348292758
1.656,0.8231833205221931,5902.998019426143
1.66,0.8502341830087562,5891.135980591955
1.664,0.8870375427844676,5896.767420041973
1.668,0.9292589958947964,5904.4681861370855
1.672,0.9724705654150362,5912.286782576573
1.676,1.0127780613571982,5896.084025699395
1.68,1.0473623355740016,5899.03844426653
1.684,1.0747433641293105,5902.292613200915
1.688,1.0946595604938807,5892.727121297675
1.692,1.107665411029589,5897.406326190906
1.696,1.1147112560522077,5899.646448594557
1.7,1.1169215762873155,5904.8540576995065
1.704,1.115566596605633,5899.158733656714
1.708,1.1120260320873327,5904.882545865864
1.712,1.1075553860689058,5895.776820605154
1.716,1.1028835247916946,5903.139284128753
1.72,1.0978932464269784,5892.885043958753
1.724,1.091638747048277,5906.8057111388825
1.728,1.0827220810880254,5905.3745571569625
1.732,1.0698026509965468,5903.970597021085
1.736,1.0519716848038168,5903.292487114625
1.74,1.0288974907328978,5905.355995627915
1.744,1.000834281731645,5902.710638832301
1.748,0.9686067444746767,5897.8266364458605
1.752,0.9335926773889861,5896.919814115559
1.756,0.897704921804494,5904.035710423735
1.76,0.8634268611491124,5897.827059341161
1.764,0.8339169392685756,5895.956455967347
1.768,0.8130157739317787,5899.676831786199
1.772,0.8048525240751965,5897.861213632563
1.776,0.8128694301971282,5896.86180363288
1.78,0.8384538060151139,5895.9913880573495
1.784,0.879745632324386,5904.5187316823785
1.788,0.9312947307696092,5902.279508837417
1.792,0.9849438455150334,5900.391777172375
1.796,1.0317356613154387,5902.538872751105
1.8,1.0641241458058124,5900.80911391141
1.804,1.077668475482525,5895.879202012706
1.808,1.0717562748246696,5900.356392331777
1.812,1.049401673435036,5900.529649985107
1.816,1.0164118344265436,5902.558689475377
1.82,0.9801722780420429,5898.871262757697
1.824,0.948186517404855,5899.351351154534
1.828,0.9265074427345474,5897.177092517028
1.832,0.9183469691359358,5894.454555137115
1.836,0.923308463752956,5900.74822289802
1.84,0.9376339329408591,5909.557185521759
1.844,0.9555135789097525,5897.661671689712
1.848,0.9710252844424817,5899.006782357799
1.852,0.9799291622312388,5901.040179443445
1.856,0.9805766779520168,5904.82467503835
