时间(s),电压(V),幅值(高频80K)
0.0,1.7414462059937605,5901.990566623286
0.004,1.575465552053175,5909.104900236009
0.008,1.4219720505053963,5908.213957615812
0.012,1.2914762378770213,5897.116932447267
0.016,1.190119821046621,5902.102407038189
0.02,1.1191497068319405,5889.610310767419
0.024,1.0758082648317022,5896.589390193411
0.028,1.0552012543844167,5900.475032583287
0.032,1.0522390061159794,5902.4217800886445
0.036,1.0628142552244813,5900.521554911374
0.04,1.0839571845565024,5899.171652014755
0.044,1.1132947068883983,5901.45853432577
0.048,1.1483220245653223,5902.779861770117
0.052,1.1858618925073225,5903.69046440921
0.056,1.2219517572450411,5909.559604118308
0.06,1.2523119334379362,5909.99152259684
0.064,1.2733482640893479,5891.33670632821
0.068,1.2833236541481798,5908.325392277079
0.072,1.2831273412742554,5898.264154309214
0.076,1.2761984258643062,5898.661231994664
0.08,1.2675659381426037,5906.1220828446885
0.084,1.262348800774891,5896.600594953294
0.088,1.264204513498414,5895.484544596857
0.092,1.274202018610075,5895.756407172825
0.096,1.290524283297858,5906.334422524377
0.1,1.309185091290896,5903.205011897205
0.104,1.325517296736001,5911.701183385324
0.108,1.3357830449151624,5900.031533628387
0.112,1.3382045522494677,5902.781787543247
0.116,1.3331120833926229,5901.559938636774
0.12,1.3224622627802474,5891.944736453428
0.124,1.3092324088900487,5894.153147216891
0.128,1.2969620163299254,5903.923156830805
0.132,1.2892865455492615,5902.159169910185
0.136,1.2891487811432307,5903.902068540268
0.14,1.2976546370171278,5905.0082886870505
0.144,1.3130253394970923,5910.691684660528
0.148,1.3303417930455808,5909.351610611719
0.152,1.3425221438348534,5902.611749587603
0.156,1.3423945618227158,5908.7219899617
0.16,1.3252084962488373,5892.433536146755
0.164,1.2906879585742126,5905.074546842989
0.168,1.2437985803621108,5888.672129899722
0.172,1.193775719352207,5900.254588042644
0.176,1.151586764131959,5894.551187464782
0.18,1.12665712712954,5898.874131437524
0.184,1.1240519794491564,5900.948454092573
0.188,1.1431463209129418,5892.920432108595
0.192,1.1781837527484829,5900.684486859732
0.196,1.2203553897135921,5904.631380829608
0.2,1.2605157085413754,5893.3703200628615
0.204,1.2915660640179851,5899.680090418111
0.208,1.3098143571992131,5902.857984266734
0.212,1.3150985762581613,5910.867931198001
0.216,1.3099466989032227,5897.362221869538
0.22,1.29833308459979,5899.823305024779
0.224,1.2845621269317382,5907.200422562756
0.228,1.2725272744441642,5898.260598345376
0.232,1.2652905889760349,5902.060986511819
0.236,1.2648040722063696,5902.681963791311
0.24,1.2716524237781492,5894.122886101786
0.244,1.2848440166267907,5902.495404460117
0.248,1.3018259101909666,5896.188893615103
0.252,1.3189277007773725,5898.413561058416
0.256,1.3322659803084362,5899.101833775363
0.26,1.3388728413962405,5894.324325055356
0.264,1.3376474914400873,5895.133605081218
0.268,1.3297497367410296,5903.426230173886
0.272,1.3182299812928617,5899.622073003053
0.276,1.3069942620762174,5896.065905416166
0.28,1.2995342725409744,5901.979423098395
0.284,1.297981072239769,5900.555667393581
0.288,1.3028182101740948,5901.265968466655
0.292,1.3131720285223376,5904.258669421177
0.296,1.3273305138747014,5898.945279084369
0.3,1.3432067200760829,5904.599894440161
0.304,1.3586976907941144,5907.816891525647
0.308,1.372016323296832,5906.233262049966
0.312,1.3820142238074333,5900.811423359864
0.316,1.3884104033051545,5901.135769291444
0.32,1.3918236126289738,5901.529371412899
0.324,1.3935615252636164,5900.66591957672
0.328,1.395190094959966,5892.426702767476
0.332,1.3979940348858402,5900.190462579617
0.336,1.4025400665533028,5898.499462644161
0.34,1.4085763229327146,5898.331920786584
0.344,1.4153509536774318,5900.698564380262
0.348,1.4221662764991918,5901.877155479878
0.352,1.4288037780020502,5900.153351306429
0.356,1.4355190652583898,5892.417253735657
0.36,1.4425786506497866,5894.832258658941
0.364,1.4496206216393366,5908.609313399958
0.368,1.455287395389167,5902.637173261667
0.372,1.4574716669568815,5903.570987798019
0.376,1.4541600489630129,5900.755479670633
0.38,1.4444851303544715,5906.909862033826
0.384,1.4294479120533743,5905.626114165377
0.388,1.4118940001106892,5895.000993297207
0.392,1.3956507209856899,5912.003719500545
0.396,1.3841570125300637,5890.513769323291
0.4,1.3792175636898159,5900.947356323477
0.404,1.3804579271030002,5908.368778736656
0.408,1.3856878472880174,5893.82442078364
0.412,1.3919435810982372,5895.994144050973
0.416,1.3966923765266759,5906.644596296509
0.42,1.3986751126526589,5901.085070529731
0.424,1.3981300064677606,5893.600109942225
0.428,1.3964514564207962,5902.995119253757
0.432,1.3954664714214806,5900.554993778665
0.436,1.396522064332687,5893.052152234412
0.44,1.3996433478505166,5904.963941273474
0.444,1.4030923592327742,5902.564248128866
0.448,1.4035717286433051,5903.73867022483
0.452,1.3970873234739645,5892.830668510102
0.456,1.38024708441646,5895.889860934984
0.46,1.351604611168551,5904.12030428687
0.464,1.3125728702212716,5895.908227189145
0.468,1.2675010751490359,5897.533167726522
0.472,1.222802927952446,5896.312637514268
0.476,1.185447338619436,5900.159486597241
0.48,1.1613789415427613,5895.943865617482
0.484,1.1543432644620994,5899.282199143219
0.488,1.1652942042311998,5906.160574507948
0.492,1.1923255986042838,5887.258526000784
0.496,1.2310043413592717,5904.419834216018
0.5,1.2750282646954652,5893.785984224599
0.504,1.3171776070777108,5904.754614006868
0.508,1.3505055481661794,5903.255611758819
0.512,1.3696260501663593,5900.928258941195
0.516,1.371855682399072,5893.265825882297
0.52,1.3578955283802774,5892.4944020117855
0.524,1.3317556067861696,5897.389874153297
0.528,1.2998156097938351,5913.9092801931365
0.532,1.2692702879694648,5897.816846748399
0.536,1.2464872106303047,5902.342312993452
0.54,1.2357555495763286,5903.248800811454
0.544,1.2385904944269854,5899.818495529887
0.548,1.25350796774937,5905.258175872029
0.552,1.2762151111662543,5908.442286718296
0.556,1.3003428603216904,5900.158151169727
0.56,1.3188518811789745,5907.765117008496
0.5640000000000001,1.3259264842260254,5900.961502758988
0.5680000000000001,1.3187584940079173,5901.224558974969
0.5720000000000001,1.2984902808733014,5900.868703070453
0.5760000000000001,1.269890446079183,5906.689730468106
0.58,1.239893598047218,5892.440058865605
0.584,1.2155954854190463,5903.112385664638
0.588,1.20241026622611,5902.972796017403
0.592,1.2028966554136242,5902.571789564387
0.596,1.2164575552406993,5901.878465719431
0.6,1.239864171569399,5902.331413116689
0.604,1.268354940980586,5898.314875997028
0.608,1.29691145782587,5900.846695533803
0.612,1.3213002461829462,5902.303243081914
0.616,1.338647593597525,5893.04426656633
0.62,1.347586104104757,5907.581809328983
0.624,1.34817733477726,5898.005081486868
0.628,1.3417802726537924,5894.759083679511
0.632,1.3308903328319497,5902.246674963292
0.636,1.3188544775263182,5902.391057343237
0.64,1.3093497723560141,5901.461316216531
0.644,1.3056174483527054,5896.6283492401935
0.648,1.3096214934884736,5894.054867768222
0.652,1.3214267418147163,5902.84870742762
0.656,1.3390673846513423,5893.111293706514
0.66,1.3589979184023329,5898.2592574440205
0.664,1.3769711465169532,5901.624851912263
0.668,1.3890133112218939,5901.372162855527
0.672,1.3921813542781158,5894.270505263126
0.676,1.3849779027714963,5905.246432976994
0.68,1.367495558869772,5901.1375742460805
0.684,1.3414018315288523,5896.062179581243
0.6880000000000001,1.3097931981172413,5897.66248504405
0.6920000000000001,1.2768803711731853,5892.563194973718
0.6960000000000001,1.2474601765275342,5903.002098626222
0.7000000000000001,1.2261555069918333,5903.104526983539
0.704,1.2164833251768181,5897.80125299255
0.708,1.2199569324168593,5891.348519175157
0.712,1.2355485909443313,5898.0086773855
0.716,1.2597907263776356,5901.70267715176
0.72,1.2875645203469388,5895.750685629319
0.724,1.3133656514680752,5903.692770859014
0.728,1.332681423324401,5902.509136889152
0.732,1.343047614898755,5895.468543009188
0.736,1.344376524790559,5892.363243282091
0.74,1.3383903278152158,5902.064918743053
0.744,1.3274646770293732,5906.393267015881
0.748,1.3135666450392587,5904.149940518236
0.752,1.2978981680940997,5896.856999334584
0.756,1.2813494734439403,5901.273182933843
0.76,1.265311632616003,5900.966636359684
0.764,1.2521827555404283,5898.378484924464
0.768,1.2451446459735247,5913.694974324889
0.772,1.2472867720687681,5897.106461919399
0.776,1.2605450164422873,5902.131134248842
0.78,1.2849605621097817,5906.656727181266
0.784,1.3185204956581282,5895.667143571607
0.788,1.357554136328958,5900.457346229426
0.792,1.3974661676462952,5896.656876771275
0.796,1.4335121395282386,5904.461079727063
0.8,1.4613931529400057,5904.87617139238
0.804,1.4776352641425068,5892.73163297438
0.808,1.4798651250864991,5896.952911939683
0.812,1.4670969658160449,5906.289656731442
0.8160000000000001,1.440074096067128,5905.472913186838
0.8200000000000001,1.4015994886651628,5897.619837040449
0.8240000000000001,1.3566227627281182,5908.341269172299
0.8280000000000001,1.3117553715060837,5899.283478256588
0.8320000000000001,1.2740686323922208,5906.312592968729
0.836,1.2494428329997669,5900.714100109324
0.84,1.2410708001728887,5905.876290755587
0.844,1.248723466272936,5894.551807262196
0.848,1.2690582467366427,5899.7509747490085
0.852,1.2967996922894274,5895.614368019702
0.856,1.3262978972150723,5894.358267369017
0.86,1.3529132490496651,5894.817170994815
0.864,1.3738574530844714,5899.367058928144
0.868,1.388389652195627,5901.999024594371
0.872,1.3974656934871184,5890.724676524286
0.876,1.4030327400333198,5900.304271454264
0.88,1.4072134583260403,5898.95310221707
0.884,1.4116353963476853,5903.268958118505
0.888,1.4170519986716252,5905.840133041917
0.892,1.423190952202932,5908.130621917197
0.896,1.4286622839614156,5899.765213847146
0.9,1.4309375337858474,5901.951276983632
0.904,1.4266966678589648,5892.226851463135
0.908,1.412817305705598,5906.753832301514
0.912,1.387829575312318,5893.639515516585
0.916,1.3531683151544205,5897.743731220093
0.92,1.313494022989972,5901.356607737763
0.924,1.275783102978669,5899.114777262263
0.928,1.247469663078036,5907.569063115629
0.932,1.2343163323993813,5895.788015756973
0.936,1.238777221036548,5897.938037645439
0.94,1.259391616282636,5903.346640504642
0.944,1.2913087298159778,5897.282201571994
0.948,1.3276412422394681,5901.14158417512
0.952,1.3611825411720295,5897.654951639881
0.956,1.3860441547384024,5900.501385559503
0.96,1.3988298715134855,5900.550165015629
0.964,1.3990572798050518,5903.721228013384
0.968,1.3887267884242924,5892.393154216221
0.972,1.3712080677373018,5904.8000005205695
0.976,1.349883690143532,5895.663725154515
0.98,1.327126625373393,5900.310124390635
0.984,1.304052885640465,5897.952101695581
0.988,1.2810949579866397,5898.622971162194
0.992,1.2589928921359916,5906.864588578336
0.996,1.2395493881278945,5899.471828595067
1.0,1.2255959389911133,5901.68064107167
1.004,1.2200515003286294,5900.586823503059
1.008,1.2245111457382298,5897.729648264594
1.012,1.2381554378521866,5896.673514445688
1.016,1.2576606061343112,5901.412971009987
1.02,1.27821936241581,5902.704346248752
1.024,1.295128475957384,5904.037463512041
1.028,1.3051669903676366,5896.605854619874
1.032,1.3073050615267492,5902.31331380344
1.036,1.3027620768914647,5899.916166509731
1.04,1.294646826748243,5904.841220519567
1.044,1.287322461879093,5903.839676090495
1.048,1.2854907208801054,5889.1492580330005
1.052,1.2929862954748543,5901.491554605756
1.056,1.3114359092144399,5899.565960988942
1.06,1.3391654273514595,5900.443464375985
1.064,1.3708711161880958,5895.004800712566
1.068,1.3984483461234154,5899.53367165354
1.072,1.412961763747934,5904.585896608291
1.076,1.4072322798729981,5905.02740026517
1.08,1.3782061976566584,5894.017038548318
1.084,1.3283258063319778,5896.048351446964
1.088,1.2654426832581067,5900.619912693163
1.092,1.2012137691862907,5902.96327640297
1.096,1.148329708896626,5897.749043561394
1.1,1.1173206102023923,5901.166045968159
1.104,1.1139046544128763,5895.152777987893
1.108,1.1377027511069915,5898.955544867115
1.112,1.1826635165105273,5907.804518172842
1.116,1.238957546762256,5899.920438057214
1.12,1.2956497803447549,5897.250014718591
1.124,1.3432996108930222,5895.393613997904
1.128,1.3758131288793007,5902.701665090529
1.132,1.3912443324160924,5897.062705882268
1.136,1.3915661540911324,5901.960378157192
1.14,1.3815910820203579,5899.224464337968
1.144,1.367312355316925,5907.996185298205
1.148,1.3540684679771116,5891.534895636838
1.152,1.3450423821428235,5904.836894446448
1.156,1.3405448243752711,5897.618584499224
1.16,1.3382572945221083,5898.217032599146
1.164,1.3342451206799506,5901.320311859117
1.168,1.3243094726061109,5901.680199353066
1.172,1.3052741462452664,5895.810428234821
1.176,1.275981973577669,5904.907410067031
1.18,1.2378550461050273,5898.677386099326
1.184,1.1948399323672183,5905.25515097499
1.188,1.1526363289864023,5900.370496589085
1.192,1.1173578634184111,5903.082804684031
1.196,1.0940140920373866,5895.02703064243
1.2,1.085289509232945,5909.377252088555
1.204,1.0910109832423145,5898.001107192463
1.208,1.108438413961614,5908.282552974372
1.212,1.1331723472299478,5893.574380529512
1.216,1.1602793149972772,5907.257183308441
1.22,1.1853062010635913,5897.360725926035
1.224,1.2050119036547486,5901.128644871536
1.228,1.2177074618991581,5897.657491164663
1.232,1.2231417857319453,5903.593553542583
1.236,1.2220116390505948,5899.577025626257
1.24,1.2153299005615061,5900.080661573226
1.244,1.2039381450307787,5902.055507149396
1.248,1.188382841794446,5897.005559011702
1.252,1.1692029490385136,5896.57443115187
1.256,1.1474530445272824,5897.817521860402
1.26,1.1251270740875026,5898.037347466698
1.264,1.105137507955525,5885.403345401066
1.268,1.0906739183333025,5888.424313018306
1.272,1.0840961532227922,5909.607303572164
1.276,1.085844168822461,5896.352686916929
1.28,1.0939260566701725,5902.319698133371
1.284,1.1043158043119168,5905.708437682164
1.288,1.1121997719260257,5902.294948337007
1.292,1.1136391568326327,5894.161072958982
1.296,1.1070308833237532,5898.153292960601
1.3,1.0938551949220054,5896.315282292299
1.304,1.0784929199654205,5894.348343840055
1.308,1.0671417846766877,5894.211273070614
1.312,1.0660031553265519,5896.672735671514
1.316,1.0791194033035323,5900.1402412713815
1.32,1.106552054230388,5890.312293920748
1.324,1.1437207385109724,5890.445055920168
1.328,1.1824064131098715,5903.191383657047
1.332,1.213239292512748,5890.880625044532
1.336,1.2287814580420946,5907.9294065188205
1.34,1.2259447614908798,5909.013613838642
1.344,1.2067111674933753,5900.597404335934
1.348,1.1769094849684778,5902.623256569608
1.352,1.1437331531438768,5899.629762879357
1.356,1.113205468881239,5899.348301615537
1.36,1.08864531017675,5902.909843668077
1.364,1.070559722140076,5900.5407361435855
1.368,1.0577179451314767,5896.031066171537
1.372,1.0487373857912559,5906.017910187594
1.376,1.0434045798019047,5902.630301190771
1.38,1.0431340292111138,5900.3219478882165
1.384,1.0503544753881728,5902.360105694622
1.388,1.0670602957813782,5901.267437603524
1.392,1.093129936308082,5902.195394680133
1.396,1.1251908402892568,5904.173121952304
1.4,1.1567060192335992,5903.744389477367
1.404,1.179520956300217,5905.128839917149
1.408,1.1864612403679704,5904.113168934977
1.412,1.1740256966880536,5904.259068122199
1.416,1.1440887730409808,5910.936707007075
1.42,1.103884426141461,5901.269790187428
1.424,1.0642144389799841,5897.419968415428
1.428,1.0364960760839612,5897.047410513838
1.432,1.0296241669832826,5896.069953320654
1.436,1.0475700674092472,5907.908484754681
1.44,1.0883447669726602,5896.637315683102
1.444,1.1445794851043516,5903.760032469305
1.448,1.2055306971829274,5898.695007449782
1.452,1.2598500698573578,5902.459703620082
1.456,1.2981819011317375,5903.006885753044
1.46,1.3147647497887691,5898.844126024992
1.464,1.3077339184012433,5899.077483375739
1.468,1.2784728298093821,5901.433156305156
1.472,1.2306894727565452,5897.262185840891
1.476,1.1696868179558833,5899.1123658707365
1.48,1.1018487781043709,5905.249337688935
1.484,1.0341152527676796,5906.64302586394
1.488,0.9732770349199729,5897.144962931328
1.492,0.9251147163524382,5899.6761779296985
1.496,0.8935801614735881,5902.835580834686
1.5,0.8802854764570619,5907.509779754689
1.504,0.884471732177876,5898.289948047763
1.508,0.9034369633839705,5905.43020001389
1.512,0.9332521774146028,5901.242434057632
1.516,0.9695408398203763,5901.257168297249
1.52,1.008091103440418,5904.38254646179
1.524,1.0451224085962763,5904.67235923541
1.528,1.0772124299245882,5901.051775585745
1.532,1.1011280767201463,5900.250946873161
1.536,1.1138679595600156,5912.413263293821
1.54,1.113035649587615,5902.217851233294
1.544,1.0974042924500467,5907.900383563925
1.548,1.067408147573282,5899.74639296181
1.552,1.0253430287201166,5910.405171386965
1.556,0.9751927791118367,5899.617557159447
1.56,0.922128759924189,5899.490817439671
1.564,0.871796795771529,5900.374045189496
1.568,0.8295067012505385,5898.311191284129
1.572,0.7994284155566755,5902.922869673592
1.576,0.7839372720391199,5903.568670173653
1.58,0.7832997187209267,5903.011619480114
1.584,0.7958254408585036,5904.01395844917
1.588,0.8184151453248185,5902.435728280049
1.592,0.847268494622546,5902.595120451281
1.596,0.8785260487915322,5898.811310118955
1.6,0.9087589016107892,5899.698070346394
1.604,0.9353376328091793,5904.30517847649
1.608,0.9567053121728214,5900.835927716757
1.612,0.9724887794608248,5906.527752203577
1.616,0.9833457847816619,5895.683448727654
1.62,0.9905273551822997,5900.86116030022
1.624,0.9952642568057215,5900.809086341732
1.628,0.9981670065900355,5899.2591912900425
1.632,0.9988301376791882,5905.795268470961
1.636,0.9957845197666123,5901.502400874836
1.64,0.9868782923961003,5908.340742494311
1.644,0.9700663603057138,5907.089503850972
1.648,0.9444208005559557,5907.758105442629
1.652,0.9109991469289714,5900.957213187546
1.656,0.8731595172745789,5904.766441492764
1.66,0.836079404067032,5897.241915118229
1.664,0.8055770197989085,5893.34161316238
1.668,0.7866699122718666,5899.135020723954
1.672,0.7823974307296279,5903.995012126891
1.676,0.793216649687984,5908.905623606565
1.68,0.8169821582552255,5900.956875822836
1.684,0.8493813121333096,5905.31834807874
1.688,0.8846994940765546,5909.843056396856
1.692,0.9168071402285798,5900.784676574176
1.696,0.9402675035588777,5899.734408775543
1.7,0.9514456056156951,5906.690782837986
1.704,0.9493896129096073,5896.457912676249
1.708,0.9361332739980692,5903.018795172807
1.712,0.9161621841381821,5908.520792279468
1.716,0.8951398662643235,5902.36434870623
1.72,0.8783203092531884,5914.743925749974
1.724,0.8691256233327286,5913.175088637116
1.728,0.8682051994942055,5900.261590779625
1.732,0.8731347398030757,5897.395582043104
1.736,0.8788445253753236,5905.984609090434
1.74,0.8788069979850146,5902.325967229765
1.744,0.8668494220920512,5905.3758880567975
1.748,0.8391625567910085,5904.881381819007
1.752,0.7958123869045347,5904.942876459316
1.756,0.7410961299226682,5900.016927737854
1.76,0.6824964954602686,5898.43099099316
1.764,0.6285615903441222,5905.059534442524
1.768,0.5864848647240345,5900.543809023909
1.772,0.5602925311298407,5912.0291896758745
1.776,0.5502706062459413,5894.706533380422
1.78,0.5536786423677128,5903.640423741162
1.784,0.5662472161177499,5898.820895626297
1.788,0.5837553844604556,5900.915521832116
1.792,0.6031220788838348,5904.051294357751
1.796,0.6227092320834884,5902.545023145093
1.8,0.6418386236186294,5902.305595659793
1.804,0.6598894136822235,5903.918426309726
1.808,0.675601522795098,5898.631939794687
1.812,0.6870838373956479,5901.557869147375
1.816,0.6925413390526072,5901.570059743905
1.82,0.6912568242137455,5901.747074109807
1.824,0.68421392518284,5902.085543656741
1.828,0.6739775084958113,5899.691633125679
1.832,0.6638777653021025,5903.263820413655
1.836,0.6569075634267129,5900.201222517536
1.84,0.6548369754531158,5909.903830465505
1.844,0.6578589592437758,5904.28009924548
1.848,0.664779517109163,5904.843810401746
1.852,0.6735575930695545,5906.050068981663
1.856,0.6819384748577502,5908.047063427528
