时间(s),电压(V),幅值(高频80K)
0.0,0.5808709919710352,5905.485576405811
0.004,0.8745870693972427,5902.541660708099
0.008,1.1374791924557361,5899.161946249695
0.012,1.3448153541183294,5897.080907305176
0.016,1.4817751365695533,5904.271153634725
0.02,1.5449184325337812,5898.054009458336
0.024,1.5413121642406507,5901.9830841431285
0.028,1.486067205559547,5890.188318174781
0.032,1.3990201039104566,5908.1611758094505
0.036,1.3011758891234706,5907.126397729645
0.04,1.2114815187649894,5897.190132993216
0.044,1.144369183815224,5903.197115097537
0.048,1.1082516997657756,5896.803902847903
0.052,1.1049890684867814,5901.626519934814
0.056,1.1303819573133493,5906.192736395619
0.06,1.1757349244326107,5904.73315635773
0.064,1.2302201470804999,5900.779750165671
0.068,1.2833519397414341,5901.415038190408
0.072,1.326815861561646,5896.904684788904
0.076,1.3553321178104036,5900.752613433035
0.08,1.366788177978335,5897.156293599911
0.084,1.3620483223695088,5895.751310348242
0.088,1.3445625327003523,5884.8866417500885
0.092,1.3195851102632175,5901.680454179537
0.096,1.2929121985540366,5896.167168796583
0.1,1.269464936814411,5898.923624763637
0.104,1.2522755377607557,5899.603271049675
0.108,1.2421993435205494,5898.654585218678
0.112,1.2382475385031997,5904.298662459807
0.116,1.238241406587018,5895.787710607633
0.12,1.2395899715882794,5896.75797928621
0.124,1.2401086087656021,5904.90607099448
0.128,1.238740209859791,5900.113759894499
0.132,1.2359120356474174,5902.947681597493
0.136,1.2332681098127785,5896.7609044958335
0.14,1.2327614678037038,5898.852765717286
0.144,1.2354621454001995,5891.704470362772
0.148,1.2406652657197985,5898.359906320708
0.152,1.2457954375347884,5898.199494997407
0.156,1.247273564214632,5898.836183433608
0.16,1.242106974233018,5900.998524779433
0.164,1.2295964169352671,5898.402782566011
0.168,1.2123470894985386,5908.295966154358
0.172,1.1959054903614534,5896.6933254293945
0.176,1.1869010622759353,5902.934464694936
0.18,1.1903359620263034,5896.899683616531
0.184,1.2071941615106019,5895.013689044214
0.188,1.2334985009018313,5899.690277960219
0.192,1.2613506012136517,5903.086433259223
0.196,1.2816498848209905,5903.041559384799
0.2,1.2874820100794546,5897.767719487223
0.204,1.276866575062685,5912.647454233552
0.208,1.2537378263547225,5910.160198123995
0.212,1.2266332729866691,5896.013380388489
0.216,1.2054537716678846,5902.066068059192
0.22,1.1975541818164366,5904.024508467447
0.224,1.204843374617325,5891.620927671406
0.228,1.223157226873233,5900.744639320084
0.232,1.2440940454631908,5896.913755361022
0.236,1.258410207820577,5902.668526867481
0.24,1.2595416193167965,5902.958347414694
0.244,1.245949525920297,5901.586066889419
0.248,1.2215385192607764,5907.816736221737
0.252,1.194106047921226,5899.383434008602
0.256,1.1724866571035584,5901.561101039119
0.26,1.1635465082483787,5892.093332863003
0.264,1.1702242141688817,5900.794439595414
0.268,1.191282409389474,5900.174422381015
0.272,1.2225313574290684,5898.896650263218
0.276,1.2585753987786,5905.615486658532
0.28,1.294134977138126,5898.317006558555
0.284,1.324619858780035,5899.097638003914
0.288,1.3462576734379894,5903.10006124405
0.292,1.356266480967028,5905.720813981286
0.296,1.3533430038861662,5882.817475115747
0.3,1.3383538392963485,5894.281554226978
0.304,1.3147493516137732,5899.845225211131
0.308,1.2880996851820339,5905.063735904801
0.312,1.2645152990092468,5897.490522693773
0.316,1.2484562412979625,5898.142983049935
0.32,1.2410187890400193,5905.550989372376
0.324,1.2396977980512192,5898.920848929019
0.328,1.239851567564693,5899.2391879636125
0.332,1.2371541690539536,5896.066261472767
0.336,1.2298083437621685,5893.8733795755015
0.34,1.2194586178479323,5897.823110111123
0.344,1.210406410477694,5905.321814608526
0.348,1.2075204359729927,5898.850356160017
0.352,1.2138120188580872,5903.635999711359
0.356,1.2287500564807055,5893.046495695155
0.36,1.2479929409550372,5889.376683712285
0.364,1.264590717693153,5897.887329531305
0.368,1.2712104691141395,5895.581396030769
0.372,1.2626872579727475,5896.951806401276
0.376,1.2381363504121174,5898.679966442619
0.38,1.2019447296447128,5898.009750546473
0.384,1.1632102442406846,5896.320593941866
0.388,1.133578305414611,5908.260845772257
0.392,1.123889835399576,5910.232142412661
0.396,1.1405594095985707,5887.466552751369
0.4,1.1829281041761712,5902.647453245641
0.404,1.2426459646274317,5905.576338978751
0.408,1.3054284689527231,5900.470995069585
0.412,1.3546940534501308,5893.709431758469
0.416,1.3759763331778077,5901.121156637422
0.42,1.3607528375679099,5905.086113504347
0.424,1.3085580295221677,5902.6631799690485
0.428,1.2269405403348193,5904.660146914791
0.432,1.1295941176809476,5900.496774201838
0.436,1.0333819276056986,5898.804118455382
0.44,0.9549699877971881,5908.309823789095
0.444,0.907672022839504,5888.2404644096605
0.448,0.899018166501199,5902.510526604968
0.452,0.9294674375982979,5900.405906516707
0.456,0.992556148055154,5904.276798171661
0.46,1.0765236844313637,5901.978433671024
0.464,1.167028924668348,5910.322698654444
0.468,1.2501663086211123,5897.474404974291
0.472,1.3149286140794236,5901.581742379945
0.476,1.3546057572953913,5902.444069680823
0.48,1.3671117370154142,5906.314269433473
0.484,1.3545870644404452,5907.002628482379
0.488,1.3226602474117248,5905.973493524828
0.492,1.279530916139849,5905.715147731542
0.496,1.234795065125053,5903.682752263379
0.5,1.1978871276427998,5903.766064613517
0.504,1.1762241544935284,5902.5476287107895
0.508,1.1734684636069517,5900.889253080134
0.512,1.1885233417357342,5913.447012267849
0.516,1.2157719207810564,5906.839685635881
0.52,1.2466754869917103,5899.206872695622
0.524,1.2722903413027202,5896.612229285593
0.528,1.2857835298405567,5896.6203619047465
0.532,1.2839820918592115,5904.160076228379
0.536,1.2675261817931878,5895.46956876553
0.54,1.239938859266254,5901.388728560051
0.544,1.20629234231634,5908.856736487101
0.548,1.1719950664177985,5898.401365379522
0.552,1.1418944949263001,5908.033897678441
0.556,1.1196996101707974,5903.374322805486
0.56,1.1076666168787201,5899.415370254304
0.5640000000000001,1.106473279774968,5903.369634972894
0.5680000000000001,1.1152500745204361,5912.920088112359
0.5720000000000001,1.1318063839431116,5900.566651328948
0.5760000000000001,1.1530488992711325,5899.688423219069
0.58,1.175449034682406,5902.72780472848
0.584,1.1953879305671786,5902.980645515579
0.588,1.2093794588400124,5914.379925659081
0.592,1.214364845182975,5899.574970106874
0.596,1.208277941974422,5901.657550864457
0.6,1.1908595437287914,5894.572835429555
0.604,1.1643807179793322,5898.715865881879
0.608,1.1337579887173812,5906.078825206573
0.612,1.1057047562635969,5908.396389753426
0.616,1.0869999034237166,5902.559539016651
0.62,1.0823960364740832,5894.205305094776
0.624,1.092935314577929,5888.488660597534
0.628,1.115405631821228,5900.015246249985
0.632,1.1432871167778613,5902.07846932583
0.636,1.1688811775639834,5910.507795094259
0.64,1.1857265117937756,5903.008470918459
0.644,1.1902910835016656,5895.778938853643
0.648,1.1823720867197414,5900.953923076889
0.652,1.164314442034044,5903.309295943045
0.656,1.139641357039579,5896.396788055904
0.66,1.111783242851571,5895.895258367777
0.664,1.083371962457055,5904.060016046941
0.668,1.056211922528349,5911.559024804292
0.672,1.03171387959581,5899.942070950727
0.676,1.011425863845278,5909.012738992964
0.68,0.9973716160484198,5903.137501101644
0.684,0.9920792694608194,5898.345492704552
0.6880000000000001,0.9982698145406146,5899.853195259403
0.6920000000000001,1.0181972336294274,5899.751032977594
0.6960000000000001,1.0527405025348353,5899.141541324694
0.7000000000000001,1.1005365660485529,5892.4212392879845
0.704,1.157559348758745,5893.132945265716
0.708,1.217486520740624,5898.77446998506
0.712,1.2729291700010446,5896.29056703294
0.716,1.317190360883675,5897.085768284188
0.72,1.345884700875092,5907.306022270226
0.724,1.3577764812096151,5896.5376951523285
0.728,1.3546364437035043,5899.964392159524
0.732,1.340463810160304,5895.852901786932
0.736,1.3206337135969934,5894.140411598505
0.74,1.3012604205125136,5899.236108894734
0.744,1.28861093252417,5898.893266210841
0.748,1.2882234106743853,5896.573821658509
0.752,1.3036331308038882,5892.023346050682
0.756,1.335027639870048,5895.894686567103
0.76,1.3784207970636777,5898.175112600728
0.764,1.4259114239366883,5908.505693428998
0.768,1.467268025716148,5897.879555377391
0.772,1.4925471110759634,5902.109423697465
0.776,1.4949433529280125,5895.695701661579
0.78,1.4728770386280168,5896.890509746813
0.784,1.4305762989217103,5894.782846281896
0.788,1.3769666948205155,5899.335712261996
0.792,1.3232481869437753,5895.326672423134
0.796,1.2798951646630343,5901.0260170684505
0.8,1.2539224652164531,5899.1852117177095
0.804,1.2471664498327861,5897.629195210806
0.808,1.2560248017224418,5895.580802399373
0.812,1.2726338248240872,5900.777783942568
0.8160000000000001,1.2870634932872467,5908.372469917343
0.8200000000000001,1.2899464808995258,5905.064920776601
0.8240000000000001,1.274957524228087,5903.2475232694
0.8280000000000001,1.2406014535654943,5898.512436633816
0.8320000000000001,1.1908651295926742,5893.268413454513
0.836,1.1345182256957254,5906.665883085211
0.84,1.0832044884891685,5907.853524741931
0.844,1.048802753871583,5901.145260799007
0.848,1.040674474079972,5894.645287233279
0.852,1.0633464284071399,5897.292449084643
0.856,1.11508620088683,5897.520318468504
0.86,1.1877832408913709,5905.409891000841
0.864,1.268359582165308,5902.442296539842
0.868,1.3414921187965019,5895.3157134641415
0.872,1.3929789238403694,5901.698144882551
0.876,1.4129128175344488,5901.13644725822
0.88,1.3979175102382675,5901.766250872232
0.884,1.351920342495374,5906.615440322431
0.888,1.2852570237898828,5899.5563720662585
0.892,1.2122784499999575,5898.984164950967
0.896,1.1479441248822961,5909.276100108094
0.9,1.1041456743741205,5904.99868950042
0.904,1.0867412576798827,5899.519206011519
0.908,1.0942858672888272,5897.431949407602
0.912,1.1189376490057807,5901.787464321428
0.916,1.1491789274779551,5898.31045951951
0.92,1.173376082046855,5894.662305163497
0.924,1.1831072415574035,5898.00877256507
0.928,1.1754156825934345,5910.362991755425
0.932,1.153466629877461,5895.960299573153
0.936,1.1254644979984003,5906.600830923566
0.94,1.1021120263274733,5906.825853898991
0.944,1.0932847371946521,5905.40921488113
0.948,1.1048743725075878,5902.187429830358
0.952,1.136799069346617,5899.054163749482
0.956,1.1828495735353652,5896.605018699875
0.96,1.2323983804853966,5896.665554920722
0.964,1.2733362633013112,5899.6243865097895
0.968,1.2952336562086129,5899.741895823628
0.972,1.291794816543443,5896.141186014177
0.976,1.2620754362800002,5897.557635974972
0.98,1.2103934085121133,5899.498961390849
0.984,1.1451571330272865,5892.795079799703
0.988,1.076954450821813,5910.704918952493
0.992,1.016312480915371,5900.560465783851
0.996,0.9716168524818399,5900.609042268029
1.0,0.9476746437765136,5903.003402537816
1.004,0.9452266681755971,5892.835016605669
1.008,0.9614328603677657,5893.860631436151
1.012,0.9910871634569183,5907.062910165635
1.016,1.0281125412582734,5900.729981036914
1.02,1.0668324939780904,5894.937580189293
1.024,1.1027220907612663,5910.429725635004
1.028,1.1326950094942145,5905.6529136165045
1.032,1.1551817255244223,5896.507890186085
1.036,1.1701471559899523,5903.581698178431
1.04,1.1789404662455027,5892.552495924324
1.044,1.1837841158192288,5892.686441878759
1.048,1.186964479003056,5899.432148579255
1.052,1.1901426402173132,5893.897949308802
1.056,1.1942227120644968,5900.4789890394295
1.06,1.1998095127390471,5897.867165127591
1.064,1.2078138913638348,5898.860006413318
1.068,1.2196065232190842,5902.234600558782
1.072,1.2364216228987568,5900.599673164237
1.076,1.258311891798865,5896.462266186816
1.08,1.2833989245182458,5898.485301801732
1.084,1.308030821632897,5891.170892446562
1.088,1.3278561419461625,5899.725511210451
1.092,1.3392838876892894,5900.867105876939
1.096,1.3406737178294663,5904.509400298011
1.1,1.3328084874065305,5909.314250940274
1.104,1.318531244791998,5903.260743120021
1.108,1.3017518045687149,5904.5432098369465
1.112,1.286220855470507,5899.490531608049
1.116,1.274445868492663,5905.488618187325
1.12,1.2669874439980273,5902.952229178656
1.124,1.2622965424386616,5901.374806482894
1.128,1.2572028015607744,5894.65245726045
1.132,1.2480165643475754,5899.776105501471
1.136,1.2319760922618463,5897.463528180357
1.14,1.2085479501560585,5899.614957837915
1.144,1.1799794508292947,5892.966331863332
1.148,1.150680633022379,5904.820882710414
1.152,1.1255374773961349,5900.3639045174605
1.156,1.1078705721514484,5905.891685341001
1.16,1.098045974962693,5898.247145763047
1.164,1.0934722114843158,5908.072325453122
1.168,1.089991843119111,5900.11318233823
1.172,1.083942827550284,5898.211222717223
1.176,1.0738664258706254,5892.150355913066
1.18,1.0610771684755256,5895.201591649611
1.184,1.0488994882817284,5899.881953844
1.188,1.0410437179081444,5896.549136078202
1.192,1.0400202469994966,5894.286556948887
1.196,1.0464003249993241,5906.754433522846
1.2,1.0591705436776417,5892.8981358013725
1.204,1.076782748324625,5896.930908015688
1.208,1.0981686551289298,5903.198848986172
1.212,1.1231260652387685,5906.602835595807
1.216,1.1519601725887512,5908.111636027025
1.22,1.1847161253347414,5892.32457114181
1.224,1.2204709373172644,5896.685880080428
1.228,1.2570116092823849,5903.86506140461
1.232,1.2910220370577394,5898.693827897495
1.236,1.318723979891781,5899.468770364492
1.24,1.3367847051582677,5891.6228546983575
1.244,1.343238575086674,5901.114135402843
1.248,1.338143409415115,5904.421423898937
1.252,1.3236812963614053,5895.262246127567
1.256,1.3035133143594584,5891.751980306635
1.26,1.2815238462686664,5882.766021289022
1.264,1.2605058348426221,5889.934056989663
1.268,1.2414541742581926,5899.484809351228
1.272,1.2237759694360284,5894.343219092462
1.276,1.2062078468785045,5901.664436023769
1.28,1.1879449128506143,5902.535245466745
1.284,1.1694863442668375,5894.378932920589
1.288,1.1528477942857989,5895.575550368387
1.292,1.1410036600987996,5899.037496754559
1.296,1.1366899711351863,5898.338309113949
1.3,1.1409971771988465,5896.244109801918
1.304,1.1524096165854745,5912.573463790448
1.308,1.1669013113073423,5902.956162869971
1.312,1.1792582404330565,5893.478998376767
1.316,1.1851684574161938,5895.821111162692
1.32,1.1831932890273953,5906.064903384531
1.324,1.1757131981765996,5903.54468059553
1.328,1.1682914524933012,5891.466578513717
1.332,1.1675264089743347,5902.982059129727
1.336,1.1781990792127601,5899.917656154884
1.34,1.2009766146455338,5899.26477128952
1.344,1.2317287654507916,5905.601219040255
1.348,1.2627187930151602,5898.1695410699
1.352,1.285054577342653,5903.372500907638
1.356,1.291343258603083,5898.417879353278
1.36,1.2776166521249444,5904.280139648324
1.364,1.2440596503254813,5895.169659177748
1.368,1.1945781275277252,5894.697339803581
1.372,1.1355926032879835,5895.223885284974
1.376,1.074562234145653,5900.4785897582815
1.38,1.0186439695667002,5906.876893136004
1.384,0.9736704364357516,5906.467965935331
1.388,0.9434481664807028,5904.787733217805
1.392,0.9293504768612126,5904.850279881979
1.396,0.9302627075423879,5901.525726408039
1.4,0.9429958910459341,5896.9851183910105
1.404,0.9632075971859833,5901.410724377786
1.408,0.986635120442578,5905.143634817966
1.412,1.0102151803989492,5905.408560478444
1.416,1.0326597819191632,5898.192973614866
1.42,1.054282033756277,5894.622124143963
1.424,1.0761500984167125,5894.198025964231
1.428,1.0989154326691657,5906.152640408498
1.432,1.1218691229657385,5908.158526758035
1.436,1.1427556152929081,5905.984310046011
1.44,1.1584988325168666,5904.501250055557
1.444,1.1664618623182919,5905.15374541153
1.448,1.1655567553906485,5898.162995469787
1.452,1.1566794389205053,5907.231156782387
1.456,1.1424200136771694,5902.116308399391
1.46,1.1263775407156322,5903.920639989805
1.464,1.1124102948475234,5900.495841248396
1.468,1.1039111463530544,5898.164868309132
1.472,1.1030563346912219,5901.140662486188
1.476,1.1100657306881139,5899.345685261002
1.48,1.122684115691206,5904.925569485114
1.484,1.1361757021890218,5902.15677294401
1.488,1.1440591787680936,5890.78589730201
1.492,1.1395960628385824,5896.868638333598
1.496,1.1177334901691756,5894.905944817978
1.5,1.0769358381644436,5903.882938752974
1.504,1.0202813787982834,5892.625671574386
1.508,0.9553950486807773,5895.011832507827
1.512,0.8931249185590945,5903.534239598967
1.516,0.8452152549829335,5900.012562263249
1.52,0.8215253015182176,5902.326847534581
1.524,0.8275313262416035,5906.1203197773975
1.528,0.8628387781127336,5900.938614947288
1.532,0.9211843488677575,5900.687452310861
1.536,0.9919650085843669,5907.27446154978
1.54,1.0628269777625472,5903.805251664814
1.544,1.1225263321985983,5898.397115691266
1.548,1.1632871365768656,5899.28827952815
1.552,1.1821156772107664,5902.537405916487
1.556,1.1808060077096114,5896.646850528133
1.56,1.1646951997567354,5903.734021666061
1.564,1.140616360029051,5904.250552144959
1.568,1.1147836082636648,5898.906992814319
1.572,1.0913229078372246,5896.060069348753
1.576,1.0718503905370615,5893.9384123587
1.58,1.0560670157139131,5904.741897454383
1.584,1.0429444282496907,5901.672584614948
1.588,1.0318728473362893,5904.535007242908
1.592,1.0232239688723401,5905.546917424181
1.596,1.0180781054388692,5902.794927066267
1.6,1.017256571773929,5903.31365877018
1.604,1.0202160673963434,5897.992572171637
1.608,1.0245761427646558,5900.927534305767
1.612,1.0267514957143842,5904.102606306679
1.616,1.0234524706129615,5905.469172730948
1.62,1.0132761132309696,5895.219015687179
1.624,0.9976266524929918,5908.813638692104
1.628,0.9806024018922018,5897.0631273236
1.632,0.9679052059487765,5906.0694472427485
1.636,0.9651340113208481,5898.875478875667
1.64,0.9760193506337095,5893.609963191784
1.644,1.0011745891481116,5906.667481373507
1.648,1.0377243984823434,5893.572723519684
1.652,1.0798385657905571,5899.253197508749
1.656,1.1199629521873493,5908.950254196895
1.66,1.1504663556901567,5902.936537548576
1.664,1.1653832760428255,5911.41789767727
1.668,1.1618406474626108,5904.497689034605
1.672,1.1407483395871147,5907.62749282706
1.676,1.1065559579144517,5901.348670272849
1.68,1.066194134168441,5910.989111572059
1.684,1.027482217192228,5906.212031426492
1.688,0.997309329150509,5904.441238433212
1.692,0.9799465868365361,5898.5743368085
1.696,0.9759112259078003,5913.7581166495
1.7,0.9817473513729308,5911.733526862474
1.704,0.9908991768698101,5903.27538076379
1.708,0.9955757253941488,5894.092844062035
1.712,0.9891385104464632,5899.77997665658
1.716,0.9682055117576084,5906.248157950241
1.72,0.9336612427829847,5904.418866087448
1.724,0.8902308197197015,5898.385405658437
1.728,0.8449209370839139,5902.361741358873
1.732,0.8050094567423609,5901.375881753512
1.736,0.7762352394566796,5901.432944169696
1.74,0.7616071420464285,5908.058982671067
1.744,0.7610311829026012,5905.670287594406
1.748,0.7717486118210225,5908.267272868921
1.752,0.7893565132147573,5910.195364988176
1.756,0.809061378071877,5905.673087236243
1.76,0.8268489322153625,5905.09560653926
1.764,0.8403167215949837,5904.765765273744
1.768,0.8489694891371528,5902.512161424871
1.772,0.8539356573758002,5902.197320096267
1.776,0.857288396468462,5898.467253117081
1.78,0.861233209266117,5899.965033536628
1.784,0.8673297287034575,5891.471131877153
1.788,0.8758509856926716,5910.378504993778
1.792,0.8854299936869623,5900.924310685611
1.796,0.8931722931664279,5899.581656222593
1.8,0.8953140511719054,5912.873438292539
1.804,0.8883017589944034,5898.674467657883
1.808,0.8699856236111363,5893.186298943855
1.812,0.8405857725688187,5904.567123605281
1.816,0.8031815213890319,5902.964502119893
1.82,0.7635342761402507,5906.195371632113
1.824,0.7290979504986311,5905.286904567586
1.828,0.7073006531856463,5887.943945031695
1.832,0.7035816430090116,5903.613321578748
1.836,0.7198868302475575,5908.104073420401
1.84,0.7541347909255985,5891.087656684739
1.844,0.8007301430486802,5899.13124665287
1.848,0.8518202120310597,5889.071587036784
1.852,0.8988335750539092,5896.830936263067
1.856,0.9339298325264234,5904.01735347507
1.86,0.9512041777209063,5904.191493186778
