时间(s),电压(V),幅值(高频80K)
0.0,1.0843918368246406,5893.679827081648
0.004,1.1135200421351408,5904.8227604030935
0.008,1.1385194963966043,5898.211652456061
0.012,1.1555142937349105,5892.968683713224
0.016,1.1610474869842466,5907.729452373927
0.02,1.1528621749408727,5901.926293025009
0.024,1.1308780073725373,5898.783810832919
0.028,1.0978164089377307,5896.168874321026
0.032,1.0589081720793663,5904.913910364459
0.036,1.0205445548896446,5908.227458835366
0.04,0.9883708412914788,5904.781880882692
0.044,0.9656900440357218,5905.126403783181
0.048,0.9528489432187167,5899.588005865138
0.052,0.9477018287368119,5905.632037586837
0.056,0.9467535425747732,5902.786669589655
0.06,0.9464478441539739,5900.617169470616
0.064,0.9442020391749922,5893.931287811054
0.068,0.9389748563630117,5893.941836969412
0.072,0.9312831912487852,5903.063674502032
0.076,0.9226953193739506,5902.898346854764
0.08,0.9150005860810799,5903.123448298208
0.084,0.9094349314681599,5905.204509531909
0.088,0.9063374828641039,5899.827822299731
0.092,0.9053498587512123,5896.096721707209
0.096,0.9059511387680349,5902.415934434673
0.1,0.9079977901618307,5893.476171622521
0.104,0.9119981182352072,5907.25926726456
0.108,0.9189448363142083,5908.729575736948
0.112,0.9296799173911755,5891.334831183292
0.116,0.9440637726860974,5899.560494654762
0.12,0.9604862395715722,5908.846909458836
0.124,0.9761598732539577,5900.418222140667
0.128,0.9881643049292035,5893.051159275913
0.132,0.9947363877104405,5903.21732066714
0.136,0.9961639459724684,5901.326707199596
0.14,0.9948558013618684,5897.61232732895
0.144,0.9945325360301834,5897.750470160756
0.148,0.9988299883733966,5898.250478397311
0.152,1.0098225601816462,5907.421959075223
0.156,1.027007228924119,5902.716045211871
0.16,1.0471555910794013,5903.996888044229
0.164,1.0651679129020717,5890.860644495481
0.168,1.0756876671975724,5903.687025867322
0.172,1.0748985486088642,5902.362823286834
0.176,1.0618312144307662,5902.014569442892
0.18,1.0387326349864485,5896.235710367874
0.184,1.0104702775745646,5895.465312563831
0.188,0.9833007189801368,5896.090541883278
0.192,0.9634365134858495,5900.552562555292
0.196,0.9557525831502984,5901.776582397985
0.2,0.9628711815691569,5899.463849010909
0.204,0.9847775879767366,5903.652900676947
0.208,1.0189615513551127,5894.357014266964
0.212,1.060941535946692,5894.139341133993
0.216,1.1050606215529062,5901.281248410074
0.22,1.145517523637196,5902.86087590717
0.224,1.1774796271460037,5902.050957765649
0.228,1.19791930087639,5903.27335344638
0.232,1.2058547014507948,5892.22438568681
0.236,1.202022693587734,5893.191267339995
0.24,1.1883357175866331,5906.5949804285365
0.244,1.1674638369115808,5898.680682519884
0.248,1.1425901737342437,5905.517938213272
0.252,1.11713966527051,5899.944314980669
0.256,1.094329713288426,5900.123175473833
0.26,1.0766581764709893,5900.077054603186
0.264,1.0656066427958748,5894.410745372831
0.268,1.0617050806932877,5898.237113480883
0.272,1.0648314227331912,5895.928574615587
0.276,1.0744815329023572,5903.263572555507
0.28,1.089822424099605,5903.1668575229005
0.284,1.1095056954832243,5891.547115251045
0.288,1.1313451928801772,5895.143276298017
0.292,1.15205740640131,5903.774437910361
0.296,1.1673454936948529,5895.584971675926
0.3,1.172568271411697,5894.833208535874
0.304,1.1639544763299754,5907.400770081854
0.308,1.1399316439839904,5899.9372995986105
0.312,1.101958017742163,5894.381460501866
0.316,1.054437022480765,5896.750620450871
0.32,1.0037308288250562,5903.209681219515
0.324,0.9567014634744687,5898.568578307812
0.328,0.9193443192832236,5895.761652292059
0.332,0.8958810685977596,5894.002669227806
0.336,0.888355476253543,5906.342625630112
0.34,0.8965855318158873,5908.597084676616
0.344,0.9183223849686408,5907.609740320601
0.348,0.9495487907150807,5897.945742080168
0.352,0.9849341428542561,5897.556593294378
0.356,1.0185087535848094,5893.507593210001
0.36,1.0445823870970088,5903.134180853499
0.364,1.0587984963223809,5893.433141265908
0.368,1.0590650904344014,5900.23058362131
0.372,1.0460542739923064,5898.978290441719
0.376,1.0230634038223967,5896.535318130462
0.38,0.9952387723249361,5896.69928047652
0.384,0.96837281758834,5888.084768592786
0.388,0.9475848912996837,5902.975654425499
0.392,0.9361736768861382,5901.7507056953655
0.396,0.9348792386817563,5905.018571084979
0.4,0.9417561992862008,5898.618495915094
0.404,0.9527654581613494,5902.333997133997
0.408,0.9629745779450872,5901.206483382697
0.412,0.9680020731671074,5896.8212601831965
0.416,0.9652483403415096,5898.790779975949
0.42,0.9546035610075906,5905.37117564599
0.424,0.9385561015135678,5894.631368768164
0.428,0.9217518879242721,5901.229628189169
0.432,0.9100569198192873,5899.221438771203
0.436,0.9091846792203471,5892.610328895901
0.44,0.9230903509508586,5898.50318806696
0.444,0.9525704627503079,5909.560664224393
0.448,0.9946320568341104,5897.328451940429
0.452,1.0430111425102293,5902.2683447148975
0.456,1.0897615385926884,5897.472188406199
0.46,1.1273603160669912,5898.536579357335
0.464,1.1505634986599638,5907.373990437158
0.468,1.1574300161000668,5904.615849288832
0.472,1.1493878633990995,5900.098233155183
0.476,1.1305912976713097,5906.718684233519
0.48,1.1068755243244062,5894.126979654333
0.484,1.0844981379924319,5897.948884111996
0.488,1.0688242389357034,5899.219793353803
0.492,1.0631865188447658,5897.612759358306
0.496,1.0681988223370733,5893.063738152914
0.5,1.0817426422194294,5904.513706612066
0.504,1.0996652723872191,5904.546991633511
0.508,1.1169907378445862,5903.166544616154
0.512,1.1293039429636778,5899.755827997061
0.516,1.1339843104277654,5900.816337839927
0.52,1.131016742186767,5903.317122426336
0.524,1.123111129100529,5903.982944418413
0.528,1.1149278576302852,5897.617709234247
0.532,1.1114793191198933,5904.349195185362
0.536,1.116188542336081,5897.04384710009
0.54,1.129355838945847,5909.804470361005
0.544,1.1476793122914204,5896.979089877538
0.548,1.1650376769436168,5900.392459039753
0.552,1.1742418667483874,5898.871121963704
0.556,1.169146163249833,5901.499402557815
0.56,1.1464526779003639,5892.154211966352
0.5640000000000001,1.1066848013402648,5902.266380206769
0.5680000000000001,1.0540859476815314,5898.706736641523
0.5720000000000001,0.995571033964738,5895.929407428104
0.5760000000000001,0.9391818706402195,5905.769371281227
0.58,0.8925861880379503,5906.185919776447
0.584,0.8619698570944163,5900.1285406695815
0.588,0.8513663736380195,5905.827582625532
0.592,0.862267844011976,5905.5395524025735
0.596,0.8933739757034993,5896.262883439906
0.6,0.9405034279806584,5903.175279501974
0.604,0.9968717897685808,5903.210510249922
0.608,1.053977498869166,5900.105854364944
0.612,1.1031243015532208,5904.613202852314
0.616,1.1372380524612886,5899.019855206599
0.62,1.152410029479237,5905.167002479132
0.624,1.1486913058156127,5897.198369806941
0.628,1.1299172425495088,5902.888151327309
0.632,1.1025852721295746,5897.260481778107
0.636,1.0740759736266083,5895.240638598861
0.64,1.0507777419316233,5903.6420853960335
0.644,1.03673243437212,5902.7515457148265
0.648,1.0331537675117972,5899.255062688109
0.652,1.0387745469307228,5897.755807971887
0.656,1.05070853370751,5909.107149935196
0.66,1.0654517590362116,5900.466321863538
0.664,1.0797463447410798,5899.84715786399
0.668,1.091177589047386,5899.317414073886
0.672,1.098463952959317,5907.50030940628
0.676,1.1014396817439542,5898.51286818475
0.68,1.1008065563921468,5901.08020454263
0.684,1.0978172982063827,5899.292821934523
0.6880000000000001,1.0940264865144773,5897.485094851662
0.6920000000000001,1.0910892013403175,5895.666810808578
0.6960000000000001,1.090453811876937,5896.75346769976
0.7000000000000001,1.0928565589341432,5901.435472468854
0.704,1.097773599760207,5905.262438438003
0.708,1.103189395876607,5892.636663399754
0.712,1.1059795124015994,5904.2758494899645
0.716,1.1029133520111953,5901.818475607675
0.72,1.0919554133459763,5907.6719600167
0.724,1.0733244008016298,5890.697090525196
0.728,1.0497523033547091,5901.610564717006
0.732,1.0256799680571074,5904.238604297403
0.736,1.0056703500091775,5899.829895864193
0.74,0.9927653753302504,5913.374334947084
0.744,0.9875318589744679,5898.087699185311
0.748,0.9881752400528517,5891.091757238402
0.752,0.9916165145439142,5907.351923594876
0.756,0.9950205630254065,5895.345890046383
0.76,0.9970593383086176,5898.608756714113
0.764,0.9983430529001065,5897.849358073296
0.768,1.0009363230682833,5906.533432255023
0.772,1.0073625327858937,5895.745861208782
0.776,1.0196467959776134,5895.755378733651
0.78,1.0387481942541252,5897.632501547211
0.784,1.0644295024043535,5895.36163827715
0.788,1.0954113685827478,5900.308086134299
0.792,1.12960903232947,5899.135208547732
0.796,1.1643095337652802,5902.693179822053
0.8,1.1962602438299907,5899.538228215327
0.804,1.2217794110120614,5901.295548436533
0.808,1.237111283508909,5909.486591009248
0.812,1.239190683635767,5907.20945905226
0.8160000000000001,1.22668212253076,5888.595924793105
0.8200000000000001,1.2008155794605384,5900.08928120219
0.8240000000000001,1.165475344933072,5903.988693558396
0.8280000000000001,1.126298716953607,5897.865176667992
0.8320000000000001,1.0890156739708654,5900.893921328079
0.836,1.0576579499293524,5909.147101243697
0.84,1.0334069001446227,5902.4272740931165
0.844,1.0146355141508479,5905.054080679428
0.848,0.9981593870266173,5899.3717494056245
0.852,0.9810980862084465,5901.568125594561
0.856,0.9624619208606753,5905.709877010208
0.86,0.9438027570119891,5897.218648654483
0.864,0.9287816704312466,5905.3323751519565
0.868,0.9219659436433096,5903.399233604617
0.872,0.9273772804579169,5898.490412665325
0.876,0.9472361982347377,5904.746740934196
0.88,0.9811117144737714,5901.963669037077
0.884,1.025534784023797,5894.861401465349
0.888,1.0741715261894769,5900.381967969385
0.892,1.1187060588602622,5896.149566060011
0.896,1.150454166009172,5895.124472173171
0.9,1.162436591002606,5907.627972561854
0.904,1.1513522372125413,5905.3838864721465
0.908,1.1187880608778007,5901.806122433303
0.912,1.0711933372197455,5896.925544214411
0.916,1.0185569430398498,5900.568686148009
0.92,0.9721435498936444,5906.485744474853
0.924,0.9419131155634324,5895.32678107334
0.928,0.934313948094241,5896.327735638913
0.932,0.9509842754323081,5902.450128784357
0.936,0.9885795108572094,5903.991500851101
0.94,1.0396317764385394,5897.184863654258
0.944,1.0941857505335302,5904.3676050465865
0.948,1.1418950565030332,5894.244242017313
0.952,1.1741774088829917,5901.773579577291
0.956,1.1859408576713046,5902.273560042521
0.96,1.176450852512294,5899.011049254547
0.964,1.1491422111616196,5903.343972833232
0.968,1.1104834968087498,5901.694029372091
0.972,1.0682396819992916,5903.118324491537
0.976,1.0295836466157757,5909.143406011594
0.98,0.9995096757219026,5898.399347732477
0.984,0.9799400886083576,5897.063019613977
0.988,0.9697530877842121,5906.340049975028
0.992,0.9656938600842979,5899.957742653761
0.996,0.963850869609491,5899.147147540824
1.0,0.9611776157099879,5896.653832758374
1.004,0.9565132950665679,5892.887351700509
1.008,0.9507891506128885,5905.1447756426
1.012,0.9464992558497597,5902.015126648104
1.016,0.9467796797143249,5900.4148300184825
1.02,0.9544348338271457,5898.437125860048
1.024,0.971128178450329,5899.65832920453
1.028,0.996889237609102,5895.407888532884
1.032,1.0300375611193446,5894.847690589294
1.036,1.0674953330397274,5890.725002049519
1.04,1.105320520136238,5905.669676668279
1.044,1.1392680696860764,5899.7288053661805
1.048,1.1652843944757851,5900.340321236735
1.052,1.1799574263124066,5903.03805354549
1.056,1.180980954862487,5895.952446174314
1.06,1.1676289993167994,5898.904108185243
1.064,1.1411364410985863,5900.958798416322
1.068,1.104807249098625,5897.385870384258
1.072,1.0636533894420586,5907.221733167032
1.076,1.0234741372742493,5896.03876562449
1.08,0.9895450257081276,5898.308043803603
1.084,0.9653398183887814,5893.505914545864
1.088,0.9517450049742675,5902.660775230287
1.092,0.9470244890406286,5894.270725640264
1.096,0.9475087592454513,5900.981360026096
1.1,0.9487676207022279,5901.889511805498
1.104,0.9469200922968382,5901.945809587998
1.108,0.93970931185736,5904.96032587776
1.112,0.9270242863745868,5891.917390278446
1.116,0.910718325977868,5901.501536681471
1.12,0.8938288404125946,5899.497401500433
1.124,0.8795354926085064,5902.433533106134
1.128,0.8702806230331074,5901.933015496377
1.132,0.8673589940365081,5897.917004270544
1.136,0.871025915249897,5888.936338528827
1.14,0.8809216593995683,5896.593396116634
1.144,0.8964896312427342,5905.284281823037
1.148,0.9171263860918648,5899.84000395544
1.152,0.9420200384292327,5899.677013388143
1.156,0.9698772003613157,5907.701096573247
1.16,0.998801715979313,5899.899559358549
1.164,1.0264112787274724,5900.696685653209
1.168,1.050077661095254,5899.184349233568
1.172,1.0671776665082833,5901.582675398299
1.176,1.0753576924440673,5905.883463339649
1.18,1.0728255477669415,5887.505065211186
1.184,1.058610591674071,5903.783471544459
1.188,1.0327490751580084,5901.919616341263
1.192,0.9964440223085919,5892.56838782363
1.196,0.9522565728298304,5900.813998042937
1.2,0.9042612824897285,5899.194564029043
1.204,0.8579578047246773,5897.03535702493
1.208,0.8197239615474399,5912.357128442036
1.212,0.7957783665702464,5902.730109818008
1.216,0.7909009479804081,5883.228133930625
1.22,0.8073465803901888,5900.027955723018
1.224,0.8443304003132235,5899.207530492085
1.228,0.8981794905382364,5894.217671804288
1.232,0.962954392260947,5901.266718232693
1.236,1.0312805120419573,5895.948429767962
1.24,1.0952660728240136,5898.142846704052
1.244,1.1474883373642102,5898.407732713238
1.248,1.1820010646422867,5891.285576399416
1.252,1.1952482303030736,5899.354549170431
1.256,1.186723422339045,5902.808820078
1.26,1.159170042492513,5904.960957918689
1.264,1.118136632612018,5900.24691313161
1.268,1.0708850062779287,5893.909784658512
1.272,1.0249242057147738,5897.24976839126
1.276,0.9866154927174144,5899.835434535165
1.28,0.9602651602475616,5896.962782438765
1.284,0.9479129183150132,5906.3391571953925
1.288,0.9497009264638119,5893.974101041642
1.292,0.96443594272708,5901.186189450638
1.296,0.9899539595832064,5908.390341713954
1.3,1.0231877943808096,5903.815094906957
1.304,1.0601551642325382,5902.77273514441
1.308,1.0961541288224763,5898.977285420113
1.312,1.1262923724242684,5894.982253224571
1.316,1.146287609482407,5897.456862864797
1.32,1.1533516238447312,5903.9760029371055
1.324,1.1468824250289498,5901.405930922367
1.328,1.128676173770065,5901.338930311646
1.332,1.102528580486593,5902.214410594099
1.336,1.0733824421718476,5903.48739795669
1.34,1.04637513903504,5894.252366106091
1.344,1.0260672329993428,5899.534997804153
1.348,1.0158745533976368,5897.163187690272
1.352,1.0175769599252316,5906.830553875703
1.356,1.0309005688348476,5898.724490997618
1.36,1.0533787268316903,5892.985496475633
1.364,1.0807179755350644,5905.119959749475
1.368,1.1077159231838598,5900.2867012903935
1.372,1.129541937407602,5902.89082739437
1.376,1.142995774799208,5896.260678572593
1.38,1.1473071981291205,5900.296798615815
1.384,1.1442004341283125,5907.407367356485
1.388,1.1372154655163882,5904.429848019027
1.392,1.1305067490456564,5892.489812217112
1.396,1.1274955344422883,5909.476367502417
1.4,1.1298045403370738,5901.260685119402
1.404,1.1367938850734993,5893.980251866517
1.408,1.1457963437701648,5892.929303927086
1.412,1.152938754107225,5894.938278535112
1.416,1.1542745583018712,5898.7392774259615
1.42,1.1468637278372817,5900.828610678402
1.424,1.1295057112841693,5894.247145527865
1.428,1.103038082783745,5910.383167590122
1.432,1.0702588599087821,5901.90324689723
1.436,1.035501423299933,5890.002673692317
1.44,1.0038351122697966,5902.221528032853
1.444,0.9799635733288652,5905.744588929671
1.448,0.9671036678622298,5896.223637708292
1.452,0.9662386284908262,5900.869778564167
1.456,0.9760140315446122,5904.247538515921
1.46,0.9932689641996153,5898.221888574098
1.464,1.0139705664053555,5900.031741291381
1.468,1.0342511822448477,5900.130419535622
1.472,1.051294180471866,5901.519823539359
1.476,1.0639083745804394,5903.604917310765
1.48,1.0727091762353809,5901.657387242273
1.484,1.079842121724073,5889.861773759246
1.488,1.0882014398130337,5896.41414645536
1.492,1.1002433659267676,5896.414183540179
1.496,1.1167657597138243,5892.795718056653
1.5,1.136195416277028,5904.561598203432
1.504,1.1547594050930188,5897.643641464005
1.508,1.16748510705074,5899.781482701412
1.512,1.1696074698975145,5900.971257534345
1.516,1.157872717446795,5902.386242893619
1.52,1.1313572875919917,5899.631153457336
1.524,1.0916532227337081,5902.754873612559
1.528,1.042515409018592,5901.840588428035
1.532,0.9892039054625676,5907.265965878391
1.536,0.9377352593340285,5888.515060127848
1.54,0.8941482856234376,5897.103782935319
1.544,0.8637779963963669,5897.143630755897
1.548,0.8504820556179091,5912.049313286985
1.552,0.8558330391658143,5896.9326132387405
1.556,0.8784582603991044,5895.955526801906
1.56,0.9138536476686119,5898.537508867908
1.564,0.9549743730730514,5900.349840472354
1.568,0.9936588676097328,5896.399349428742
1.572,1.0225661039203942,5895.603743316139
1.576,1.0370006363052513,5901.187650261159
1.58,1.0359710357329268,5899.944278572415
1.584,1.0221365181208992,5899.376768243006
1.588,1.0007636878702293,5897.430190080206
1.592,0.978144018642432,5906.968990515023
1.596,0.959978320964006,5902.796383579122
1.6,0.9501137057702977,5896.943553904265
1.604,0.949865812494987,5896.750948515627
1.608,0.958029520363248,5890.030373052917
1.612,0.9715449876459129,5902.994735830052
1.616,0.9866037730313054,5900.962592896139
1.62,0.9998083232525969,5909.131758536542
1.624,1.0089812090355725,5903.160858786925
1.628,1.0134220392955857,5901.491475905729
1.632,1.013701871156792,5891.68544408042
1.636,1.011254057350426,5897.676042773639
1.64,1.0079714634665453,5900.54920455938
1.644,1.0058503781657369,5903.421610921038
1.648,1.0066150381043129,5901.49793514398
1.652,1.0113169572338585,5901.597241629343
1.656,1.020058430065405,5902.6628213513895
1.66,1.0320512636253827,5900.345800904806
1.664,1.0460702855123436,5902.320046086837
1.668,1.0610875500302042,5897.157781688685
1.672,1.076717000231845,5905.614618452772
1.676,1.0932068184431334,5890.233881152548
1.68,1.1109873785854245,5890.187824085488
1.684,1.1300126387103802,5894.215250672066
1.688,1.149224118067652,5897.816245807546
1.692,1.166419376344515,5904.257869697828
1.696,1.1786356014081327,5903.295565971558
1.7,1.1829199288360364,5899.933422413873
1.704,1.1771774106211412,5896.863238738811
1.708,1.1607793303338863,5900.829832735783
1.712,1.1347635673861873,5897.390277050252
1.716,1.1016171494431013,5897.459927438219
1.72,1.0647080548641867,5896.68733937748
1.724,1.027516842906155,5901.484732142525
1.728,0.9929494602096465,5900.213724209483
1.732,0.9630113651893238,5910.98658791956
1.736,0.9388915139923013,5900.033167953076
1.74,0.9212559052200872,5903.304293248141
1.744,0.9105030781399854,5900.6247940369685
1.748,0.906828400627744,5907.659245058766
1.752,0.9100243398773888,5900.8261902889135
1.756,0.9190106044544006,5896.218436792033
1.76,0.9312423518032397,5898.878850729835
1.764,0.9423690512889364,5906.205458740324
1.768,0.9466035499424111,5892.997482733974
1.772,0.9380257602135238,5902.25287512241
1.776,0.9125700107118987,5898.790385682454
1.78,0.8700000435457802,5901.815116396876
1.784,0.8149947489912236,5897.997735843942
1.788,0.756690220384017,5906.147711390801
1.792,0.7066230777144276,5902.496573672856
1.796,0.6756957282816234,5905.06643304582
1.8,0.6711732275325804,5907.592347220317
1.804,0.6947021511067771,5907.796311254663
1.808,0.7419701803541884,5901.528553586313
1.812,0.8040172530580161,5897.962156897605
1.816,0.8696278873351293,5910.85321142362
1.82,0.9279708802811465,5900.771588560488
1.824,0.9707516999644522,5893.353679602174
1.828,0.993441882573155,5907.774823061539
1.832,0.9954869659925881,5900.349907331058
1.836,0.97966589900008,5907.01515696561
1.84,0.9509358962884892,5896.901859844328
1.844,0.9151534241121811,5899.5753739705
1.848,0.8780060941743043,5896.53670460342
1.852,0.8443170597151425,5892.141283797854
1.856,0.8176854528201472,5902.692872200587
1.86,0.8003396660095836,5899.859487572443
