时间(s),电压(V),幅值(高频80K)
0.0,1.0808840301709746,5897.907445864095
0.004,1.137065926638417,5902.130748409256
0.008,1.1859000307855048,5901.342716644633
0.012,1.222011406801375,5904.658726828906
0.016,1.2418674007452675,5898.002157428091
0.02,1.2439187215174796,5900.382614217961
0.024,1.2288037739829647,5912.8825473762745
0.028,1.1998108898033983,5895.244582646982
0.032,1.1632284968715487,5897.566913718436
0.036,1.127986912314321,5893.613849168533
0.04,1.1042660299663665,5906.15527346461
0.044,1.1012477598302628,5897.694380560277
0.048,1.1246161556326284,5902.592787314969
0.052,1.1746217335392342,5897.621866083745
0.056,1.245506945993623,5888.804961196361
0.06,1.3267332656637905,5896.500247556685
0.064,1.4057151336340974,5900.969775611766
0.068,1.4709929463183522,5891.281839087959
0.072,1.5145599802459322,5899.227364460899
0.076,1.53264944710061,5895.8140371089485
0.08,1.5252507857582047,5900.44685008761
0.084,1.4952025680784422,5902.565035761659
0.088,1.4475257840787237,5891.952629229472
0.092,1.3890136846756498,5899.7511432789
0.096,1.3276263541039086,5899.332116641248
0.1,1.2713476678578568,5893.251053735589
0.104,1.2266870903480829,5901.402999959666
0.108,1.1974418130695987,5894.6837475705
0.112,1.184301774343591,5900.518908663748
0.116,1.1854176802625316,5898.096483105443
0.12,1.1975184787923654,5906.074201675104
0.124,1.2169469249633973,5901.028167455236
0.128,1.2402112728875971,5900.505306482903
0.132,1.2641091807936422,5898.002018443398
0.136,1.2858038897518722,5894.718954407635
0.14,1.3032067629029849,5898.738121765933
0.144,1.3156565285277935,5902.329264255814
0.148,1.3244053624554084,5909.892178363703
0.152,1.3322498211677831,5902.039963113934
0.156,1.3421327506927785,5901.370586112649
0.16,1.3554524009337272,5897.013367267527
0.164,1.3712896694205798,5899.124415317758
0.168,1.3871669507046998,5903.504196136
0.172,1.4007112671403898,5903.033964778418
0.176,1.4108961978002605,5897.795874908878
0.18,1.4180432394412266,5895.190403639599
0.184,1.422872189452792,5899.602753402461
0.188,1.425490261534727,5902.386905693564
0.192,1.4249417132760305,5907.955681886203
0.196,1.4193794556703696,5901.844954592682
0.2,1.406661321868827,5902.653599322491
0.204,1.3851797513843869,5897.920025393276
0.208,1.3546943742660413,5903.988522516337
0.212,1.3168526942041663,5903.306179737993
0.216,1.2751572226421166,5894.155838490953
0.22,1.234360842194001,5899.789458056584
0.224,1.1994830948329447,5898.616109145277
0.228,1.174763119708659,5900.882264704196
0.232,1.1628661236114564,5894.333663255084
0.236,1.1645080520913385,5901.039539773893
0.24,1.1784545491908434,5900.377334425901
0.244,1.2017660612795749,5897.7429986525485
0.248,1.2302674768508055,5892.641499231677
0.252,1.2593803419384175,5892.941508381488
0.256,1.2853870618697203,5897.67247251427
0.26,1.306746229684772,5904.112266438709
0.264,1.3245912086535996,5898.223020441738
0.268,1.3417117145461341,5915.130864342452
0.272,1.3603168175684164,5901.712831762215
0.276,1.3799130612556698,5903.322743992108
0.28,1.3967407067699917,5903.480401936954
0.284,1.4052730493484646,5905.882418012062
0.288,1.4010110775811204,5907.54339275557
0.292,1.383071956232742,5906.111538828946
0.296,1.3552820101955927,5906.826826709312
0.3,1.3253339438823661,5897.104194683908
0.304,1.302407805270456,5905.271889423667
0.308,1.2941176801899983,5903.602469212964
0.312,1.303770439577988,5900.878036878528
0.316,1.328854027726965,5896.383505522664
0.32,1.3614160373794089,5897.346253280278
0.324,1.390433537994185,5900.975586212328
0.328,1.4054497920003446,5894.881862869009
0.332,1.400078361161058,5890.303022697732
0.336,1.3739767166883041,5902.233713128472
0.34,1.332635932734116,5896.941858928174
0.344,1.285316766083874,5903.469543469687
0.348,1.2421167065041099,5891.034020753139
0.352,1.2112697706347555,5905.046339483799
0.356,1.1974593723001228,5904.050382882693
0.36,1.201379589580431,5903.761805117267
0.364,1.2202950742855092,5908.58727757445
0.368,1.2491482244327206,5897.848387879338
0.372,1.281811641264227,5900.491878364074
0.376,1.31221730986941,5902.3394263682985
0.38,1.3352545688188506,5892.534148040339
0.384,1.3474697637692155,5903.973953544307
0.388,1.3475815763514025,5898.330249849098
0.392,1.3366610422171794,5900.172758705189
0.396,1.3177661822511733,5899.105132290297
0.4,1.2950454955562845,5902.463920171113
0.404,1.2726877406682333,5904.6231934804255
0.408,1.254214382529703,5902.86350443367
0.412,1.2422772183249082,5904.640534659341
0.416,1.2386756704984496,5904.281934710045
0.42,1.24427378692038,5901.13821659311
0.424,1.2588504768584308,5902.113516836549
0.428,1.2811322572783637,5912.065166190574
0.432,1.3090767990332035,5899.411060620137
0.436,1.3402055911093729,5899.213567987329
0.44,1.3718078699607719,5901.682111425197
0.444,1.4010919837350297,5894.757274562234
0.448,1.425462699213647,5900.791344581822
0.452,1.442921648308739,5901.3894256352505
0.456,1.452398123204325,5893.564425202941
0.46,1.4538463289563905,5888.7471587749205
0.464,1.4481063574875377,5902.316037486392
0.468,1.4366481312239996,5897.610077148412
0.472,1.421322771442844,5900.504423355296
0.476,1.4041384242992676,5904.2574565406485
0.48,1.3869657003463252,5902.894425056404
0.484,1.3711031195786156,5896.7131756705285
0.488,1.356788322506494,5910.55751933281
0.492,1.3428914672299315,5903.918779242585
0.496,1.3270978649153007,5890.775224694122
0.5,1.3068297716038106,5894.146445138558
0.504,1.2808217551023082,5909.152453300437
0.508,1.2506659488095115,5903.878045656987
0.512,1.2212869273692024,5901.848242847691
0.516,1.1997172341432079,5898.462604923231
0.52,1.1924997924775422,5896.727765953327
0.524,1.2027796225353957,5896.135907683116
0.528,1.2282796097042692,5890.402089738021
0.532,1.261072422893143,5900.199346363745
0.536,1.2895485437862608,5905.820718789201
0.54,1.3022195885576078,5895.009425641354
0.544,1.2921202373541043,5899.251764685525
0.548,1.260015266394465,5901.103405985919
0.552,1.2148406968913152,5910.196547154217
0.556,1.1709268891141422,5890.127170399017
0.56,1.1430764539390434,5907.911744125519
0.5640000000000001,1.1415711813643847,5891.475586742047
0.5680000000000001,1.1690579473981997,5902.002309014431
0.5720000000000001,1.220277391859673,5900.036917910312
0.5760000000000001,1.2844117751240915,5902.378696377605
0.58,1.3488607559259376,5898.687653381027
0.584,1.402802389763182,5902.180806970795
0.588,1.4392444046081128,5905.612538043826
0.592,1.4552505563949167,5898.548616386517
0.596,1.4509575526523637,5905.116949992216
0.6,1.4283150770608488,5902.073972046676
0.604,1.3901972420357012,5902.754611736114
0.608,1.3400663887199629,5895.195860182166
0.612,1.2820635533271112,5904.940392125952
0.616,1.221279113835404,5893.0678979348
0.62,1.1638979270962835,5897.761285743676
0.624,1.1168866102629298,5893.854136388694
0.628,1.0870188783986248,5909.12932898565
0.632,1.079410114874988,5894.974095455816
0.636,1.096135841432085,5899.698213128478
0.64,1.1355469239333107,5893.554956813354
0.644,1.1925222294740208,5896.533711995876
0.648,1.2594808007749065,5907.642655985496
0.652,1.3277896498831756,5910.02096598087
0.656,1.389212930095627,5897.223708864024
0.66,1.4371215932023713,5906.74636166103
0.664,1.4672749184479477,5901.362515388231
0.668,1.478095318248163,5895.977792608398
0.672,1.4704581929560765,5891.380446074203
0.676,1.4470814885449943,5895.804695541948
0.68,1.4116615470460347,5898.903646337812
0.684,1.3680233953823975,5895.537207231436
0.6880000000000001,1.3196389312632149,5895.499263571423
0.6920000000000001,1.2696938259570039,5891.529581780689
0.6960000000000001,1.2214961867271337,5896.005578046161
0.7000000000000001,1.1787980154007256,5898.861857924984
0.704,1.1457428231265843,5900.1587754625925
0.708,1.1264278129785266,5900.266527549991
0.712,1.1241953382087357,5898.74602769026
0.716,1.140733181271189,5904.9784812756325
0.72,1.1750653248851806,5898.440302434425
0.724,1.2227254035500585,5897.097010742619
0.728,1.2757033837910177,5904.572424836295
0.732,1.323742749085484,5895.962592975976
0.736,1.356980240928958,5891.232529021245
0.74,1.3690530138253065,5891.359751778245
0.744,1.3593473278027097,5899.450654115317
0.748,1.333429157474743,5896.617152750897
0.752,1.301548953256363,5901.92328464341
0.756,1.2758315957333837,5905.467134083409
0.76,1.2670676142509594,5892.689052322841
0.764,1.2819820420459642,5899.830682574189
0.768,1.3216047386253735,5899.7722320393
0.772,1.381012819459175,5903.745882658202
0.776,1.4503810292294663,5902.212678393563
0.78,1.5170329302399104,5886.561752887807
0.784,1.5680095926441675,5895.771270910062
0.788,1.5925417961798565,5901.69940755344
0.792,1.5838577281118398,5896.135940103154
0.796,1.5400967578046871,5899.484996984207
0.8,1.4645001251663061,5901.265562870875
0.804,1.3651085397406468,5896.062818997071
0.808,1.2539083871236043,5902.677870297467
0.812,1.1451839956806773,5894.780888171893
0.8160000000000001,1.0530811700704328,5899.9172199173445
0.8200000000000001,0.9888861041498672,5891.420253201891
0.8240000000000001,0.958842427517433,5902.606407883496
0.8280000000000001,0.9632189209525956,5895.906521510491
0.8320000000000001,0.9968675708171949,5904.164057871163
0.836,1.0509498339325345,5904.072869373147
0.84,1.1151524707039076,5889.973952628603
0.844,1.1796912982959602,5896.562571132934
0.848,1.2366430578316956,5899.2323340564
0.852,1.2804932885073044,5904.8073467818185
0.856,1.308066163879699,5899.221704076066
0.86,1.318106154078396,5896.229905334406
0.864,1.3107744184247017,5901.529465531913
0.868,1.2873214304088831,5899.915629171988
0.872,1.2501672103650563,5893.624357389079
0.876,1.2034301447432547,5894.9973932005005
0.88,1.1535855685166339,5894.895393194342
0.884,1.109610099334702,5896.845421313284
0.888,1.081979528752154,5898.155556895263
0.892,1.0803753905957858,5893.17449112129
0.896,1.1107035572404735,5908.9818516195965
0.9,1.1725861540947065,5887.768070439023
0.904,1.2584776054047833,5896.802457076332
0.908,1.3549192717775156,5890.829147425566
0.912,1.4455197796030916,5895.98539124732
0.916,1.5145746993553537,5901.015038662364
0.92,1.5501906281077948,5894.8754823572735
0.924,1.5462760940446583,5902.368165862808
0.928,1.503370456841172,5904.5614825301145
0.932,1.4285800569466667,5900.742310158596
0.936,1.3347711735186318,5902.494983220196
0.94,1.2388850400680838,5908.247690424351
0.944,1.1592030655654737,5892.014997995524
0.948,1.1117807216522504,5903.446164268886
0.952,1.1068195043822773,5902.6112073633885
0.956,1.1460470436265704,5904.147700085227
0.96,1.2220541175203095,5900.542251392907
0.964,1.3200330622923506,5905.369624925049
0.968,1.4215875204817703,5903.095610049894
0.972,1.509471029808072,5898.719136514401
0.976,1.5716404391120657,5905.099963482095
0.98,1.6032387616019765,5907.757346240389
0.984,1.6060578813081512,5896.637156263068
0.988,1.5861541264712005,5901.65163742292
0.992,1.5509179379783669,5899.961173998874
0.996,1.5067678469761563,5909.25537624689
1.0,1.4580402930639313,5897.788387977941
1.004,1.4070724885926185,5893.732646904839
1.008,1.3551442965802278,5907.525302217936
1.012,1.3037472324458876,5894.214431780394
1.016,1.2555698321675415,5900.448757117083
1.02,1.2147823868378356,5891.821786827137
1.024,1.1865691010114852,5898.869965172896
1.028,1.1760930575504849,5901.551312065291
1.032,1.1871723061139408,5906.296566253124
1.036,1.2210707832037115,5899.017632930166
1.04,1.2758930053361381,5909.748435193444
1.044,1.3468748620855289,5910.419522248803
1.048,1.4274039000135454,5897.512788804597
1.052,1.5102335193135517,5896.757169508951
1.056,1.5883949371931139,5896.053336484583
1.06,1.6556897706508675,5892.624937430017
1.064,1.7069712916077773,5899.457451781186
1.068,1.738414800116047,5899.244782975248
1.072,1.747756066213085,5903.7260780981
1.076,1.7343446602354156,5905.6069313514245
1.08,1.6989551897982935,5903.05135869218
1.084,1.6435266500823342,5896.714656943278
1.088,1.5711383700646568,5898.363686695763
1.092,1.4863821944992506,5894.592896701009
1.096,1.3958695793536038,5899.277249193356
1.1,1.3082460022277616,5908.532837674899
1.104,1.23317966705323,5903.21075979228
1.108,1.1793998208212977,5892.571540626537
1.112,1.152520239470845,5902.846378997104
1.116,1.1535213857369464,5904.572511722068
1.12,1.178330937466435,5902.790605192016
1.124,1.2184475003388127,5901.607829498856
1.128,1.2623737323097672,5906.581989948389
1.132,1.2976360941241245,5909.136045771663
1.136,1.3131360082170855,5894.474863394067
1.14,1.301490127631814,5900.197723445256
1.144,1.2609350469092129,5904.978773934875
1.148,1.1963107206669783,5894.499782089274
1.152,1.1186869470927394,5896.9251647438405
1.156,1.0434610325288514,5898.230540454501
1.16,0.9871390342301749,5899.392859434278
1.164,0.9633745255557119,5889.32200288944
1.168,0.9792047695608339,5894.044293626745
1.172,1.032699129885518,5898.096044303992
1.176,1.1130257803254855,5897.091277638704
1.18,1.2031013963190411,5906.78161842043
1.184,1.2839706526682781,5903.010234748242
1.188,1.3394881493251158,5895.217796159183
1.192,1.3599773945718696,5899.94602292122
1.196,1.3440801418868484,5903.833458475065
1.2,1.2985812741850233,5894.709298819393
1.204,1.2364044120986029,5902.667505978867
1.208,1.173274923877031,5893.955139052821
1.212,1.1238084588045336,5904.055979826301
1.216,1.097994081727873,5898.096174190841
1.22,1.0991178047888244,5897.315072623796
1.224,1.1238877205837006,5897.973014257655
1.228,1.1647012765623672,5896.7647835077205
1.232,1.212976767281661,5911.53961110055
1.236,1.2620015976636523,5898.482151373981
1.24,1.3081851228965802,5905.71160973882
1.244,1.3505403106855314,5900.263107977125
1.248,1.3890384729408654,5904.4692283548775
1.252,1.4228886901825366,5901.353058607804
1.256,1.4497208216252613,5897.847560706791
1.26,1.4661057918818257,5896.951392484767
1.264,1.4690864045725496,5895.331795291282
1.268,1.4578718194341567,5901.535323090777
1.272,1.434801600605358,5898.290484559285
1.276,1.4050279364740068,5904.687791246181
1.28,1.3749484482723444,5903.381471668977
1.284,1.3500257871735935,5907.5599969333225
1.288,1.3329234600392208,5901.347717239868
1.292,1.3227189295143646,5906.473314383909
1.296,1.3154653847487328,5901.304893610073
1.3,1.3057853068569611,5899.742215223982
1.304,1.2887568519591703,5895.003859984003
1.308,1.2613447389706391,5890.250108760401
1.312,1.2229789830792033,5907.084272983191
1.316,1.1753133194877665,5904.42022210398
1.32,1.1215077600150547,5909.308306285031
1.324,1.0654900638654918,5895.747194041169
1.328,1.011528341633485,5900.099957345485
1.332,0.9641697405640691,5897.904772144941
1.336,0.9282811979263486,5910.839376539385
1.34,0.9087056943067834,5889.132308663781
1.344,0.9091461925348276,5892.690361936047
1.348,0.9304155075395457,5906.432958942195
1.352,0.9688750918818062,5895.259190244309
1.356,1.0161884286381435,5900.886898194837
1.36,1.0610442954548727,5907.783892972698
1.364,1.0924496829715242,5898.580631378479
1.368,1.1032783067536802,5908.710827888757
1.372,1.0926105906048202,5906.918062308604
1.376,1.0659909009783117,5897.5594563556
1.38,1.0335741197302881,5903.292681389963
1.384,1.006840275041592,5902.3316240525
1.388,0.9949994852876208,5895.343203949009
1.392,1.0023015658267567,5905.421633168097
1.396,1.0270840596897146,5900.574561514668
1.4,1.062685463160213,5909.204258095147
1.404,1.0997472576567033,5901.174785548885
1.408,1.1291652460330852,5905.386605367585
1.412,1.1448934571691414,5902.39022837627
1.416,1.1458176067372619,5907.465532060876
1.42,1.1360805707032735,5905.901667655735
1.424,1.1236754583857125,5899.351826489471
1.428,1.117749295305294,5901.740511119212
1.432,1.1255813593369242,5903.774448876879
1.436,1.150301295663321,5909.342882364256
1.44,1.190034998989957,5900.330870789726
1.444,1.238536473980224,5900.236838755699
1.448,1.2868443694051388,5905.485481800425
1.452,1.3253560584833586,5910.441841893841
1.456,1.3458547876535842,5902.348807894545
1.46,1.3431563843410848,5906.094686268384
1.464,1.31608849384025,5898.882653135849
1.468,1.267655308648688,5901.5999073423145
1.472,1.2044741480074126,5918.649031664171
1.476,1.135654003885077,5905.291622923018
1.48,1.0711943360856142,5901.217356049415
1.484,1.020013914483051,5907.119359572457
1.488,0.9879711503942472,5911.78063366755
1.492,0.9764250750187217,5912.9006262222165
1.496,0.9818242683012706,5913.643005684257
1.5,0.9965811627601464,5903.662152472514
1.504,1.011139334308908,5898.478485551358
1.508,1.0166746392919175,5906.345712381986
1.512,1.0074961154936641,5904.730531432456
1.516,0.9822841541431584,5902.878701075918
1.52,0.94390013182747,5893.023319758776
1.524,0.8981941587121071,5905.816699316065
1.528,0.8524880245817671,5904.833056217286
1.532,0.8141642909441056,5905.682265422144
1.536,0.7894719856777288,5903.271146983626
1.54,0.7825741666502338,5910.909843282751
1.544,0.7948823073716608,5906.131593538294
1.548,0.8246679055285348,5910.816442522185
1.552,0.8669379784655104,5901.887242828595
1.556,0.9137231063524747,5897.405862485744
1.56,0.95506104674166,5907.796882458979
1.564,0.980815193320494,5903.707246007122
1.568,0.9830682519063251,5901.114393462506
1.572,0.9584611483228724,5900.295746554404
1.576,0.9097504988127915,5902.697286257281
1.58,0.8460218810076628,5905.913138861732
1.584,0.7812732544184154,5911.65842060989
1.588,0.7314242220447408,5912.4430216916535
1.592,0.7102995316160671,5894.781710730408
1.596,0.7257475134775689,5897.594046025431
1.6,0.7773505119560519,5911.017715760771
1.604,0.8566668838486294,5900.912763884154
1.608,0.949803254841845,5903.150632468306
1.612,1.0411855510975214,5914.295561585988
1.616,1.1172399386045053,5900.1828115538965
1.62,1.1690988275025578,5896.957390803715
1.624,1.1938977658523882,5907.085025627087
1.628,1.1945413047925288,5908.27176204437
1.632,1.178122167611953,5900.699714758189
1.636,1.1535199454070666,5899.980178191073
1.64,1.128921048583758,5892.725262948488
1.644,1.109950999826582,5907.65058051236
1.648,1.098823332495099,5906.202295425326
1.652,1.0945121421284023,5900.1479684527
1.656,1.093586921098337,5906.463949210452
1.66,1.0911990689259756,5900.975948636562
1.664,1.0819117656491133,5908.009536995916
1.668,1.0604175858149694,5896.618002291699
1.672,1.022306537725333,5903.114160844269
1.676,0.9648839452270013,5906.478390961774
1.68,0.8878883158725387,5908.178395304744
1.684,0.7939658491207388,5907.581933800365
1.688,0.688793007334749,5901.7684782524
1.692,0.5807227105186208,5909.268346851958
1.696,0.4798567887338188,5906.576050030571
1.7,0.3966131172195102,5907.40918322445
1.704,0.34008267881580745,5904.772361769745
1.708,0.3165338927595615,5905.5329566573855
1.712,0.3282616982988626,5910.93501423397
1.716,0.37288614189295616,5909.719630685618
1.72,0.4433570507452588,5910.533035657761
1.724,0.5289919018302368,5906.4596866093725
1.728,0.6175325628507434,5907.757607403277
1.732,0.6976755360482045,5913.407859410436
1.736,0.7612680196604046,5905.037242761334
1.74,0.8045103234539634,5911.735782729418
1.744,0.8278838201152641,5897.8756861679285
1.748,0.8349420582597353,5902.615679237274
1.752,0.8304761675127064,5912.261244414057
1.756,0.818782872762611,5910.110719966963
1.76,0.802667302198577,5903.325693978274
1.764,0.7834031860485919,5909.251164834698
1.768,0.761384094792041,5905.885527723445
1.772,0.7369234514626027,5900.340684216003
1.776,0.7107334977471769,5906.006611627627
1.78,0.6839346559807685,5908.581599284042
1.784,0.6577952068750779,5902.543795465601
1.788,0.633568665547008,5909.6944472476935
1.792,0.6126430927324983,5907.574767133105
1.796,0.5968280661052866,5912.102143040299
1.8,0.5883496018286416,5900.783862186081
1.804,0.5892848688721145,5905.597598924571
1.808,0.6006150746914272,5905.388974981758
1.812,0.621418250910937,5906.085209323498
1.816,0.6486743384784376,5899.061517156079
1.82,0.6777641794061383,5907.473170662818
1.824,0.7033899569529817,5898.337851849726
1.828,0.7206471654734268,5908.136265427261
1.832,0.7261924030630635,5909.891315525232
1.836,0.7194273127645026,5912.13094841825
1.84,0.7032451144891083,5909.210320340058
1.844,0.6836476973351941,5909.315462292294
1.848,0.6679374265576654,5901.467682537113
1.852,0.6620524669001951,5903.463603221454
1.856,0.6682236183835363,5899.57488802665
1.86,0.6839596726038494,5903.382672883423
