时间(s),电压(V),幅值(高频80K)
0.0,1.1391734435313394,5899.807256293913
0.004,1.183448043412818,5898.117815016876
0.008,1.2140604268141468,5894.921074534647
0.012,1.220916733807436,5906.87967314723
0.016,1.1986885686293876,5894.609440008767
0.02,1.1478305642426099,5908.72830795025
0.024,1.0745999577016347,5904.221266623381
0.028,0.9901959588388645,5894.779246795356
0.032,0.9089128183332222,5899.290810728284
0.036,0.845237366714191,5903.955566423301
0.04,0.8104197476885966,5892.877037227379
0.044,0.8096639132163104,5899.061728472395
0.048,0.8409810152793389,5892.912494341297
0.052,0.8959540267744845,5915.463559890503
0.056,0.9619076921921252,5901.458429958919
0.06,1.02477889732196,5902.604186516092
0.064,1.0721383657773018,5896.880554851268
0.068,1.0958576770439263,5901.5706745304105
0.072,1.093792504039388,5898.206675396508
0.076,1.0699353195928067,5905.6653319787765
0.08,1.0329763324060097,5895.667303162993
0.084,0.9938069096784005,5900.163196491632
0.088,0.9627874065484501,5901.853468037572
0.092,0.947498480431065,5900.683649068617
0.096,0.9514188912102836,5899.076824351399
0.1,0.9736971314325938,5896.809358184154
0.104,1.0099162165639761,5894.609002788966
0.108,1.0535034980528823,5896.796431522734
0.112,1.0973187998143497,5897.924155298273
0.116,1.1350281573820271,5886.921981831916
0.12,1.1620457141297542,5907.359420399675
0.124,1.1759560850097441,5902.7540566691305
0.128,1.1763876687294674,5901.637732914805
0.132,1.1644165017240846,5911.949886635338
0.136,1.1418079313562286,5893.356592047413
0.14,1.1105536595091396,5902.839413113378
0.144,1.0729516916215829,5885.005234298516
0.148,1.0319923450080621,5912.751679859913
0.152,0.9915369920542553,5899.184495178475
0.156,0.9559942123873065,5887.892884970853
0.16,0.929626885130156,5897.690868480369
0.164,0.9158182107970272,5901.795975399186
0.168,0.9165158792231708,5897.119962728181
0.172,0.9318995441786393,5902.699733060936
0.176,0.9602487075128912,5896.010309526541
0.18,0.9980256107988293,5897.7178758041655
0.184,1.0402547027160611,5898.5750670134
0.188,1.081268225800209,5896.106781458557
0.192,1.1157311144550441,5897.110792410156
0.196,1.1396716434310787,5898.355685024782
0.2,1.151220750067525,5892.179834529188
0.204,1.1508903084168025,5896.364646957121
0.208,1.1413287251530466,5901.364461138479
0.212,1.1265654701627454,5895.8209779448525
0.216,1.110902416513846,5898.926613543257
0.22,1.0977878727196877,5899.720824204343
0.224,1.0890629695832177,5894.747288796309
0.228,1.0848387877931118,5904.476813926919
0.232,1.083979797930158,5905.355499487139
0.236,1.084839028506886,5905.203887572691
0.24,1.085771590732345,5890.670727101876
0.244,1.0852417738440177,5906.170562060019
0.248,1.081774825568857,5898.173611804135
0.252,1.074099842392499,5902.771847298734
0.256,1.0615330523957018,5913.311325750614
0.26,1.0443698651157003,5903.984531368339
0.264,1.0240427842567283,5895.364865776832
0.268,1.0029187349406206,5891.020208728437
0.272,0.9837053264908914,5904.313505461497
0.276,0.9685956854851256,5898.270234477372
0.28,0.9585141611072182,5896.495618896271
0.284,0.9528669970299815,5900.296986079999
0.288,0.9499089841768851,5899.214800944059
0.292,0.9474877468466021,5893.462199485516
0.296,0.943854839265585,5893.146258693948
0.3,0.9383731499789292,5894.202619970217
0.304,0.9320062255743036,5897.348672878592
0.308,0.9273859210126087,5899.119815417381
0.312,0.9282505513164108,5902.166307648042
0.316,0.9382801317486748,5900.451763041139
0.32,0.9596957186329522,5898.906601405205
0.324,0.9921896441681424,5901.859496144355
0.328,1.0326829976107061,5901.767888732267
0.332,1.076090544939859,5898.017974257207
0.336,1.116835134938304,5907.620075638534
0.34,1.1505017360477805,5896.678190463802
0.344,1.1749661056820737,5897.796922933615
0.348,1.1906048222832588,5891.674079473795
0.352,1.1996082533609917,5895.955733703553
0.356,1.2047591106337512,5897.924843659801
0.36,1.2082006504166214,5902.867368239092
0.364,1.2106840612131535,5899.7027977786565
0.368,1.2115567404067746,5891.059935355268
0.372,1.2093955603102655,5893.192635695232
0.376,1.202899033513758,5893.157750715733
0.38,1.191610595700412,5890.398868220401
0.384,1.1762137943793476,5901.901340392631
0.388,1.158369144987384,5894.209691215418
0.392,1.1402765071771968,5884.482179682191
0.396,1.124269454513666,5891.7180913968405
0.4,1.1126448324263762,5901.6590764383645
0.404,1.1076247336997536,5901.126477674449
0.408,1.1111375246316257,5893.043398393025
0.412,1.1242449839537527,5905.031941732748
0.416,1.1464040422649915,5896.415065863836
0.42,1.174992315324431,5903.710465087241
0.424,1.2054759185271595,5896.247817327723
0.428,1.2323049922515992,5897.268594849487
0.432,1.250240862895009,5893.797086447845
0.436,1.2555700350108034,5917.117786099966
0.44,1.2467205332052358,5897.392989792311
0.444,1.224132719246618,5906.959852614366
0.448,1.1896192694807706,5898.274389968417
0.452,1.1456509578772742,5895.286019475442
0.456,1.0949565748920158,5895.947943625068
0.46,1.0405771823423318,5907.422634730907
0.464,0.9861857149131888,5899.931424190836
0.468,0.9362654209014273,5903.180110050453
0.472,0.895792105314216,5898.667946575698
0.476,0.8693591795597697,5894.073989577759
0.48,0.8600370477635643,5899.766909254448
0.484,0.8684575977572068,5892.964945413341
0.488,0.8925302947599177,5890.722742284306
0.492,0.9278810377626957,5898.255237131145
0.496,0.9687958873369884,5906.731697960413
0.5,1.009352175555757,5898.914281987479
0.504,1.0444909287190374,5890.842595154508
0.508,1.0708660590794266,5898.40534505802
0.512,1.0873374227576535,5893.560932361181
0.516,1.0949908667384358,5904.328507279815
0.52,1.0966220734695435,5900.389967916053
0.524,1.0957710356834418,5909.160756299752
0.528,1.0956147024213025,5898.597546886204
0.532,1.0981505295652818,5895.196213097702
0.536,1.1039802765882234,5904.658663915969
0.54,1.1126865633842444,5894.241476146907
0.544,1.1235168652357495,5909.0344666720885
0.548,1.1360159524670732,5889.996113594484
0.552,1.1503432965059195,5902.533128449222
0.556,1.1671736534769754,5900.285193921856
0.56,1.1872485738534748,5902.345677192429
0.5640000000000001,1.2107685768553027,5900.588196630263
0.5680000000000001,1.2368550563118816,5909.519299114743
0.5720000000000001,1.2633116669773692,5895.26553134759
0.5760000000000001,1.2868952522819235,5896.799010781992
0.58,1.3041552675352663,5897.589713253149
0.584,1.3125688970208609,5900.82141110489
0.588,1.311430861370071,5899.864620700027
0.592,1.302066600505442,5891.87954742148
0.596,1.2873564512981281,5902.831250152977
0.6,1.2708807695634086,5897.115953943626
0.604,1.256001433496872,5901.271785270371
0.608,1.245061642408701,5907.2244816993925
0.612,1.2388441663048273,5900.501154154635
0.616,1.236441421766427,5899.97465571741
0.62,1.235590506250166,5896.395148387366
0.624,1.2333417461306488,5898.636058959035
0.628,1.2268631691262866,5890.631403193604
0.632,1.2142534866665664,5885.492683181397
0.636,1.1952313839094313,5897.409072077325
0.64,1.1714351889481034,5898.105006946215
0.644,1.1460439357809542,5904.314928947424
0.648,1.1227039365136195,5900.9816096112345
0.652,1.1041699768299666,5899.830889241139
0.656,1.0913288386097175,5898.429014879632
0.66,1.0831670551204762,5899.27728183307
0.664,1.0777879596453472,5898.121530029555
0.668,1.0739761190957848,5906.375722409452
0.672,1.072414556888725,5900.196255154712
0.676,1.0758058575642693,5902.439279643727
0.68,1.0877792509573667,5909.550575808722
0.684,1.111132296314989,5894.109057888584
0.6880000000000001,1.146218487136188,5900.202953402002
0.6920000000000001,1.1900873629693183,5901.77852935777
0.6960000000000001,1.2365892373862655,5897.11701044108
0.7000000000000001,1.2773648478067856,5902.782198811332
0.704,1.3034977837927868,5895.718494572991
0.708,1.307499552103022,5892.7341921929865
0.712,1.2851962042864489,5897.428170560757
0.716,1.2370603501081374,5908.84068937525
0.72,1.1686016588848342,5900.770764704234
0.724,1.089592826621971,5891.97911152386
0.728,1.0122094594420188,5898.89672767038
0.732,0.948549188660294,5888.554009353103
0.736,0.9082450370855815,5897.594775156623
0.74,0.8968001755354638,5903.891634375636
0.744,0.9148916357105233,5897.46295571387
0.748,0.9585127941446799,5904.290964685812
0.752,1.019730563683878,5899.248428665494
0.756,1.0879904505045952,5910.137684308566
0.76,1.1519934534738634,5895.967188855773
0.764,1.2019665856604174,5902.945568370127
0.768,1.2317810606323678,5894.414231400346
0.772,1.2401924243253482,5902.780171644801
0.776,1.230723445453026,5903.802769740692
0.78,1.2102713102828087,5903.293499392715
0.784,1.1870168761237103,5905.763018208282
0.788,1.1683487937169923,5899.011116603746
0.792,1.1593175364341168,5897.1920997246825
0.796,1.161831181378215,5891.505944610027
0.8,1.174577135297234,5900.322466561497
0.804,1.1935680766554342,5897.383981323196
0.808,1.2132118072028435,5911.305219108052
0.812,1.2277439744383218,5897.370300381877
0.8160000000000001,1.2326975579473844,5899.5116098010885
0.8200000000000001,1.2259886402045468,5902.32079108508
0.8240000000000001,1.208316851527429,5899.510831189321
0.8280000000000001,1.1828159457778349,5897.4288186640815
0.8320000000000001,1.15408883273,5902.4859609241885
0.836,1.1268999583423058,5897.919554037351
0.84,1.104915493398572,5894.604707515838
0.844,1.0899442129089063,5897.839151464726
0.848,1.0820099170086133,5895.307170101311
0.852,1.0801961345228903,5903.096785177395
0.856,1.0837330746377527,5899.357108994455
0.86,1.0926362859341354,5900.640389001655
0.864,1.1075356459455683,5895.875291317392
0.868,1.128902248611638,5899.9906858393815
0.872,1.156245305121338,5903.714256342304
0.876,1.1877671755347647,5903.928654881434
0.88,1.2205877540018857,5901.782235689712
0.884,1.2513275071816032,5903.885640251646
0.888,1.276734079193469,5906.662301638068
0.892,1.2940929017266218,5901.379403971286
0.896,1.301323540129386,5905.454503961185
0.9,1.2968924982539574,5898.314861416422
0.904,1.2798238048661832,5905.843563429626
0.908,1.250011245280092,5903.029812330066
0.912,1.2087825224559208,5906.4093483038105
0.916,1.159423946975471,5897.932420063615
0.92,1.1072680564644795,5900.141398165771
0.924,1.0590402738471694,5898.731485058369
0.928,1.0214799038825841,5906.48050447729
0.932,0.9996453847138117,5905.714909433645
0.936,0.9955175491626477,5907.240888221805
0.94,1.0074165763098206,5903.625147950736
0.944,1.0304407440423686,5898.189995093542
0.948,1.0577698209106186,5899.685340218242
0.952,1.0824075787388467,5895.831463865602
0.956,1.09887141851877,5897.538008177242
0.96,1.1044312473384492,5895.592391441108
0.964,1.0996299454902103,5908.2993466947655
0.968,1.0879527545960799,5909.137045123367
0.972,1.0747210630558575,5898.194433980229
0.976,1.065557019020012,5895.369385303592
0.98,1.0649222965530387,5895.871145325512
0.984,1.0751090904728522,5895.597723905103
0.988,1.0957475559311183,5899.92072730995
0.992,1.1237071301744397,5897.66340381643
0.996,1.1533910896802453,5894.603557708444
1.0,1.177651774385545,5902.936413272453
1.004,1.189484315903027,5907.363620218607
1.008,1.1841680097865628,5892.856874467136
1.012,1.1610257801403772,5901.95635501631
1.016,1.123991465817785,5901.74045208132
1.02,1.0807370664042772,5900.688785590251
1.024,1.040749296006525,5899.929613306583
1.028,1.0130492056494786,5894.797799245047
1.032,1.004190664645019,5891.069555782997
1.036,1.0169447946653019,5891.165096087118
1.04,1.0498486683233408,5900.69829974822
1.044,1.097637724681209,5904.15600008468
1.048,1.1524694039179715,5894.014752249967
1.052,1.2057087065794236,5895.825710350378
1.056,1.2498637680518143,5899.756524211289
1.06,1.2801283026270862,5901.957237078459
1.064,1.2950569851492697,5891.9580697843785
1.068,1.2962193652620349,5901.004259556791
1.072,1.287095802890277,5901.189584207004
1.076,1.2717100568037634,5905.546058971318
1.08,1.253401075489526,5901.0769856204815
1.084,1.2339307430230388,5897.685268942555
1.088,1.2130770523380463,5898.948266699879
1.092,1.1888989505866223,5899.212864383815
1.096,1.158712957085539,5891.539828715366
1.1,1.120490754457219,5904.684704958885
1.104,1.0741592105350135,5900.387467454442
1.108,1.022353465039212,5904.239820872167
1.112,0.9704170858072142,5902.206903302361
1.116,0.9256362975849229,5887.22992859328
1.12,0.8958140832508273,5902.452256804342
1.124,0.8874391699129691,5903.786092740158
1.128,0.9038705915310592,5896.3529564352575
1.132,0.9440291223095121,5896.052038728132
1.136,1.0020219434532982,5896.625563994668
1.14,1.067961458529415,5903.669200893551
1.144,1.1299766520919667,5898.101540570352
1.148,1.177036495424676,5896.5448432903295
1.152,1.2018049451419979,5901.0468366803
1.156,1.2025667831090359,5895.451465254924
1.16,1.183504810448178,5896.8185821587385
1.164,1.1532230485675108,5901.727197614139
1.168,1.1220836379119998,5894.479773290187
1.172,1.0993033878236333,5901.099326950282
1.176,1.0907024659253297,5897.7032454973005
1.18,1.0976299193412122,5892.7140191963845
1.184,1.1171462167133277,5897.793950843661
1.188,1.143223363262797,5897.477512518947
1.192,1.1685676355841466,5894.773208514303
1.196,1.1865979713536248,5901.743937915982
1.2,1.1930990734794267,5898.610328996648
1.204,1.1871478936216717,5890.683755813073
1.208,1.171074462065548,5893.293556065041
1.212,1.1494453378951193,5900.041068482073
1.216,1.1273603370312575,5907.424561128438
1.22,1.108659806042682,5905.301325661015
1.224,1.0947690422985639,5893.223345179569
1.228,1.0846906761288766,5894.471766564244
1.232,1.076099701593078,5904.965547406137
1.236,1.066893773061829,5897.896111148269
1.24,1.0563463953185945,5895.694338300335
1.244,1.0453681292276917,5911.521380098365
1.248,1.0359873317749693,5890.108073540935
1.252,1.0305281148460195,5894.068426994729
1.256,1.0308724133315883,5904.783353520632
1.26,1.0378772497807272,5903.175709125325
1.264,1.0508811383828298,5901.712943812584
1.268,1.0673746054689657,5894.050906797663
1.272,1.0830769522001071,5904.861030076102
1.276,1.0926317513053436,5909.131891015693
1.28,1.0908879500562858,5894.486421511286
1.284,1.0743875215965513,5900.42911860985
1.288,1.042480369817105,5909.572147936212
1.292,0.9976573251838966,5898.966924816061
1.296,0.9451116778853953,5896.914125140053
1.3,0.8918127185708161,5902.064674600234
1.304,0.8453363099672679,5906.675414052283
1.308,0.8125769562287131,5911.673350065718
1.312,0.7984816453364071,5906.1242563592605
1.316,0.8050455547100004,5904.614804609163
1.32,0.830840421856433,5900.266332713641
1.324,0.8712333607672468,5903.66344661808
1.328,0.919247360792618,5902.924318327951
1.332,0.9668610320840672,5901.852503878268
1.336,1.006520576625754,5894.638459176201
1.34,1.0326481184419336,5897.602710548514
1.344,1.0428712547168453,5895.02378132756
1.348,1.038616263060879,5896.600182393703
1.352,1.0247653733830662,5899.233371388476
1.356,1.0083743950840474,5902.336947490849
1.36,0.9968412532654448,5901.577463041047
1.364,0.9961056850141317,5903.589394477374
1.368,1.0093118549515718,5906.584972022637
1.372,1.036092562107118,5899.738491499034
1.376,1.072522303711645,5899.081170866827
1.38,1.1118292661883484,5906.556609801557
1.384,1.145918556383671,5899.029524135011
1.388,1.1675132208296093,5892.679292839431
1.392,1.1723599829463938,5900.270046923207
1.396,1.1607015436920805,5895.580285797969
1.4,1.1373257632527243,5903.053261407399
1.404,1.1100114622232957,5892.600657250725
1.408,1.086867760985439,5896.6156983295
1.412,1.0735774091988248,5897.219471635872
1.416,1.0716531414910033,5906.054701685395
1.42,1.0783963286044884,5894.834654595669
1.424,1.088468712457408,5898.684722211738
1.428,1.0962716674452302,5902.894114923093
1.432,1.0980674474952734,5903.001444797242
1.436,1.0930556198951273,5895.57368222723
1.44,1.083188766733234,5905.959752935835
1.444,1.0720187115674595,5894.847343641791
1.448,1.0631336281862325,5901.523894548371
1.452,1.0588091962117232,5896.688797181854
1.456,1.0593497897348372,5898.417425443185
1.46,1.0632305631679702,5906.697787193944
1.464,1.0677866378449212,5899.147854039331
1.468,1.0700896818841594,5901.275293352397
1.472,1.0677688705013189,5882.570301188809
1.476,1.0596654272565271,5897.082559379188
1.48,1.0462653543617961,5893.974622543069
1.484,1.0298558282664636,5903.546909130755
1.488,1.0143241059391508,5903.084739188244
1.492,1.0045096189251286,5904.342481080055
1.496,1.0051153613879709,5898.922824097027
1.5,1.0193921944791613,5910.9363717563865
1.504,1.0479837233698184,5895.08398453829
1.508,1.0883204038977115,5904.066255803378
1.512,1.1348030004134548,5896.8025764764525
1.516,1.1797999576310239,5895.082142827504
1.52,1.2152402991381006,5888.450746584599
1.524,1.2343974846280679,5908.206876080062
1.528,1.2334278836285006,5901.077160013081
1.532,1.2123029161225045,5894.536478589519
1.536,1.1748679496638383,5898.818252055604
1.54,1.127934226330491,5897.259072249163
1.544,1.0796173964234368,5902.1645815126285
1.548,1.0374248863951925,5893.728968434363
1.552,1.006666146206654,5905.712992712291
1.556,0.9895983091578421,5898.315879444291
1.56,0.9854387769697514,5897.332031820424
1.564,0.991081829076103,5900.408011807508
1.568,1.0021485336124694,5904.662758844353
1.572,1.0139888874962035,5896.302019670901
1.576,1.022440664928094,5912.419533874297
1.58,1.0243563888725953,5910.600486322386
1.584,1.0179917778148373,5900.799776571445
1.588,1.0033093392869072,5896.859870217984
1.592,0.9821080823468827,5910.596095134963
1.596,0.9577215089662456,5898.168456776493
1.6,0.9340876280657818,5913.58472046487
1.604,0.9144136611364053,5896.124624725202
1.608,0.9001220091145383,5894.5904496275325
1.612,0.8907919895859624,5903.873588084372
1.616,0.8852337864396131,5893.726158090902
1.62,0.8829994471335676,5896.52704614543
1.624,0.8852285048265881,5898.519721630879
1.628,0.8941519535586366,5903.154130076282
1.632,0.9115379718070061,5902.782106728816
1.636,0.9371225462581808,5904.464467680168
1.64,0.9680936982495484,5902.527617942414
1.644,0.9999989247419457,5906.70195102221
1.648,1.0285171721460713,5908.424612083622
1.652,1.051028896708707,5903.539290221544
1.656,1.067168456096307,5904.050701660389
1.66,1.0782913961772786,5914.2611384465845
1.664,1.0864031021579985,5898.720294471715
1.668,1.0931673752980198,5899.917344133146
1.672,1.0992853020046272,5902.483532429784
1.676,1.1042297705143962,5906.391383122521
1.68,1.1062777078221229,5905.156600424321
1.684,1.1028938292462114,5901.12913568907
1.688,1.0915444811513175,5892.738805541399
1.692,1.0708387521839382,5907.563099544264
1.696,1.0415986031852,5900.193710361697
1.7,1.0073007866693964,5899.22685036309
1.704,0.973504243156623,5900.471572625263
1.708,0.9463117869758987,5902.448934486897
1.712,0.9303963842987357,5894.199760609448
1.716,0.9274416145703582,5901.286075298506
1.72,0.9357779799800588,5896.10729407033
1.724,0.9514352358713548,5896.093502510773
1.728,0.9700481727471244,5901.789375553601
1.732,0.9885631730473491,5911.039092022889
1.736,1.0058157729981325,5904.775649304581
1.74,1.0217064873697943,5898.888068641675
1.744,1.0355228635299427,5906.650511012969
1.748,1.0444917468147559,5905.471254338122
1.752,1.043592120328931,5904.420731282499
1.756,1.0270221868684903,5907.27799204571
1.76,0.9908260460564656,5899.442148045315
1.764,0.9355143481081494,5895.023403562975
1.768,0.8673948420306049,5904.111251527434
1.772,0.7978168912463381,5901.314923912511
1.776,0.7404204045969716,5914.129292778039
1.78,0.707357505532673,5903.509204601531
1.784,0.7058655842614786,5910.715026902215
1.788,0.7363251135978586,5896.305947595512
1.792,0.7922977769734851,5899.428435867883
1.796,0.8624008686339995,5900.435152338675
1.8,0.9333716959597131,5903.923264501214
1.804,0.9933428226509461,5900.61376926044
1.808,1.0343435482525225,5895.944608459886
1.812,1.053418372858327,5893.863297348965
1.816,1.052262371036391,5895.977412447919
1.82,1.0356885319058156,5904.303182593951
1.824,1.0095786358756433,5904.504826002601
1.828,0.9791600286457793,5900.631633164989
1.832,0.9482172928137839,5898.288537932024
1.836,0.919218902851091,5905.979631025448
1.84,0.8938512300147813,5898.013338800556
1.844,0.8734795115303327,5908.474875897588
1.848,0.8593531368203314,5898.585482692333
1.852,0.8525629393413745,5902.126694690674
1.856,0.8538270669628945,5901.672581131169
