时间(s),电压(V),幅值(高频80K)
0.0,0.7383617345558872,5903.461269901185
0.004,0.6914912828681862,5893.969899314875
0.008,0.6607125374704254,5900.574841043012
0.012,0.6591047728977374,5899.875103894755
0.016,0.6924453017198136,5898.643761086854
0.02,0.7576228629916207,5896.893580905498
0.024,0.8435519288057209,5895.506472200454
0.028,0.9344861919365232,5895.590375707895
0.032,1.014536288507837,5897.548347092375
0.036,1.0717475944752177,5899.916606063104
0.04,1.100506502012935,5900.511795930076
0.044,1.1018479487184119,5903.652623440298
0.048,1.081917349651354,5900.877112023485
0.052,1.0492662146083334,5904.484923502859
0.056,1.0119222030588788,5906.420517626842
0.06,0.9752603323741941,5906.016673075084
0.064,0.9414329066223807,5900.492038136467
0.068,0.9104016741310853,5902.809888005765
0.072,0.8817888168025084,5903.530075843909
0.076,0.8564221014495476,5895.293955216708
0.08,0.8368312958907018,5893.966000950201
0.084,0.8266705666024233,5903.786279757639
0.088,0.8295272016143084,5897.515897789602
0.092,0.8476339466034888,5902.1309472153625
0.096,0.8808651535036023,5896.908964075808
0.1,0.9263060880750885,5898.824759582982
0.104,0.9785634208561533,5906.480423920681
0.108,1.0306991670981096,5900.097867644167
0.112,1.075397316623136,5901.409318123778
0.116,1.105985928741779,5899.833065410199
0.12,1.1171907932980931,5902.684955497797
0.124,1.1057159015910474,5909.348017140082
0.128,1.0707671740671727,5897.99844406982
0.132,1.0144793539548478,5899.692328858099
0.136,0.9420446156261851,5893.1526303397
0.14,0.8613953147510334,5902.650118404877
0.144,0.7825154321268402,5903.488755838025
0.148,0.7165329671023726,5896.931979966105
0.152,0.6745862574551036,5898.455334556049
0.156,0.6663306403767367,5903.314898742937
0.16,0.6980860724878267,5903.571330920848
0.164,0.7709483553798759,5902.814533435809
0.168,0.8794432720049861,5897.559919877512
0.172,1.0113242716557398,5901.853912756651
0.176,1.1489263975369022,5896.982287848145
0.18,1.2721277658128138,5904.718724693866
0.184,1.3624042426031515,5898.580597099659
0.188,1.4068657082888858,5899.469956170261
0.192,1.4009610590312889,5897.711804968359
0.196,1.348999113576953,5897.861632520079
0.2,1.262522133762736,5898.360444775645
0.204,1.1573122860760008,5904.543331212067
0.208,1.0499882051005731,5899.006815712618
0.212,0.9548782283155876,5895.205058508398
0.216,0.881614029532276,5898.816060767614
0.22,0.8338858818570947,5897.565569831474
0.224,0.8097332021281083,5901.33450546317
0.228,0.8033055598064126,5896.371510030438
0.232,0.8074478381405282,5887.117842011528
0.236,0.8161920364029494,5898.71941391872
0.24,0.8263497478656547,5894.026470708633
0.244,0.837682903610827,5905.01882375174
0.248,0.8515593330903677,5904.448714635621
0.252,0.868668501664681,5907.198514449113
0.256,0.887034704105927,5895.7913313703975
0.26,0.9016236361722603,5901.077223196971
0.264,0.906016257841085,5894.986277613572
0.268,0.8954299818147426,5899.440963289805
0.272,0.8696244840343698,5901.1089173315
0.276,0.8342903159466218,5902.7834637242095
0.28,0.800171503420621,5899.005049480258
0.284,0.7800690116800384,5908.196290337532
0.288,0.7847075796641632,5893.731933376745
0.292,0.8189321257371572,5892.421114344805
0.296,0.8796503873497428,5896.185132149774
0.3,0.9563556139647635,5899.592744761179
0.304,1.0340898059398624,5903.972400279076
0.308,1.0977072885535815,5900.274912735086
0.312,1.1358252700178808,5888.673301421457
0.316,1.1432123499088316,5894.8563794797565
0.32,1.1212581359670715,5897.77288179223
0.324,1.0769276759563922,5901.665930423643
0.328,1.0208440902989318,5889.761929161784
0.332,0.9650060316755568,5901.764477085793
0.336,0.9205106645080315,5900.468462225627
0.34,0.8956616670829972,5904.5830741759455
0.344,0.8948103027177792,5899.305271643753
0.348,0.9180409513106514,5904.400747001871
0.352,0.9615105211382483,5903.214910702076
0.356,1.0181565228291043,5898.813332831584
0.36,1.0786415199014008,5902.126545936872
0.364,1.1325650607144864,5907.215602597339
0.368,1.1699624704778164,5897.978604312089
0.372,1.1829970423926683,5894.673942215824
0.376,1.1676572233223128,5897.922929255385
0.38,1.1251369969125802,5898.191676880851
0.384,1.0623717770906473,5895.374867169685
0.388,0.9911810864855963,5897.87223406859
0.392,0.9259331847111846,5906.53407699023
0.396,0.8803940445086015,5893.796640359117
0.4,0.8648175937724418,5900.246236438374
0.404,0.8840511380815401,5897.341113147088
0.408,0.9368092980392468,5896.429216240319
0.412,1.01586624907025,5891.552811658123
0.416,1.108958878006221,5888.01022142946
0.42,1.2004450174845631,5900.962636979498
0.424,1.2737723720454157,5891.216202856367
0.428,1.3144378861552861,5895.5533858943145
0.432,1.312721881405597,5897.903184793285
0.436,1.2654772906657523,5902.471257718394
0.44,1.1766168793174505,5897.6276040423645
0.444,1.0563786769016952,5895.656366185081
0.448,0.9197365187497268,5898.269199091735
0.452,0.7843351874142314,5890.368535695078
0.456,0.6681015685191988,5903.558446834009
0.46,0.5865289442822108,5899.429161263056
0.464,0.54988468310452,5899.193235330083
0.468,0.5610924795089791,5905.129330208942
0.472,0.615180881447324,5903.900855303113
0.476,0.7006316946389861,5905.572970957598
0.48,0.8020941617197779,5904.314509923917
0.484,0.9034545114244443,5905.929442399513
0.488,0.9904142037418323,5898.909977563477
0.492,1.0521809293716224,5893.829358066174
0.496,1.0822572169276465,5902.369121905559
0.5,1.0786080559253486,5892.809327692276
0.504,1.043645615588106,5896.768130677214
0.508,0.9842374743644158,5900.514351796371
0.512,0.9114006857562345,5893.165016388591
0.516,0.839045906300603,5898.654671568574
0.52,0.7814944145749222,5900.63268064964
0.524,0.7502681760623816,5895.880116714911
0.528,0.7512238507426213,5905.983300538338
0.532,0.7830832905329898,5895.6685701705455
0.536,0.8379288317908832,5893.622997161341
0.54,0.9035866157018171,5901.712176036048
0.544,0.967176137634481,5899.180393842452
0.548,1.0186222270824634,5909.389886902241
0.552,1.0529125875449337,5896.952011477635
0.556,1.0704515498721237,5900.305455477379
0.56,1.0756606721483355,5899.3359579305015
0.5640000000000001,1.0745360737665803,5896.412248843774
0.5680000000000001,1.0720394351735956,5905.048226876098
0.5720000000000001,1.070126718243959,5900.090524520393
0.5760000000000001,1.067032462060789,5901.74780968555
0.58,1.0580729218493223,5897.964767065412
0.584,1.03769482107462,5893.3669562423975
0.588,1.0020158173519718,5903.957000756135
0.592,0.9509478653021506,5897.591973122863
0.596,0.8891690731638756,5902.692009436413
0.6,0.8255677003644741,5893.294837544903
0.604,0.7712596931903093,5889.359159166731
0.608,0.7367714829724177,5909.64833656403
0.612,0.7292275904885561,5895.655794057534
0.616,0.7502944033595668,5900.202959589268
0.62,0.7953979774456891,5896.697404489452
0.624,0.854470256832402,5901.100541950657
0.628,0.9141304833537496,5901.285109473284
0.632,0.9608285191263187,5898.561010010228
0.636,0.9841810283093689,5893.139618563206
0.64,0.9795392581303478,5908.474832279441
0.644,0.9488728015584862,5904.269256717222
0.648,0.8996100503690411,5898.408793652433
0.652,0.8420227562135272,5906.565368925537
0.656,0.786394584717278,5898.9259267100615
0.66,0.7410456078684076,5899.919822444362
0.664,0.711532921175781,5897.546101553384
0.668,0.700650332371134,5896.018782222093
0.672,0.7086209333544252,5905.144702306727
0.676,0.7331584698282687,5895.828527591632
0.68,0.7695954964654308,5897.518022764265
0.684,0.8115677310792307,5898.737313709794
0.6880000000000001,0.8524939467120949,5894.688015845161
0.6920000000000001,0.8874603157679454,5909.667838839319
0.6960000000000001,0.9146410602626261,5896.960022525168
0.7000000000000001,0.9355262561163504,5907.604147342629
0.704,0.9539150370312525,5906.349727542413
0.708,0.9742599017120357,5903.089389268629
0.712,1.0000024250085717,5905.185598025699
0.716,1.0322109798497001,5900.324662417732
0.72,1.0686792772772,5907.005837811339
0.724,1.1037906544594784,5899.487498717253
0.728,1.1295341823458847,5898.9357165988695
0.732,1.1378199319770894,5902.229505276304
0.736,1.1236965394568683,5903.459513548862
0.74,1.0883817757054963,5910.046031796068
0.744,1.0405998933649367,5893.186014300989
0.748,0.9951111107703999,5899.637342828464
0.752,0.9685234374647982,5893.529517361703
0.756,0.9738088784065169,5910.449268279045
0.76,1.0156338166761543,5902.609773187106
0.764,1.0883255670061616,5890.518340257549
0.768,1.1772008330978119,5898.409074877985
0.772,1.2626229309986445,5897.8665054287885
0.776,1.325207774477741,5900.444051046185
0.78,1.3504931704157155,5900.759706179485
0.784,1.3320241750003234,5901.981102262936
0.788,1.2725788258362876,5895.632273478203
0.792,1.1835805920913307,5894.254830114396
0.796,1.0827323676337395,5902.66123360912
0.8,0.9901343645881074,5900.3755607315225
0.804,0.9237319192911894,5897.039113182792
0.808,0.8953779094758844,5894.26429453439
0.812,0.9086337444876907,5894.9320770587365
0.8160000000000001,0.9587163650701123,5905.319499366386
0.8200000000000001,1.034196086688168,5890.840332505317
0.8240000000000001,1.1196749672476392,5902.450694385159
0.8280000000000001,1.1988114076851235,5904.378918702542
0.8320000000000001,1.257289819607775,5900.905705481597
0.836,1.2853061574070954,5904.662124041653
0.84,1.2790099188869917,5897.361389799988
0.844,1.24049138896322,5903.210633390301
0.848,1.1763915467774892,5905.055943603313
0.852,1.0957503705327418,5907.027746796364
0.856,1.007944137322795,5898.646018657314
0.86,0.9213338847739699,5903.894571898436
0.864,0.8427422630655996,5899.27420102273
0.868,0.7774631661841099,5904.572100390744
0.872,0.7293914128847291,5897.386684231515
0.876,0.7010089319952137,5896.669228397379
0.88,0.6932184205745474,5899.53756478218
0.884,0.7051573156172691,5892.237231132784
0.888,0.7340838962815657,5904.085213634114
0.892,0.7753917747260665,5906.441483293051
0.896,0.8229178998019409,5901.922129600393
0.9,0.8697692790761012,5910.916431780707
0.904,0.9096539657395672,5898.050474502635
0.908,0.938276083636399,5901.5018332003465
0.912,0.95413101841246,5899.272422775444
0.916,0.9582567312104117,5903.954862827406
0.92,0.9530456046728594,5902.690611576089
0.924,0.940724713271001,5899.041747365705
0.928,0.9222190096767341,5899.184964939636
0.932,0.8968046918219285,5898.836227944843
0.936,0.8625740529182008,5904.898215948495
0.94,0.8175535321021445,5899.981484375253
0.944,0.761234403165233,5905.318210705108
0.948,0.6960432620412472,5912.417463637432
0.952,0.6280347318218618,5902.671989652277
0.956,0.5662518667289879,5908.258752266626
0.96,0.5208341293757961,5905.263906541111
0.964,0.5006005347426374,5898.837374482019
0.968,0.5110253401655144,5910.139442315579
0.972,0.5532014269238812,5907.285206388879
0.976,0.6238529725471806,5902.897587075154
0.98,0.7160644873657632,5904.636726001149
0.984,0.8203368490488611,5903.681238341445
0.988,0.9258160295042029,5897.875262519254
0.992,1.02175148797631,5902.9638548146695
0.996,1.0991270776688256,5900.517879175793
1.0,1.1520826301748177,5891.685574607084
1.004,1.1786304844939504,5901.724931162053
1.008,1.180453986643125,5900.752478101484
1.012,1.1619918589150777,5896.942266104261
1.016,1.1292084306086656,5895.945999949759
1.02,1.0883669204351252,5898.2940069285305
1.024,1.0449695326563377,5897.803338760999
1.028,1.0029976328028796,5886.458084632422
1.032,0.9646487573268376,5902.112631040417
1.036,0.9306934575195975,5897.679206365632
1.04,0.9012658967738774,5898.454771638302
1.044,0.876640977667518,5906.693221524773
1.048,0.8576315456617774,5897.261413669074
1.052,0.8455347952774414,5895.356260861865
1.056,0.8417865982713543,5892.704956605582
1.06,0.8475803023326751,5909.540139776106
1.064,0.8636517711312247,5905.833836077556
1.068,0.8901806653691382,5886.806171395496
1.072,0.9265351466552385,5903.896476113624
1.076,0.9707303570322898,5903.809794571414
1.08,1.0188926705412902,5897.999165487993
1.084,1.0652664555811393,5898.31776821286
1.088,1.103090524367337,5896.450204471952
1.092,1.1261572307248948,5893.264409654676
1.096,1.1304398474554365,5898.690114395304
1.1,1.1151188245064236,5893.051957966209
1.104,1.0826427851842146,5907.330808364571
1.108,1.0379224840788754,5905.422029783676
1.112,0.9871295216074034,5897.038569430104
1.116,0.9366411566007847,5905.985630240626
1.12,0.8923950430995926,5907.728911192791
1.124,0.8595111017077548,5906.77479286577
1.128,0.8418291784536334,5904.130920992806
1.132,0.8411791260213418,5909.191910415936
1.136,0.8566198861244586,5897.865049988048
1.14,0.884179200866633,5895.826585093604
1.144,0.9174907483804462,5902.281373754537
1.148,0.9492818778191088,5895.279445503013
1.152,0.9733102406752561,5892.7944410448
1.156,0.9862266163074624,5907.288836019175
1.16,0.9887695657746283,5899.938751532705
1.164,0.9856481102060047,5903.599863946647
1.168,0.9837643898935161,5892.479388066028
1.172,0.9892261553224132,5900.283388144972
1.176,1.0044057304738117,5899.25149557168
1.18,1.0263936419176165,5904.574478261806
1.184,1.0474994678564422,5891.7626967854685
1.188,1.0575966511873416,5902.084055456759
1.192,1.0475712374901422,5903.191014859158
1.196,1.012844200694667,5901.809956307335
1.2,0.9557639207048282,5899.269432974408
1.204,0.8858058657013502,5899.893239201847
1.208,0.8171920189015887,5907.932241582696
1.212,0.7645988395221954,5894.133248444278
1.216,0.7385476752660077,5910.280818447588
1.22,0.7423309437204839,5898.542150806387
1.224,0.7717149285863056,5909.2666824624
1.228,0.8174227546114469,5899.379413303284
1.232,0.8691131791829653,5904.713930611482
1.236,0.9189058579480692,5892.067662571409
1.24,0.9629003506674785,5897.90523711401
1.244,1.0003876377181937,5899.901163243354
1.248,1.0317182207761708,5899.351083903664
1.252,1.0562911886040163,5904.036010468252
1.256,1.0717476733248439,5900.591574037787
1.26,1.0745913363385056,5894.263899087986
1.264,1.0616558123281705,5898.57623764587
1.268,1.031544224693526,5911.216599459939
1.272,0.9854606691553265,5898.144955652849
1.276,0.9273548236705501,5902.000084459198
1.28,0.8635502008582288,5903.963127233929
1.284,0.8019269388311515,5899.60522613315
1.288,0.7505654722169003,5907.280466052724
1.292,0.7158716693335767,5910.489131135711
1.296,0.7006368156777826,5898.061675961455
1.3,0.7028874854357727,5903.3815615786525
1.304,0.7163120179763297,5909.539922714389
1.308,0.7323705687628208,5897.144716964375
1.312,0.7432253874335992,5910.704773070206
1.316,0.7440402290508515,5911.4461117184
1.32,0.7335708897031087,5897.249558731728
1.324,0.7131589381098516,5897.235107757021
1.328,0.6853107744835196,5905.686435159032
1.332,0.6531088207598388,5904.160290027591
1.336,0.6207789893057426,5893.129055618064
1.34,0.594639461205189,5898.492340912616
1.344,0.583208175941273,5895.943944614289
1.348,0.5957079317475499,5888.899893707621
1.352,0.639206118569527,5897.049800840064
1.356,0.7154883536363744,5895.521196378558
1.36,0.8189946695066164,5900.914184941975
1.364,0.9367469626971325,5905.853460215353
1.368,1.0505249203278852,5901.043128296433
1.372,1.1408519467537863,5904.534660438068
1.376,1.1916877855541204,5902.074402073667
1.38,1.1943154401550007,5897.438562290745
1.384,1.1491392259249107,5900.025877111493
1.388,1.0650006064675477,5897.516192935515
1.392,0.9566313802934995,5909.9894149035335
1.396,0.8413562944495551,5907.049669963124
1.4,0.735961098950105,5903.965881128682
1.404,0.6541751428256776,5899.453718313778
1.408,0.6049735681769337,5902.227086406201
1.412,0.5918756199657084,5895.601703948683
1.416,0.6132461218803809,5893.435869401422
1.42,0.6632473032412728,5903.530845860056
1.424,0.7329144177627486,5902.191394758446
1.428,0.8111042019905113,5907.497667995417
1.432,0.8855738874137388,5898.920810610006
1.436,0.9446893325837298,5902.521804858685
1.44,0.979919938138661,5900.110148178292
1.444,0.9885263721519608,5899.296394805559
1.448,0.9752169451449362,5904.934095100892
1.452,0.9515694576988545,5902.236015922065
1.456,0.9328763818432898,5900.196898924166
1.46,0.9333805817699317,5896.317594033404
1.464,0.9617543880959012,5896.5948430680655
1.468,1.018463001379568,5895.035633775111
1.472,1.0955835832000795,5903.393116862048
1.476,1.1786618987666473,5898.415335102487
1.48,1.2498864019228675,5899.554526782939
1.484,1.291997567864327,5903.400018049526
1.488,1.2923868838543955,5903.726860966908
1.492,1.24662760350163,5898.018944320063
1.496,1.1604549098361383,5901.939939661886
1.5,1.0492678604792371,5894.421934309205
1.504,0.9347461838337401,5893.21139041199
1.508,0.8391393371301968,5895.859714791623
1.512,0.7788607764478406,5901.603776321523
1.516,0.7596416365765686,5904.264545401571
1.52,0.7751510283027847,5901.596251012245
1.524,0.8096549897974198,5907.884169966155
1.528,0.843654455344357,5906.731945262634
1.532,0.8604127314894391,5903.798170465218
1.536,0.8512099748345721,5902.736608147546
1.54,0.8177861706730687,5895.465393985042
1.544,0.771376682879907,5909.240448652581
1.548,0.7287928768150077,5889.667742277418
1.552,0.7069370652073264,5900.381100659279
1.556,0.7175997391347322,5896.657442428258
1.56,0.7641307249096592,5896.008822631978
1.564,0.8407999170358817,5908.381849780447
1.568,0.9347906971064075,5893.811135232291
1.572,1.0300538566851045,5901.753570348922
1.576,1.111765915549663,5900.338035488278
1.58,1.169983426850361,5895.979296086464
1.584,1.2013715485632486,5894.287569382263
1.588,1.2085852128048975,5898.209081297568
1.592,1.1977956693853475,5903.375221291404
1.596,1.1756186497723304,5905.074877386493
1.6,1.1468911633870507,5894.256158676176
1.604,1.1141745266206353,5892.998919562986
1.608,1.0788244457867568,5893.562714804762
1.612,1.04262494882656,5900.98230668291
1.616,1.0088537884803164,5900.833373582248
1.62,0.9821749612951436,5903.909786465654
1.624,0.9674450631601713,5896.577076943317
1.628,0.9679710045079196,5905.941719479337
1.632,0.9839208262258183,5894.404906161709
1.636,1.0116073350715697,5903.66525739878
1.64,1.044244157736782,5905.934280617812
1.644,1.0742945791080218,5903.134024292982
1.648,1.0966275768663365,5909.850135302578
1.652,1.110903162115191,5896.95213185378
1.656,1.1217532334858988,5902.0419368078
1.66,1.1365497726051854,5909.849138894479
1.664,1.1619874727968649,5898.972008908979
1.668,1.2012817077218547,5903.599137685957
1.672,1.2531923717275397,5891.455848072535
1.676,1.3128787199343543,5898.070008502687
1.68,1.373620994503347,5908.025323481179
1.684,1.4283158520777217,5901.646229136971
1.688,1.470314810895807,5895.506485682937
1.692,1.4939391976552487,5903.435333584619
1.696,1.4952065736993894,5894.435428109736
1.7,1.4729054454983241,5899.475748425291
1.704,1.4296022854678252,5893.893082599195
1.708,1.371896609242639,5898.84786988602
1.712,1.309425006052684,5898.068460167079
1.716,1.2526193663153031,5900.399822574175
1.72,1.2097857113131942,5898.277885225662
1.724,1.1845039047526453,5899.026876831891
1.728,1.174440159666036,5902.725926773772
1.732,1.1721606038593002,5904.754521979841
1.736,1.167615562800313,5893.748270632437
1.74,1.151277187397631,5899.185348376781
1.744,1.1168483930776782,5899.495502061489
1.748,1.0628556242253309,5899.99239668631
1.752,0.9929364314669384,5905.257757002499
1.756,0.9149604054754398,5898.941778599081
1.76,0.8392587005023217,5905.907259967154
1.764,0.7764048082872513,5899.629269645652
1.768,0.7351804392538019,5902.391775063808
1.772,0.7212358586163946,5897.957837089083
1.776,0.7364995208464721,5892.59562386975
1.78,0.7790820881222806,5896.781329839586
1.784,0.8434927152576586,5896.5406441576615
1.788,0.9211711098494845,5893.995673312372
1.792,1.0013922480778938,5904.915000950451
1.796,1.07255099144597,5903.609066934735
1.8,1.1237506276651776,5907.718341438457
1.804,1.146533182478932,5905.161118590008
1.808,1.136527472261408,5890.737985553519
1.812,1.0946959499101703,5895.183498558682
1.816,1.0276973180201543,5902.052005365265
1.82,0.9468771443484829,5899.572501180003
1.824,0.8658298097472932,5904.881028489139
1.828,0.7971612628377895,5896.152446226532
1.832,0.7495013611177879,5895.489906733316
1.836,0.7257285469823855,5898.851714392854
1.84,0.7229237314241758,5909.634772259064
1.844,0.7339456089317696,5892.386527797666
1.848,0.7499613734210924,5903.386440912935
1.852,0.763122732770256,5902.5918561668495
1.856,0.7688368759520738,5900.053193866872
