时间(s),电压(V),幅值(高频80K)
0.0,1.3667801154068029,5906.101286269701
0.004,1.2981839141588116,5896.479858992295
0.008,1.2284226830648184,5900.999685684036
0.012,1.1568962814236947,5904.08290516744
0.016,1.0845053644488738,5897.808333128191
0.02,1.0138524406804148,5895.553405157549
0.024,0.9489536943007714,5896.006511862526
0.028,0.894542165096713,5895.698318562267
0.032,0.8549960919564237,5899.601523526831
0.036,0.8331007799131317,5901.39771734533
0.04,0.8291385361776944,5901.352446600876
0.044,0.8408160984058264,5894.587309047138
0.048,0.864110432513706,5895.257794524718
0.052,0.8945242237110407,5903.942094529187
0.056,0.9280011606625594,5896.379865162821
0.06,0.9611116153416248,5902.123115661735
0.064,0.9907778549334988,5911.758135795118
0.068,1.0141635923318129,5905.303117663404
0.072,1.0291243785194586,5900.333323603511
0.076,1.0350770968897292,5895.694774681351
0.08,1.0337448647633414,5900.88547880061
0.084,1.029184256170067,5897.191264317774
0.088,1.0267823798855797,5902.633090390684
0.092,1.031408399056484,5902.099491476357
0.096,1.0454288457502015,5902.667577663477
0.1,1.0675369516885467,5899.9894153849245
0.104,1.0930407254736938,5897.817288457991
0.108,1.1155212286970437,5894.764286660888
0.112,1.129101059138882,5897.506754555973
0.116,1.1303750216850506,5909.775272797647
0.12,1.1193603511263757,5888.903310684554
0.124,1.0993060412043485,5901.463011131607
0.128,1.0755666587488566,5902.800179999475
0.132,1.0539462791614131,5895.271757689834
0.136,1.0390197900626514,5898.188437765069
0.14,1.0329241726641218,5901.309426383288
0.144,1.0349375867110109,5899.259924789181
0.148,1.0418961920277419,5902.156862414154
0.152,1.0492591989634619,5901.71972519382
0.156,1.0524822399887988,5902.313891973692
0.16,1.0483039092865838,5892.459322981387
0.164,1.035598098324246,5898.406823460424
0.168,1.015603096056158,5901.356168104289
0.172,0.9915534879107081,5899.044616511135
0.176,0.9678962911327849,5899.587346068815
0.18,0.94931359930695,5901.127898396954
0.184,0.9397509221365393,5901.807122729222
0.188,0.9416042622598864,5900.9443320388
0.192,0.9551717138662573,5908.845646119194
0.196,0.9784813902773458,5894.222250469502
0.2,1.0076268258921857,5901.500771581473
0.204,1.0376258819048017,5903.545141840364
0.208,1.0635690472141797,5903.003956910236
0.212,1.081646304663122,5902.540476646416
0.216,1.0897106961128533,5895.146712113794
0.22,1.0873008325411162,5895.810822858196
0.224,1.0752850792047328,5897.913031643558
0.228,1.0553651364357834,5896.70514329891
0.232,1.0296597103453933,5899.293242445958
0.236,1.0005715916843922,5905.645428645064
0.24,0.9710449932404787,5896.713038030737
0.244,0.9450466808607675,5895.967779241079
0.248,0.9277757049925924,5904.690788835962
0.252,0.9250405913540897,5900.132777731587
0.256,0.9416464971556903,5899.861851345014
0.26,0.9793055590926966,5906.227165078519
0.264,1.035023490426843,5896.33675247515
0.268,1.1007991720663812,5901.277263167984
0.272,1.1649114726080472,5895.320443477352
0.276,1.21442862804912,5883.042176430828
0.28,1.238195063971022,5893.62929151336
0.284,1.2295338010484733,5896.420477103752
0.288,1.188085822579081,5898.412741783576
0.292,1.1203728977936653,5892.557298961386
0.296,1.0388077710956956,5901.981364774714
0.3,0.9591441727704592,5892.644215374372
0.304,0.8968367838615374,5899.276121501373
0.308,0.8633087884831038,5907.70959989915
0.312,0.863355498333497,5894.904042315377
0.316,0.8945767590064939,5894.155402708711
0.32,0.9489196720525099,5902.919764334596
0.324,1.0155603776257087,5896.653077053359
0.328,1.0839231480294687,5908.281889714703
0.332,1.1458115225835857,5909.187895272094
0.336,1.196214578533074,5898.609792362637
0.34,1.2329524888397594,5894.964019318424
0.344,1.2556589020941016,5900.62220097625
0.348,1.264663203341868,5901.756774544347
0.352,1.2602641946700168,5900.57270701897
0.356,1.242700648532979,5895.52093096588
0.36,1.212770798586959,5894.96555455916
0.364,1.1726559128553105,5900.429088153146
0.368,1.1263488190592164,5910.940410511074
0.372,1.0793037382909147,5898.403570678588
0.376,1.0373497680333024,5897.437235059693
0.38,1.0052865874904982,5902.488519339836
0.384,0.9857307015944234,5894.9373968229165
0.388,0.9786623417527611,5902.850110244648
0.392,0.9818158127693674,5908.819302196729
0.396,0.9917274843904973,5903.311781292099
0.4,1.0050697878112915,5901.094394629615
0.404,1.019864249112929,5899.8048405491145
0.408,1.0361585626279857,5896.184036395486
0.412,1.0557726180355385,5903.427380031805
0.416,1.0809617763330952,5908.9556599120415
0.42,1.112390304930051,5900.148047857332
0.424,1.1473617008453953,5887.435991639001
0.428,1.1793668405393634,5895.460429664113
0.432,1.1994974990090705,5903.351348672913
0.436,1.1993663632057678,5894.90718212276
0.44,1.1743724018101134,5899.5799177068575
0.444,1.1259031140518598,5897.135393788421
0.448,1.061506876538951,5892.766730644422
0.452,0.992954923791725,5893.51415472784
0.456,0.9329840122640155,5894.782965437124
0.46,0.8919545078148566,5898.453660466816
0.464,0.8755274475469675,5895.306227484111
0.468,0.8839270155972201,5899.304022484278
0.472,0.9127326499683011,5898.681542047231
0.476,0.9546873075459433,5898.34443022767
0.48,1.001816870359067,5905.871679674776
0.484,1.0472252854040272,5901.872183213318
0.488,1.0861753303493762,5894.675653559491
0.492,1.1163630815399834,5896.315966208792
0.496,1.137558388001043,5905.431178983079
0.5,1.150955004932591,5900.146932197071
0.504,1.1585795787973114,5899.0011627877175
0.508,1.1629177712632144,5908.005332161726
0.512,1.1666449251980366,5902.195992005967
0.516,1.1722498933962204,5909.086321309759
0.52,1.1815431043665132,5902.031681390617
0.524,1.1952958160330174,5908.202471116862
0.528,1.213221431334615,5901.739353972572
0.532,1.2342511939632221,5900.028968992069
0.536,1.2569154933462379,5905.29814830644
0.54,1.279684829424176,5894.872259884463
0.544,1.3011645038811666,5898.332681685672
0.548,1.3200462229924967,5890.57808360038
0.552,1.3348264676094939,5904.341104536452
0.556,1.3434880153800453,5896.180287805278
0.56,1.343447792139079,5889.115922029152
0.5640000000000001,1.3320147999786096,5893.813489938385
0.5680000000000001,1.3073855132227978,5893.326893921433
0.5720000000000001,1.269885637768233,5893.075931103767
0.5760000000000001,1.2228859408189225,5886.477552437214
0.58,1.172770491689737,5901.002619235385
0.584,1.1276429045644316,5897.382501972419
0.588,1.0950486621721178,5902.812816796443
0.592,1.0795546893144663,5893.66954240141
0.596,1.0811873834155217,5901.349562431727
0.6,1.0953770428410683,5903.902862888416
0.604,1.1144304634732782,5903.66469428569
0.608,1.1299907266240845,5897.916735627522
0.612,1.1356199499879551,5899.727655036571
0.616,1.128615543096638,5899.245127355923
0.62,1.1104949231933126,5905.344713259695
0.624,1.0861570363758462,5901.325489283057
0.628,1.0622172481130308,5896.306457494646
0.632,1.0451617719716284,5897.222253459215
0.636,1.0398390399764261,5900.151912004992
0.64,1.0485623328068296,5892.808251076423
0.644,1.0708248659789685,5908.412608329043
0.648,1.103440140427439,5903.916142915481
0.652,1.1409595831422183,5900.540583514349
0.656,1.1764244780229827,5901.3304607134605
0.66,1.2025969719604397,5908.414907637835
0.664,1.2136099525896182,5904.628413690783
0.668,1.2066278150232572,5900.58918732956
0.672,1.1829264313380579,5894.2992843293
0.676,1.1479386754131016,5913.95849948372
0.68,1.1101689567582658,5903.923032954211
0.684,1.0792386977030792,5901.553584732608
0.6880000000000001,1.0635565492377648,5905.467805986258
0.6920000000000001,1.0682051723263688,5903.883620603614
0.6960000000000001,1.0935998970075012,5903.65921429708
0.7000000000000001,1.135281795185625,5896.961557046659
0.704,1.1848977951700004,5885.114828639396
0.708,1.2321058730435972,5901.3239646657175
0.712,1.266934806300962,5894.754716306073
0.716,1.2820635846890982,5900.128401273395
0.72,1.2745211425844816,5894.44914131601
0.724,1.24640031125911,5908.291172863877
0.728,1.2043593984117404,5901.8860000846735
0.732,1.1579824254784388,5895.906322641476
0.736,1.117420289224618,5909.258791893502
0.74,1.0909853083632093,5906.464060876886
0.744,1.0833724357191603,5899.245298646052
0.748,1.0949090239891155,5900.836452368895
0.752,1.121846277353305,5900.501030588397
0.756,1.1574276258307088,5903.899751800284
0.76,1.1934151229648997,5899.475978369866
0.764,1.2218368436058888,5890.163325631019
0.768,1.2367356316072555,5905.271593444796
0.772,1.2355575960533103,5903.967496453046
0.776,1.219701627449616,5895.340000903432
0.78,1.19393939017651,5897.989985804066
0.784,1.1648796052494925,5893.4339826545975
0.788,1.139044133910661,5893.827167912688
0.792,1.1212038505955617,5903.043065956214
0.796,1.113446626439121,5896.24782638377
0.8,1.1151626804928545,5894.503741896175
0.804,1.1238040558894897,5902.239008913527
0.808,1.135991223876997,5896.306537817605
0.812,1.148463937291285,5900.613572762357
0.8160000000000001,1.158589435142808,5904.2474457451
0.8200000000000001,1.1645006937821192,5896.804659855189
0.8240000000000001,1.1651522085928927,5897.621281715133
0.8280000000000001,1.1604825217328814,5900.4572069745145
0.8320000000000001,1.151581143941246,5896.354547321562
0.836,1.1405679343532225,5900.443625214954
0.84,1.1299896142980568,5899.965255477774
0.844,1.1218600519411361,5906.535852514757
0.848,1.1168011904830466,5898.791655957164
0.852,1.1138252005800213,5908.223311504123
0.856,1.1109901267581554,5899.930264061274
0.86,1.1066087757738488,5904.452915043555
0.864,1.1002960948622464,5896.602403209488
0.868,1.0932299506116423,5899.36104066104
0.872,1.0875245566618903,5890.159244361591
0.876,1.0851724300824312,5905.618461093767
0.88,1.0871899317093474,5889.959655745468
0.884,1.093346648016601,5898.3833931128165
0.888,1.1024604343809075,5903.749018528429
0.892,1.1129903943325588,5900.988064601545
0.896,1.1236121836660873,5900.426629929201
0.9,1.1335292828290051,5903.392913819616
0.904,1.1424300643405088,5910.009453222242
0.908,1.1502266427527301,5907.374270839186
0.912,1.1568540286700222,5901.983744377441
0.916,1.162291909880009,5902.009145012478
0.92,1.1666935642416711,5903.390306171613
0.924,1.1703777333474947,5905.259046019639
0.928,1.173574116833313,5904.458818308648
0.932,1.1760269450650909,5901.16907939589
0.936,1.1766851881698377,5898.092400510124
0.94,1.1737195451014348,5905.199342776578
0.944,1.1649875098547489,5894.902537498341
0.948,1.1488248035829587,5903.01273658033
0.952,1.124822120383022,5892.07772777114
0.956,1.0942320333231093,5908.069900241215
0.96,1.059854114172915,5901.418450521166
0.964,1.0255022133020248,5899.258423956119
0.968,0.9952934829396557,5898.806719694256
0.972,0.9729706031091016,5899.76843126671
0.976,0.9613547600559283,5895.619529597001
0.98,0.961928086756017,5902.346946407728
0.984,0.9745212503583772,5901.408328367017
0.988,0.9971509610435755,5901.628890009629
0.992,1.0261641411199993,5901.170058470523
0.996,1.0568694988005143,5898.599188579626
1.0,1.0846570696969073,5898.250593483412
1.004,1.1062811009201223,5893.591780327055
1.008,1.1207555181027302,5906.084988685993
1.012,1.129397419847622,5895.7688517756105
1.016,1.1349380355225402,5895.183444949596
1.02,1.140094311426455,5902.0207401806765
1.024,1.1462936979305913,5906.2656657568
1.028,1.1531710222202227,5901.298970371141
1.032,1.1590226215566926,5898.124776307587
1.036,1.1618676834934951,5909.66613199092
1.04,1.1604575480508266,5895.990912669068
1.044,1.1546906149613736,5895.706174207076
1.048,1.1453629599312372,5899.026179733211
1.052,1.133631349965143,5905.395473378735
1.056,1.1206015194459327,5898.782394571854
1.06,1.1071379531976842,5897.335205841016
1.064,1.0937503769998385,5898.904011210514
1.068,1.0804847674983815,5904.195865972855
1.072,1.0669190411772165,5898.872594999604
1.076,1.0523512672308541,5901.030836200641
1.08,1.0361211299798414,5899.829087319658
1.084,1.0179326902706083,5904.125273426218
1.088,0.9980750792209989,5903.937451254544
1.092,0.9775042603559246,5906.513716003285
1.096,0.9578468446859758,5899.075880436955
1.1,0.9414114930736853,5901.434488370737
1.104,0.9311199533651637,5900.847434000151
1.108,0.9300863143939031,5898.914873814144
1.112,0.9407135398247565,5897.433775910248
1.116,0.9636034759153684,5898.200412747121
1.12,0.9968701732490005,5904.331554593686
1.124,1.0362999486948212,5899.598410134969
1.128,1.0763413077351942,5893.104782604338
1.132,1.1115069702688691,5903.737952280996
1.136,1.1376601938365634,5892.481519042187
1.14,1.1528052419457566,5902.804487612061
1.144,1.1572467168040645,5882.0584355381
1.148,1.1531643328322214,5910.336781561469
1.152,1.143740998017221,5898.760113840291
1.156,1.1321073055214799,5892.666774787207
1.16,1.1205198742873528,5899.989755700739
1.164,1.1101370500180083,5894.076245042676
1.168,1.1014099362370815,5892.889448320349
1.172,1.0947418463312855,5901.550842621235
1.176,1.0909682934438876,5906.329468201016
1.18,1.09138367634282,5899.365859119971
1.184,1.0973356362196356,5901.776313269408
1.188,1.109653328091136,5892.744605065946
1.192,1.1282325017805725,5902.162236254379
1.196,1.1519482242366998,5901.163372697555
1.2,1.1788419694115142,5911.553749641826
1.204,1.2063961003741788,5900.8988024725
1.208,1.2317271636148537,5896.949861042791
1.212,1.2516697313715102,5902.260323532315
1.216,1.2628921822549846,5898.757250203631
1.22,1.2622521393037156,5894.362865458889
1.224,1.247491403007821,5901.60955561102
1.228,1.2181444336757032,5902.516257566944
1.232,1.1763036647346463,5898.715469156362
1.236,1.1267814263061706,5900.92992384275
1.24,1.0763768333359023,5901.410097110975
1.244,1.0323828450525805,5899.745418734998
1.248,1.000870214897574,5902.947925866617
1.252,0.9853684168493887,5903.118588473748
1.256,0.9863260025782528,5902.015886783476
1.26,1.001387920616916,5907.536268680282
1.264,1.0262670926433612,5898.3019134676215
1.268,1.0558825155210994,5889.580746126559
1.272,1.0854495963895026,5900.572165043641
1.276,1.111267693210918,5901.59123017968
1.28,1.1310412042666849,5897.578429882338
1.284,1.1437302612784102,5894.841116633997
1.288,1.1491252684565973,5900.040447761426
1.292,1.1474479078630762,5897.93371570296
1.296,1.1391970104971618,5896.17889261537
1.3,1.12523039696025,5903.476413743848
1.304,1.1068803071944913,5893.67588034617
1.308,1.0858893195274744,5899.373508226988
1.312,1.0641179421063096,5905.531951701012
1.316,1.0431688570434208,5901.362363883192
1.32,1.0241526591739198,5896.849170735769
1.324,1.0077408182894219,5894.495409519146
1.328,0.9944541280791666,5903.933736678391
1.332,0.9849519207456698,5907.437114906477
1.336,0.9801012926102382,5901.139777369382
1.34,0.9808231010022449,5896.608907659752
1.344,0.9878902189025262,5903.063358995578
1.348,1.001809244084694,5894.120202861857
1.352,1.022756005592033,5899.521374461071
1.356,1.0504777684022746,5901.808189026021
1.36,1.0841689653241902,5895.082734034821
1.364,1.1224228029459167,5899.965658672297
1.368,1.163327240643803,5899.032446906835
1.372,1.204650400726221,5894.769721221203
1.376,1.243975396364262,5909.65978146809
1.38,1.2786783784688378,5899.763812662926
1.384,1.3057920532994336,5893.017394308024
1.388,1.3219719531776004,5905.954252077918
1.392,1.3238384932834313,5896.679263283173
1.396,1.3087969402717228,5908.158682688464
1.4,1.2761091674094607,5899.385002151755
1.404,1.2277675569600042,5892.585206269245
1.408,1.1687970404014887,5896.5116565049175
1.412,1.106864841698386,5895.943146056145
1.416,1.051259733888066,5898.976894326371
1.42,1.0113712220844517,5895.905750466341
1.424,0.9948751907821297,5896.1533351585385
1.428,1.005964024371283,5904.5172833925535
1.432,1.0440780583712568,5913.792146466949
1.436,1.1035863063927887,5908.240909067737
1.44,1.1746324644515755,5906.879505314477
1.444,1.2449662146762082,5896.436060966514
1.448,1.302271100862128,5902.284445040787
1.452,1.3364633057746123,5911.464089440244
1.456,1.34155648142653,5895.733418161028
1.46,1.3167654426295121,5897.64916919771
1.464,1.2665938457559445,5895.013514785254
1.468,1.199865484618619,5904.34392387295
1.472,1.1279442844472816,5902.344419558332
1.476,1.0625414643631124,5898.174886993819
1.48,1.0135150080380282,5889.761661891538
1.484,0.9870543455406711,5891.760358381984
1.488,0.984618272745451,5896.49710681215
1.492,1.0028740509678136,5897.074559727948
1.496,1.034677268735763,5903.912405184982
1.5,1.0708926617689267,5897.876446926711
1.504,1.1026045235661084,5904.375053284151
1.508,1.1230684693931343,5902.569827037991
1.512,1.1287948161057983,5894.324369694296
1.516,1.1195370654468693,5899.2695393607455
1.52,1.097486210430788,5899.690762688213
1.524,1.0662497354754987,5902.347132204757
1.528,1.0300518107723062,5891.649675225948
1.532,0.9932381234470398,5900.446177281986
1.536,0.9599221928613527,5900.763640632868
1.54,0.933603709675892,5899.257627420157
1.544,0.916749531782276,5903.60015716817
1.548,0.9104895914904401,5905.178055442946
1.552,0.9145951908843959,5895.778733881973
1.556,0.9277538654454481,5904.78310511233
1.56,0.9479892276826495,5906.650659031946
1.564,0.973060672092702,5893.714543109304
1.568,1.0007714238768852,5907.17158848778
1.572,1.0291665141204949,5894.204203245478
1.576,1.0566027642833447,5899.842642007883
1.58,1.0816915294138876,5903.864091451072
1.584,1.1031556587832487,5888.828189608448
1.588,1.1196781702675505,5897.1410667359605
1.592,1.129837228162622,5902.276391911071
1.596,1.1322001634638312,5899.661223510329
1.6,1.1255887813169105,5894.683112852545
1.604,1.1094382601299109,5913.387157086152
1.608,1.0840736973345484,5899.452865213674
1.612,1.0507279804273721,5900.909856014231
1.616,1.0112921861662878,5910.064456902619
1.62,0.967971748178525,5893.333937394771
1.624,0.923040029184934,5903.605292532796
1.628,0.8787950400366058,5899.114506628627
1.632,0.8377468393441069,5896.518646694492
1.636,0.8029404680312402,5897.980814058979
1.64,0.7781289181803601,5903.997866345037
1.644,0.7674388861461647,5898.08205232761
1.648,0.7743954769960394,5900.508713815822
1.652,0.8005832230406567,5903.052695717869
1.656,0.8445129170048816,5901.0198460996735
1.66,0.9012430745193977,5903.661868219474
1.664,0.9630302525781759,5904.391959639031
1.668,1.0209119603283414,5905.145146896243
1.672,1.0667645388519609,5904.466984433991
1.676,1.0951462208265523,5891.9310432043885
1.68,1.1043073882458356,5897.133817750031
1.684,1.0961510235333174,5899.121483700293
1.688,1.0753994185940114,5894.938700717848
1.692,1.0484468410357513,5904.174205120902
1.696,1.0222506272796006,5905.356227434171
1.7,1.0033080822254028,5898.536865924864
1.704,0.996589340478225,5905.659139784093
1.708,1.0044192550531246,5899.777801463912
1.712,1.025588796369886,5897.230864599961
1.716,1.0551512378506314,5896.405589827268
1.72,1.085265055884689,5903.389433844467
1.724,1.1070856697521017,5897.934046298088
1.728,1.1132112344639775,5899.054577527989
1.732,1.0998274411305669,5903.417774023425
1.736,1.0677380479338596,5909.870946046036
1.74,1.0219121628029633,5903.028998063431
1.744,0.9697659865031077,5897.7896316962
1.748,0.9188593007452928,5907.366790632885
1.752,0.8748851617069451,5901.406187806768
1.756,0.8406935777025859,5911.363566313944
1.76,0.8166201099984245,5898.895819557467
1.764,0.8017566503135911,5904.292151125107
1.768,0.795332192161724,5898.14785107322
1.772,0.7973898143138741,5899.953537355888
1.776,0.8084762757739128,5894.129762029744
1.78,0.8287008591034358,5895.806425380208
1.784,0.856815258361275,5906.060415919731
1.788,0.8898491261273173,5898.233052022728
1.792,0.9235278812728108,5899.885320267989
1.796,0.9533675621396053,5907.147258391557
1.8,0.9760388440498423,5907.171465162554
1.804,0.9903973306644905,5902.818927885103
1.808,0.9976425999538616,5897.245106124247
1.812,1.0004750503829254,5899.138574830045
1.816,1.0016885870378698,5895.959082143449
1.82,1.0029867789936364,5902.244387719277
1.824,1.004658562193491,5903.23486548599
1.828,1.006178321802709,5900.715365251775
1.832,1.007214039150221,5898.102525031585
1.836,1.0083283722264798,5908.761556369712
1.84,1.0109187702766553,5902.85717886389
1.844,1.016454473691914,5904.1329704955615
1.848,1.0254946727707492,5901.212137757114
1.852,1.0370366149523293,5899.099373752002
1.856,1.0484730038925396,5910.995227125385
1.86,1.0561453218472752,5897.166467548435
