时间(s),电压(V),幅值(高频80K)
0.0,1.7121103992065705,5898.941907054705
0.004,1.5411306805840503,5900.289953327755
0.008,1.385077166080352,5910.378556545536
0.012,1.2566740354051433,5898.319323822982
0.016,1.1615980305521476,5907.507988052792
0.02,1.0985818267319143,5900.273093584414
0.024,1.0621148579393178,5901.32838076858
0.028,1.0461293222507422,5907.165314231435
0.032,1.0466759925746456,5900.78134019865
0.036,1.0623552297369416,5904.3427405005405
0.04,1.092634504083178,5903.088437765267
0.044,1.1353157468502613,5896.053892662495
0.048,1.1847021654980492,5900.383252110704
0.052,1.2314318461519043,5901.911231670659
0.056,1.264064128155901,5898.996595336105
0.06,1.2719039508652106,5900.207867063271
0.064,1.2482518712546486,5900.845218668543
0.068,1.1930113044639095,5897.6799806798845
0.072,1.1134920800863715,5897.834161655863
0.076,1.0227633293991774,5892.332557032365
0.08,0.9360177805620535,5904.670217662154
0.084,0.8663612187830267,5896.252284910383
0.088,0.8215347189480892,5899.63295978343
0.092,0.8024865084393218,5908.153410627559
0.096,0.8040723164902406,5897.205228749826
0.1,0.8176284914438453,5905.718971612762
0.104,0.8345073709125678,5895.878575713536
0.108,0.8491258310269058,5904.071047849433
0.112,0.8602626814889017,5904.642366912727
0.116,0.870292558362691,5900.073933662248
0.12,0.8830602784895328,5896.9387428234695
0.124,0.9015368408528989,5897.393577265998
0.128,0.9261986625303354,5902.171844466001
0.132,0.9545572029277282,5903.718344867009
0.136,0.9817842281710756,5887.314091297257
0.14,1.0020951973492291,5905.507164404655
0.144,1.010435353898615,5898.761211964344
0.148,1.004000316004941,5906.318186023748
0.152,0.9832292771039962,5903.615301340653
0.156,0.952108289315098,5905.424582762993
0.16,0.9177854274960671,5902.160464227139
0.164,0.8895231487208333,5902.353289310277
0.168,0.8769495635156008,5891.502612387226
0.172,0.8876533494301082,5902.478981622172
0.176,0.924606227974906,5905.309682362595
0.18,0.9844667470874524,5900.219473556174
0.184,1.0578531951085866,5905.973238410144
0.188,1.1318209314309198,5898.606460145698
0.192,1.1935715966792426,5897.787092014818
0.196,1.2337804561310959,5901.115853309017
0.2,1.2482693118498496,5900.953925124115
0.204,1.2377217167824783,5895.207892735676
0.208,1.2060537025007367,5901.27832743063
0.212,1.1584639513199355,5897.081323712383
0.216,1.100057506569657,5895.083230117349
0.22,1.0354627473879543,5894.663936285834
0.224,0.9692548890798414,5898.338865868176
0.228,0.9065184823901885,5900.992521467689
0.232,0.8528504718911486,5895.086220251812
0.236,0.8135840808109743,5907.791103080172
0.24,0.7925733925375705,5905.82735402155
0.244,0.7910761439497123,5904.6452317604535
0.248,0.8071579845476556,5892.575369624254
0.252,0.8358636228336472,5899.468385809015
0.256,0.8701932274871779,5900.231800980244
0.26,0.9026749556983379,5896.276959350876
0.264,0.927117481811574,5906.211457791597
0.268,0.9400190406795202,5905.731258597167
0.272,0.9411862343515583,5899.726778774034
0.276,0.9334321504687956,5902.757700152052
0.28,0.9215948463220502,5910.100350489584
0.284,0.9112717776474707,5903.013831481142
0.288,0.907582224137363,5901.334164948974
0.292,0.9141599739261922,5908.722608471375
0.296,0.9325536010008686,5897.500587258837
0.3,0.9621371070481666,5890.272000819069
0.304,1.000433580387561,5899.698445591708
0.308,1.0436190609898617,5895.685228996307
0.312,1.0870551261725863,5905.410039325176
0.316,1.1258611681526258,5901.074752977774
0.32,1.1555494440395278,5900.459708552665
0.324,1.172575174063991,5904.885937125618
0.328,1.1745533358401394,5897.46316966333
0.332,1.1601293257643204,5900.851951602292
0.336,1.1289034302026846,5893.18338239472
0.34,1.0818845726744444,5894.896962041773
0.344,1.0224639182363724,5897.163818338266
0.348,0.9572363451465469,5903.235204332415
0.352,0.895730639632478,5903.686644653083
0.356,0.8485325440269066,5893.748807731263
0.36,0.8242645519249643,5903.804888509162
0.364,0.8268105433218075,5906.98705010334
0.368,0.8542526044636434,5904.99875002977
0.372,0.9000332036680813,5894.531004556432
0.376,0.9555942056909733,5903.534390974214
0.38,1.0130880671636182,5896.745924001943
0.384,1.0669961528156549,5906.04184517458
0.388,1.1142938229055916,5896.4504109761865
0.392,1.1536219491330708,5902.830185726607
0.396,1.1842852061191131,5898.687588416542
0.4,1.2056972697134445,5894.395454445468
0.404,1.2174623824882136,5906.731747437283
0.408,1.2199255443600088,5900.338311745558
0.412,1.2147629683617962,5895.249242597774
0.416,1.2050932746376666,5903.425096125548
0.42,1.1948280496129688,5893.269364256573
0.424,1.1874184113100086,5906.279249860509
0.428,1.1844943913808026,5898.65410635539
0.432,1.1850409701887719,5898.715522187542
0.436,1.1856661770180426,5899.619815674561
0.44,1.1820654589781514,5895.876331038954
0.444,1.1711175264425546,5894.6117557679445
0.448,1.1526595635062709,5891.141745832387
0.452,1.1301737651194592,5893.128078879292
0.456,1.1101210255395497,5901.1244877171775
0.46,1.1000978473997325,5906.361962408366
0.464,1.1062844015585964,5898.811312301505
0.468,1.1308820349255497,5897.193015013701
0.472,1.1703857358243812,5902.326616986838
0.476,1.2154591447114185,5901.611739357129
0.48,1.2527630000931769,5898.959828376054
0.484,1.2683908629479954,5901.148541715814
0.488,1.2518794955552683,5897.116986078293
0.492,1.1994726288196604,5905.401445986
0.496,1.1155970514922908,5899.031620861306
0.5,1.0121570070526913,5890.948783362454
0.504,0.9059261889232331,5900.649675903635
0.508,0.8148014448715297,5898.909076594829
0.512,0.753874562289341,5892.364097573779
0.516,0.7321901584597672,5896.416167897594
0.52,0.7508555341893686,5895.928249641585
0.524,0.8029271818489957,5900.795085658531
0.528,0.8750934807140752,5898.12576870056
0.532,0.9506536798981634,5896.109651682593
0.536,1.012996898115974,5897.3193181033375
0.54,1.0488759373831844,5893.6025913569365
0.544,1.0510053060244018,5904.414907355277
0.548,1.0195764146516657,5893.3587760426335
0.552,0.9622117782022546,5893.814720224405
0.556,0.8920683629856905,5894.575768962254
0.56,0.8244562870022746,5906.147274806469
0.5640000000000001,0.7730386408885197,5901.3898057661645
0.5680000000000001,0.7468359169331056,5897.824998298566
0.5720000000000001,0.7488648935403927,5891.219717739821
0.5760000000000001,0.7766681527884881,5898.616149337678
0.58,0.8243796277811837,5897.8603240678085
0.584,0.8853464720356785,5908.263322380466
0.588,0.9540217233426479,5902.927021313863
0.592,1.026264135905195,5896.556000605259
0.596,1.0981851581037252,5900.325054055398
0.6,1.1645670390372274,5888.677122081108
0.604,1.2180511565024528,5896.327684753944
0.608,1.2497666431480359,5906.168544673553
0.612,1.2513006199149126,5902.744025413362
0.616,1.2173340353900206,5910.953799874051
0.62,1.1479927073600493,5906.33509641274
0.624,1.0499810163499566,5901.612981334171
0.628,0.9359444508191416,5899.360719255879
0.632,0.8221874613572318,5895.985605326535
0.636,0.7254885831440413,5901.536722526138
0.64,0.6599424519189643,5903.921893706012
0.644,0.6345683520023616,5898.201795015382
0.648,0.652152913675114,5901.2506252546
0.652,0.7094805041368646,5896.861742220906
0.656,0.7986346157834745,5903.671807296799
0.66,0.9086940933527807,5899.9314715325245
0.664,1.0273235363707989,5906.754624845072
0.668,1.1422542256176766,5904.522755642249
0.672,1.2427759513224046,5892.215386058323
0.676,1.3209941186819183,5900.518531045297
0.68,1.3724007658368862,5907.809568636582
0.684,1.3956655477746,5901.69918440021
0.6880000000000001,1.3920577817156845,5904.112170037908
0.6920000000000001,1.3649559274648861,5898.761446600967
0.6960000000000001,1.3194769588127069,5897.0826167651485
0.7000000000000001,1.261925194234769,5901.965408559423
0.704,1.1989004243149635,5904.195476838824
0.708,1.1362526021564816,5901.494547878903
0.712,1.0782187161844892,5896.325975713306
0.716,1.027031946052481,5905.2861947206375
0.72,0.9831725744907448,5898.406027843018
0.724,0.9461935474884181,5898.797528491272
0.728,0.9157572388953654,5904.20767883727
0.732,0.8923726654741498,5904.400785883099
0.736,0.8774616223868116,5899.780814364513
0.74,0.8727553454454681,5890.787101106853
0.744,0.8793762423294129,5897.881710530899
0.748,0.8970293460623695,5900.3445668216345
0.752,0.9235354287582952,5892.1472248276605
0.756,0.9547345352573886,5896.422459836807
0.76,0.984747296085391,5899.395398751564
0.764,1.0066378286801785,5896.995705862433
0.768,1.0134870614950513,5898.674496305005
0.772,0.9997192660504067,5897.634490514583
0.776,0.9624083591482954,5894.871906048636
0.78,0.9022875340653973,5897.3932703947
0.784,0.8241502625365588,5908.657985998517
0.788,0.7363181792232572,5903.193934166851
0.792,0.6491124118842825,5898.783501453984
0.796,0.5727365641840527,5901.780850424034
0.8,0.5152977173245235,5903.100310377901
0.804,0.4816489809409954,5896.327089132212
0.808,0.4733518895966248,5905.2079222508655
0.812,0.4894490779644635,5902.595855177565
0.8160000000000001,0.5272597856849938,5900.71516806721
0.8200000000000001,0.582550092555931,5905.071645243841
0.8240000000000001,0.6491822223981552,5891.436289226462
0.8280000000000001,0.7190055534020731,5895.3094053832565
0.8320000000000001,0.7826953522902556,5898.175981258386
0.836,0.8316101238627615,5899.766062319831
0.84,0.860082241334769,5907.462558058635
0.844,0.8672591514166755,5895.863279918374
0.848,0.857727869408908,5908.532277813197
0.852,0.8405632079525357,5910.6537459903775
0.856,0.8270046962453723,5905.508304479191
0.86,0.8274995216984605,5897.990228637079
0.864,0.8490646571167727,5899.208825995985
0.868,0.8937008571848872,5894.221759926116
0.872,0.9581416520893075,5898.134953065552
0.876,1.0348162213216525,5902.106313823684
0.88,1.1136594177230215,5901.481372480094
0.884,1.1843010801495406,5892.206055510231
0.888,1.238140189693729,5895.700926512664
0.892,1.2698320281018007,5899.646442861993
0.896,1.2778567386251198,5902.037103705049
0.9,1.2641071549720333,5901.798675276406
0.904,1.2327355404861433,5897.80358363189
0.908,1.188763065273268,5903.365846424797
0.912,1.1370791403568183,5893.629599098081
0.916,1.0822292807010918,5899.832099182402
0.92,1.0288049463184596,5895.4399048991545
0.924,0.9817273647009888,5894.905147283787
0.928,0.9457375989060791,5900.943739649541
0.932,0.924022956149334,5902.830885141709
0.936,0.9167015828629445,5898.830962698997
0.94,0.9202457070783663,5902.6947245179845
0.944,0.9285152751810771,5895.101665948889
0.948,0.9351485018018251,5905.335566761692
0.952,0.9362392958945859,5890.33150641856
0.956,0.9320090765156683,5895.077131072173
0.96,0.9266455277947381,5903.907835657936
0.964,0.9263779963882419,5902.927515656041
0.968,0.9367020606723516,5894.885502339857
0.972,0.9599828285923736,5901.219682946271
0.976,0.9943258205155361,5897.542026401675
0.98,1.0339218558766896,5897.690791476703
0.984,1.0705430677011005,5896.483890246647
0.988,1.095694548520348,5903.333931717981
0.992,1.102904260964419,5905.456847458885
0.996,1.0895789150649322,5907.570108060437
1.0,1.0578611879583735,5894.539005666297
1.004,1.0141300369549444,5903.930253812277
1.008,0.9672197271383501,5896.361075098243
1.012,0.9259888033075192,5893.184145990404
1.016,0.897186785259273,5899.4793070342175
1.02,0.8843023673005951,5902.326893663181
1.024,0.8874298032695263,5905.401059738461
1.028,0.9037400876808345,5901.896993803906
1.032,0.9281797140287621,5898.162002473458
1.036,0.9543233620934343,5896.50003953025
1.04,0.9755063093016462,5892.537103485089
1.044,0.9862524252577414,5900.89392461587
1.048,0.9836501016649626,5897.787365247014
1.052,0.9680385675241151,5904.215218196447
1.056,0.9425290481928486,5897.863570179567
1.06,0.9115131149626591,5896.53660200038
1.064,0.8789454953719735,5907.618844729576
1.068,0.8473142706177398,5899.303267670478
1.072,0.8177524731557292,5895.101581240741
1.076,0.7910626705736281,5900.30378582818
1.08,0.7688975149254839,5896.026813167411
1.084,0.7541890280464256,5891.336600789697
1.088,0.7503179066834597,5897.375440951319
1.092,0.7593752858756465,5902.726679846779
1.096,0.7806102027559075,5906.588851701622
1.1,0.8101238182925253,5901.536248043104
1.104,0.8420499741078884,5894.796664321802
1.108,0.8705125660539864,5897.547875753566
1.112,0.8912907439389239,5895.714518250284
1.116,0.902530396344507,5901.572162409872
1.12,0.9045609726450091,5897.678352997348
1.124,0.8992985157964785,5903.312201872575
1.128,0.8896326452170263,5902.499969319733
1.132,0.8788648445409619,5903.901294443663
1.136,0.8700531751070869,5902.579994970907
1.14,0.8652068192052538,5902.075664902103
1.144,0.8645675412646466,5904.829914839982
1.148,0.8664020455765271,5894.19728831535
1.152,0.8675499355157085,5898.912335845853
1.156,0.8645234451074583,5900.668518390806
1.16,0.8546259947306164,5909.803638944385
1.164,0.8366251727395834,5900.939487184531
1.168,0.8108964245483017,5898.153534638157
1.172,0.7792948686025837,5905.720631671566
1.176,0.7450088079870659,5902.892697660951
1.18,0.7123622630929753,5896.739276417248
1.184,0.6863453752065423,5895.942330530781
1.188,0.671807668487461,5909.221802017345
1.192,0.6725955443025953,5908.468723822153
1.196,0.6910555001797904,5907.144087752647
1.2,0.7280125315870396,5900.962724610856
1.204,0.7828552861521527,5892.119999702362
1.208,0.8533099744714744,5902.354766549275
1.212,0.934968962884044,5898.4454235004505
1.216,1.0211141813229263,5900.908644132103
1.22,1.1033597899292882,5903.112980436413
1.224,1.173149792615866,5893.6198873478015
1.228,1.2235509801568754,5900.408883253415
1.232,1.2505370864478766,5904.376964573383
1.236,1.253278068787782,5895.733228748936
1.24,1.23357011871697,5900.485687445523
1.244,1.194977021029619,5900.694540571782
1.248,1.1422028056677203,5889.108283989646
1.252,1.0807816896583573,5899.243937960383
1.256,1.0167822035810035,5898.994080489091
1.26,0.9562436538064528,5906.16931387036
1.264,0.9044161827285553,5897.389956444842
1.268,0.8651566689153061,5893.990344520802
1.272,0.8407644144392179,5897.955311143838
1.276,0.8322175857196332,5900.322770626528
1.28,0.8395146550736123,5910.547919089858
1.284,0.8618355779242948,5906.532414983958
1.288,0.8974329251318459,5904.418338739139
1.292,0.9433700703855376,5902.072399487878
1.296,0.9953555288292717,5901.823650359375
1.3,1.0479083568491878,5902.17214179992
1.304,1.094887004271097,5898.2145923173775
1.308,1.1301879590080866,5901.503865872673
1.312,1.1484263086648734,5903.899422728537
1.316,1.1456089450547087,5900.3113278115925
1.32,1.119882364700818,5894.199457174973
1.324,1.0722541555112153,5902.415413171602
1.328,1.0069866700721322,5903.232114093579
1.332,0.9313902003757587,5902.090943288871
1.336,0.8549871832408183,5895.478840543826
1.34,0.7882630945479597,5897.947671555014
1.344,0.7412476418694135,5899.004200385037
1.348,0.7220105545780379,5899.349890254784
1.352,0.7351072888396569,5898.607931001397
1.356,0.7802410790066245,5905.044856564486
1.36,0.8516722580092513,5900.273026993988
1.364,0.9388584590150161,5907.61508354115
1.368,1.0284223676635325,5893.313669245617
1.372,1.1070235333676983,5892.256926381927
1.376,1.164283538273419,5905.455684863675
1.38,1.1948373499264595,5900.773793696794
1.384,1.1989894332433089,5895.804604452033
1.388,1.182046868040525,5900.392138750523
1.392,1.1527082293541773,5897.299993178222
1.396,1.1208603493831024,5893.148778048587
1.4,1.0951478463087745,5899.497698231312
1.404,1.0808756014808614,5905.101938943553
1.408,1.0788683151746872,5895.569904792422
1.412,1.0856216393937568,5908.487494394979
1.416,1.0946809885378193,5889.41959818463
1.42,1.0989519627253634,5899.271007678361
1.424,1.093444640491091,5901.103692347326
1.428,1.0775994978467394,5901.380542952626
1.432,1.056111889312068,5903.250385022442
1.436,1.0375554431149412,5903.209171415635
1.44,1.031139223441102,5893.080539726708
1.444,1.0429814251346472,5901.174888263758
1.448,1.0735501253102584,5889.234723283265
1.452,1.1172207636286433,5907.604002982925
1.456,1.1638234332981885,5893.063051654876
1.46,1.201349436771498,5898.165798330965
1.464,1.218887888685611,5899.222914834548
1.468,1.2091019755567964,5902.430428949751
1.472,1.1698165807300223,5897.32598194211
1.476,1.1044648310740708,5909.406608720125
1.48,1.021309010159938,5892.161323304842
1.484,0.9316329974446735,5897.887421946061
1.488,0.847438991842616,5901.644481907546
1.492,0.7793233101470035,5894.722424945168
1.496,0.7350208239557847,5907.208636493861
1.5,0.7187372881539422,5903.595319364064
1.504,0.7310916311270388,5898.030397111705
1.508,0.7694165630718394,5898.790716498229
1.512,0.8282544805445318,5906.831134460734
1.516,0.8999701071521662,5899.132153800265
1.52,0.9754256846857499,5897.942373667324
1.524,1.044705520623743,5895.338837564013
1.528,1.0979814844987068,5901.695046573952
1.532,1.1267016523425013,5904.962738143971
1.536,1.1251822846363129,5904.4914494014565
1.54,1.0922866199713601,5907.209304219891
1.544,1.032432853272032,5896.478020244361
1.548,0.955199616651985,5901.953116524523
1.552,0.8734441114319249,5888.920857124812
1.556,0.8005909824879823,5894.229290012873
1.56,0.747958867492556,5897.750471316037
1.564,0.7226472797565987,5896.481027824019
1.568,0.7261387199710937,5894.618778439109
1.572,0.7537893449866843,5900.881645483175
1.576,0.7956023315207571,5898.8833070679175
1.58,0.8385560907965858,5904.331203565231
1.584,0.8700795453791496,5895.96146846014
1.588,0.8814867613122394,5900.1031077842
1.592,0.8699994630501413,5899.382218640748
1.596,0.8386260652896228,5895.7181209651935
1.6,0.7942089845712523,5895.149789965032
1.604,0.7447602013405324,5892.434485446775
1.608,0.6973564928582694,5897.253442840334
1.612,0.6573052201188303,5889.997429603797
1.616,0.6284065896682293,5898.584279836697
1.62,0.6135886258768631,5896.343521145282
1.624,0.6152949273819331,5891.998089567214
1.628,0.6354155220994845,5906.632029335786
1.632,0.6748108739834177,5902.480412399978
1.636,0.7326020792873654,5901.185674679247
1.64,0.8055762143675026,5898.701665691898
1.644,0.8881514415950085,5894.432406642759
1.648,0.9731133119849412,5894.422060755328
1.652,1.0528559606051802,5904.707213601659
1.656,1.1205180814582911,5900.301465736522
1.66,1.170524852413391,5907.516522390314
1.664,1.1986055254200234,5900.634956903449
1.668,1.2018672826381165,5906.965030741313
1.672,1.1794360000091213,5895.984409607732
1.676,1.1335548755773766,5892.846083612818
1.68,1.0704432926972918,5890.429979516927
1.684,1.0001531320802228,5894.373021521276
1.688,0.9351140753835612,5907.485965528404
1.692,0.8876867614296262,5894.561193607317
1.696,0.8674775713785071,5896.727521197193
1.7,0.8792460909044472,5902.033227826974
1.704,0.9220195082156704,5905.197086253655
1.708,0.9896333637255997,5905.955154402815
1.712,1.0724268777882242,5898.833976936576
1.716,1.1594107719211884,5902.5434019370105
1.72,1.2401394687065324,5890.31954571469
1.724,1.3058156822444538,5902.740490100311
1.728,1.349647948387399,5892.629550886887
1.732,1.3669039130744194,5903.790343401223
1.736,1.355204771259007,5905.899175089607
1.74,1.3152623908173653,5904.689533132184
1.744,1.2516605739485536,5901.142703638269
1.748,1.1729033855027038,5898.878401104495
1.752,1.090171623982111,5901.751734122241
1.756,1.0149385786784195,5898.917053003426
1.76,0.9562748515199292,5904.0501412127005
1.764,0.9188446155165136,5903.116667013454
1.768,0.9022158007698259,5905.751970776144
1.772,0.9015072352376658,5902.183539032909
1.776,0.9089718393153376,5894.771804027305
1.78,0.9160225427520516,5905.5180570566345
1.784,0.91529156230336,5904.042973556422
1.788,0.9023625355658753,5897.635597587979
1.792,0.8768276002505041,5903.746034941069
1.796,0.8424047142021316,5907.175203542714
1.8,0.8060062894081913,5899.246651321558
1.804,0.7758497430882779,5903.223129504411
1.808,0.759004814498433,5894.912807359353
1.812,0.7591628605481712,5893.92470284862
1.816,0.7755748016735974,5898.214589204722
1.82,0.8036643923091985,5894.027977206061
1.824,0.8369366978174317,5903.134169825308
1.828,0.8691802088085425,5905.198196384031
1.832,0.8960809847326385,5904.06739768293
1.836,0.9159341035134669,5901.95356132785
1.84,0.9295464479620681,5898.957589945989
1.844,0.9394800294945744,5902.791750206575
1.848,0.9487701327284829,5903.266639278417
1.852,0.9594458681606591,5895.878448189127
