时间(s),电压(V),幅值(高频80K)
0.0,1.298854902454424,5900.560227096625
0.004,1.1986406670596266,5902.170928651087
0.008,1.1070546717641074,5900.97903793406
0.012,1.0321193615084219,5900.532566879714
0.016,0.9792016885572518,5909.637190187144
0.02,0.9502711464520702,5899.54507790641
0.024,0.9438047553085173,5905.598837596584
0.028,0.9552262178863246,5893.003394522865
0.032,0.9776730743448128,5896.533574658189
0.036,1.0030085600378116,5893.460172859557
0.04,1.0231217404204007,5904.013672698462
0.044,1.0314425135015441,5903.749043226297
0.048,1.0242865188486374,5896.704409735478
0.052,1.0015003481708893,5910.417451534027
0.056,0.9661665943078853,5903.198821528069
0.06,0.9236403179849865,5902.177143475496
0.064,0.8804318181415046,5905.158202473665
0.068,0.8432339578437084,5900.893807479395
0.072,0.8180468471564095,5898.127019317061
0.076,0.8093029385629232,5895.187557657016
0.08,0.8191178127915516,5896.704748607415
0.084,0.8468943565599627,5898.655167625046
0.088,0.8893323922808982,5900.767384352145
0.092,0.9407379245403471,5912.0491170971145
0.096,0.9936389562841775,5897.454230131991
0.1,1.0398787241718381,5899.417534846001
0.104,1.0721996630493182,5905.132040334855
0.108,1.0859195150616223,5899.218504504694
0.112,1.0800896893884662,5904.899524995086
0.116,1.0577365243121295,5905.3622452893
0.12,1.0251753174364178,5898.773524091006
0.124,0.9906539926574605,5888.254889202575
0.128,0.9626655315520753,5896.208776145238
0.132,0.9482377054808736,5901.398769148316
0.136,0.9514679550053636,5901.600069175275
0.14,0.9726002879738335,5899.26902093476
0.144,1.0079587652778672,5893.257434226126
0.148,1.050866639104068,5894.366024704207
0.152,1.09329548549748,5900.542985839783
0.156,1.1276890499962702,5900.565374463641
0.16,1.1484289087989767,5897.295826249669
0.164,1.1526692338423923,5888.051923833803
0.168,1.1405113712185317,5892.44613602061
0.172,1.1146065829468326,5901.210302382877
0.176,1.0793446449750501,5898.29880096024
0.18,1.0398686224340465,5901.27096201433
0.184,1.0011988906724634,5897.365474383807
0.188,0.9676681213834725,5899.500317536733
0.192,0.9426584393895561,5899.797977214455
0.196,0.9284269582927548,5896.354181085021
0.2,0.9258183722298747,5899.436880447866
0.204,0.9339422324844948,5904.660922462839
0.208,0.9501589876149776,5901.430576497477
0.212,0.9706326598393806,5893.504485305351
0.216,0.9913239220953045,5905.689891822542
0.22,1.0090082138978618,5901.681652853898
0.224,1.021918521873824,5888.41733486288
0.228,1.029805045987201,5911.443022910633
0.232,1.033436106794653,5899.164894665048
0.236,1.0337983122356948,5898.834759781858
0.24,1.031395615595905,5897.996399683009
0.244,1.0259793102751804,5902.659995839164
0.248,1.0167845303298144,5892.926900058122
0.252,1.0030698162489673,5902.847197182862
0.256,0.9846384238103252,5906.663563047812
0.26,0.962114803409654,5896.821197509274
0.264,0.9369337099527946,5901.260212755777
0.268,0.9111147036031502,5895.895055552825
0.272,0.8869122973660033,5888.24490532792
0.276,0.8664285360406422,5906.286803803532
0.28,0.8512844109154364,5907.932121811482
0.284,0.8424237129342165,5892.787271686898
0.288,0.8400554063899416,5892.499652161255
0.292,0.8436993159821489,5907.517626310601
0.296,0.8523270266170923,5903.225056736702
0.3,0.8646084180550047,5899.161885989631
0.304,0.8792006641625407,5901.459633487557
0.308,0.8949209893775774,5902.921235267283
0.312,0.910676220352904,5905.57290681345
0.316,0.925204752934378,5895.641469315161
0.32,0.9368788671339942,5894.808995520832
0.324,0.9438326342873807,5905.877658727661
0.328,0.9444585246785794,5899.168715835457
0.332,0.9380218328345326,5905.182976618711
0.336,0.9250482619813375,5902.345474357657
0.34,0.9073277391338067,5892.396057384405
0.344,0.8876488789029049,5896.299951919905
0.348,0.8694753797136007,5896.88652714638
0.352,0.8566364080839738,5895.506744405264
0.356,0.8529066848991433,5901.0974760646
0.36,0.8613262715444278,5899.210078938951
0.364,0.8833084701071291,5899.803962660557
0.368,0.9178571127106865,5899.429935364708
0.372,0.9613493621514233,5899.287320289302
0.376,1.0081934239570542,5906.279004261523
0.38,1.052256598115831,5902.626197071045
0.384,1.0885087500473036,5903.722690624343
0.388,1.1141654396784024,5898.879189733629
0.392,1.128877414417252,5905.953210973996
0.396,1.1340216713639106,5909.507026039283
0.4,1.1315826741945854,5902.331634037959
0.404,1.1232321127767726,5896.641544554163
0.408,1.1099949632720982,5895.971925761977
0.412,1.092504806016118,5896.871973678877
0.416,1.07154380122752,5903.236891189716
0.42,1.0484848735505528,5896.120524957022
0.424,1.0253956036263951,5902.54173582221
0.428,1.0047848712007315,5897.476878003692
0.432,0.9891324257321353,5899.196165059261
0.436,0.9803975974348614,5900.479919973537
0.44,0.9796752369067223,5903.795710827235
0.444,0.9870610160851702,5897.261545029599
0.448,1.0016527068798575,5898.802912145676
0.452,1.0215827190134723,5899.838193151731
0.456,1.0441090397110457,5902.842048949391
0.46,1.0659239178946105,5903.2640435782505
0.464,1.0837741506601422,5892.351192812208
0.468,1.0952652372858862,5897.061809195292
0.472,1.0995412145465657,5898.929091071767
0.476,1.0975034870352474,5896.021349625688
0.48,1.0913815586986115,5899.077975297971
0.484,1.0837783025580223,5905.045028482559
0.488,1.0766097850117486,5895.107666275521
0.492,1.0704051337765705,5909.228141905819
0.496,1.0642164149082973,5898.839232691076
0.5,1.0561252425387324,5895.079292261507
0.504,1.0441512502499126,5896.246489018014
0.508,1.027243019120347,5899.6622943558805
0.512,1.0059754905791705,5897.559988715656
0.516,0.9826636239036104,5898.363699454657
0.52,0.9608299036646022,5907.456752004962
0.524,0.9442345266834826,5900.930476349916
0.528,0.9358676545837532,5896.023273434432
0.532,0.9373018047519717,5903.787037163036
0.536,0.9485671161568453,5891.67705119683
0.54,0.9683777245640661,5898.970592494939
0.544,0.9943806049229511,5906.010832718658
0.548,1.0232516755905503,5899.999647016224
0.552,1.0507410875588623,5904.644188984507
0.556,1.0719108989350616,5895.960451499269
0.56,1.0817671417983705,5897.266918142296
0.5640000000000001,1.0763350638172537,5898.588157527212
0.5680000000000001,1.0539693300752748,5903.648231639433
0.5720000000000001,1.0163941389164577,5898.741534197486
0.5760000000000001,0.9688792492209934,5895.355446593101
0.58,0.9192644895225917,5895.443505673718
0.584,0.8760805485906871,5899.320507411283
0.588,0.8464150072950296,5906.969150512334
0.592,0.8342541942423768,5893.754026229469
0.596,0.8398312982686534,5894.943343745063
0.6,0.8601151005795658,5898.150767709348
0.604,0.8901191667461715,5901.111028652466
0.608,0.9244364902635963,5892.327373401241
0.612,0.9584572258595877,5905.815113175428
0.616,0.9889984728798464,5896.517030520118
0.62,1.0143576880528535,5894.32782367624
0.624,1.0339891554220766,5898.656646959767
0.628,1.0480658136217864,5902.416998131644
0.632,1.0571207785562602,5903.432164203267
0.636,1.0618284547174728,5908.581537736717
0.64,1.0628964639506298,5902.202678580949
0.644,1.061033726542566,5899.056235956901
0.648,1.0569673195509155,5895.749918977683
0.652,1.0514579493027667,5901.253581718775
0.656,1.04527054962755,5899.6320799861005
0.66,1.0391266283829084,5897.800404928455
0.664,1.0337165326043865,5894.711472728629
0.668,1.0298088053887176,5904.950855445296
0.672,1.0283927583375545,5893.660720028664
0.676,1.0307077211198532,5898.02569010941
0.68,1.0380169498667646,5903.04985943173
0.684,1.0511065762240597,5898.600842060537
0.6880000000000001,1.0696768220499437,5895.1305215612365
0.6920000000000001,1.0919292574978197,5897.988546421661
0.6960000000000001,1.1146390337205299,5901.941310049276
0.7000000000000001,1.1338018009447193,5902.1007852320345
0.704,1.1456420758836268,5901.7915346248965
0.708,1.1475462973481083,5904.546232124854
0.712,1.1385157650483684,5896.77039102016
0.716,1.119042682361139,5899.706308833383
0.72,1.0906808158510193,5902.05851285959
0.724,1.0557031723461356,5903.976067949169
0.728,1.0170304715410403,5891.395518634685
0.732,0.9783063438086627,5896.332090143358
0.736,0.9438427733420462,5905.733024793618
0.74,0.9182043273282889,5901.886220677591
0.744,0.9053744599185882,5908.5691006317575
0.748,0.9077106072137823,5907.185400928871
0.752,0.9251292170317944,5898.421609574409
0.756,0.9549364665259096,5898.857827033102
0.76,0.9923740799767582,5897.155572966469
0.764,1.031570081936347,5895.592947371276
0.768,1.0665040548095386,5902.726021836447
0.772,1.0918109138036773,5903.016029791761
0.776,1.103476571621061,5903.412154270418
0.78,1.099502264866118,5903.22285716977
0.784,1.0804445804107525,5909.39759927142
0.788,1.049571125362349,5899.961885193542
0.792,1.0124048553550349,5898.159292259362
0.796,0.9756581356270807,5900.118701716457
0.8,0.9457886913903707,5906.568784096136
0.804,0.9275217087697131,5890.038462644204
0.808,0.9227269143471637,5903.654917493738
0.812,0.9300308858334677,5901.098578001133
0.8160000000000001,0.9453621842989259,5892.063880655005
0.8200000000000001,0.9632687223327434,5901.993600785213
0.8240000000000001,0.9785512491940835,5903.768767259481
0.8280000000000001,0.9876970060722264,5895.304296170928
0.8320000000000001,0.9896992322877584,5895.69673427281
0.836,0.9860216041968538,5898.150437904731
0.84,0.9797392588014087,5901.141451097801
0.844,0.974219189966492,5896.582981434684
0.848,0.971909381865978,5893.826327464769
0.852,0.9737414827532624,5905.643216033824
0.856,0.9793237674295193,5898.956187233003
0.86,0.9876463072063463,5891.4116398913175
0.864,0.9976873482939398,5900.017378356519
0.868,1.0083807639232574,5897.625114631657
0.872,1.0179511221626099,5898.3625507931365
0.876,1.0232964281868229,5900.590720143819
0.88,1.0202962294683473,5897.371583776336
0.884,1.0053630110811251,5903.021949906372
0.888,0.9776363283902286,5892.816316884215
0.892,0.9406378700862388,5896.541003612208
0.896,0.9023375922059468,5903.777924355532
0.9,0.8733175793194735,5897.316200777716
0.904,0.8636289783552007,5901.964864632331
0.908,0.879506175116394,5905.447332662375
0.912,0.921083429827201,5900.111182304948
0.916,0.9818237987819697,5899.576578876422
0.92,1.0498323874926663,5900.85518662628
0.924,1.1107339935740126,5895.312479917691
0.928,1.1513756156750288,5889.937862007138
0.932,1.1633336226052768,5902.351280875325
0.936,1.1451784086762937,5893.633143686005
0.94,1.1027668625980254,5907.101058927829
0.944,1.047457192948323,5896.186931051277
0.948,0.9928406682145163,5900.572191919618
0.952,0.9510660975837663,5900.837289510614
0.956,0.9299122708338234,5898.383307674802
0.96,0.9314141153790659,5902.868851069434
0.964,0.9522254183013609,5908.611105079929
0.968,0.9852969300845995,5894.206419477365
0.972,1.022107146142696,5896.523079818517
0.976,1.0546995836461925,5904.644582541313
0.98,1.0770917291764326,5908.298194119927
0.984,1.0859894869174216,5904.6002636411895
0.988,1.0809263504275504,5899.6581732969125
0.992,1.0639451041427161,5899.357021528365
0.996,1.0389140199375906,5901.420849732125
1.0,1.0105971925474193,5902.79364131312
1.004,0.9836321532323726,5895.728857624854
1.008,0.9615850517229142,5911.240770678301
1.012,0.9462867574984725,5905.659523183231
1.016,0.9376554268114432,5902.066657238251
1.02,0.9340849414459247,5895.644209229208
1.024,0.9332719381820536,5895.736211194207
1.028,0.9332156172619945,5900.249273064837
1.032,0.9330746049673304,5895.598298789137
1.036,0.9335518525380517,5902.187757418633
1.04,0.9365887437516808,5898.700184689738
1.044,0.9444706717298834,5894.177785507878
1.048,0.95878718561486,5892.494669617764
1.052,0.979735832397648,5898.494537598653
1.056,1.0059794723400672,5898.899673098802
1.06,1.0349524956772056,5903.187457966239
1.064,1.0634095563667056,5900.094076202918
1.068,1.0880768877304485,5898.032325942527
1.072,1.1063127718641528,5890.318646980343
1.076,1.116644085754734,5902.75991190499
1.08,1.1190053565436522,5908.8651985323095
1.084,1.1145657943287686,5897.046638164794
1.088,1.1052007833996282,5892.730514498214
1.092,1.092831443785341,5900.665871476202
1.096,1.0788701415917834,5901.6892942979775
1.1,1.0638886135422587,5902.732294134252
1.104,1.0475348981007464,5895.637856743535
1.108,1.0287201330934612,5896.773426321398
1.112,1.0060626383310163,5892.86877392824
1.116,0.9784672454328432,5897.125274443445
1.12,0.9456376750446283,5902.177610336011
1.124,0.9083434611873881,5899.528193999733
1.128,0.8683477707358954,5902.298188584394
1.132,0.8280106226658996,5899.037361890971
1.136,0.7897226670848155,5899.060563996761
1.14,0.755445798622367,5896.873544620159
1.144,0.726620170335377,5903.688416712139
1.148,0.7044971191118475,5902.77564785639
1.152,0.690674396002289,5909.994546335679
1.156,0.6874311797592948,5890.553747962419
1.16,0.6975297961695776,5897.645025505016
1.164,0.7234366913408546,5908.511865427116
1.168,0.7662218439193018,5909.499934806348
1.172,0.8245592770879628,5903.243501129711
1.176,0.8942491736224261,5898.007545807525
1.18,0.9685288246390673,5906.1099685133295
1.184,1.0391487824446566,5903.878696224471
1.188,1.0978935698091523,5897.196562072439
1.192,1.138114908608063,5907.283349389589
1.196,1.1559406326132504,5899.814689848024
1.2,1.1509622921375728,5903.505090836874
1.204,1.1262726300363297,5902.934944225461
1.208,1.0877899675589922,5898.13332459598
1.212,1.042996866219847,5896.5531666816505
1.216,0.9994641911153372,5900.63885248368
1.22,0.9635759627417856,5904.692063312166
1.224,0.9396524215188407,5898.620963427474
1.228,0.9294571472450595,5886.004372411962
1.232,0.9320885495401604,5895.8625222267565
1.236,0.944375819188241,5903.2963342416815
1.24,0.9618649777484611,5894.477730180281
1.244,0.9802102518986481,5907.766684607053
1.248,0.9964643800528905,5897.02138550658
1.252,1.0096984412320764,5905.581439291182
1.256,1.0207192541215486,5899.782122419882
1.26,1.0311733054556407,5896.14407429098
1.264,1.0426276700389903,5896.78065866515
1.268,1.0560795311302824,5896.13312332215
1.272,1.0719087257001068,5906.336360000624
1.276,1.0899339459659836,5901.009789703449
1.28,1.1092668499767417,5905.596317413165
1.284,1.1280255017175902,5905.646466466843
1.288,1.1432961232262784,5909.990851546113
1.292,1.151686625268555,5898.708342244767
1.296,1.1504240304763893,5898.435221833629
1.3,1.138542685757115,5899.779203646795
1.304,1.1175794497417504,5906.836210483815
1.308,1.0913755439718105,5896.657216143701
1.312,1.0649654715738541,5893.465302986592
1.316,1.042952026017763,5893.360010312684
1.32,1.028036846628951,5903.344252939755
1.324,1.020338203508265,5900.155322985188
1.328,1.017763153380927,5900.94321440444
1.332,1.0171866657091169,5900.757566701445
1.336,1.0158151642876128,5902.897431758567
1.34,1.012098800342658,5906.431619246115
1.344,1.0058938009020828,5894.012800230543
1.348,0.9980210135856428,5894.402263503881
1.352,0.9896482343208787,5900.5076469210135
1.356,0.9819095638770485,5896.610335043712
1.36,0.9758980613542265,5889.490989099987
1.364,0.9728267074075759,5892.567637472464
1.368,0.9740163723594398,5896.139140963664
1.372,0.980539990933311,5899.993851817118
1.376,0.9926571866961856,5899.094216318907
1.38,1.0093618557000488,5902.97232891598
1.384,1.0283375822818075,5901.493977814653
1.388,1.0464168551267885,5900.043343890957
1.392,1.0603694188167916,5899.197585804832
1.396,1.0676704048582997,5898.747050471177
1.4,1.06696644781458,5901.13151876943
1.404,1.0581929535789711,5897.814551814208
1.408,1.0424616726160407,5899.81535701812
1.412,1.0218226582894747,5896.687988247244
1.416,0.9989079887753535,5915.090633921348
1.42,0.976426826874079,5898.88502390332
1.424,0.9565478531172694,5896.379673133041
1.428,0.9403386956049569,5903.876759880208
1.432,0.9275481199857687,5902.805665294147
1.436,0.916979547722483,5899.277243486003
1.44,0.9074090010456686,5898.793233546427
1.444,0.8985721306867483,5896.071571719289
1.448,0.8915605879608082,5906.157393151616
1.452,0.8882909522288619,5905.144536672803
1.456,0.8903299341534984,5905.418578175793
1.46,0.8977783565366488,5895.951405924228
1.464,0.9088570943164466,5902.242367440035
1.468,0.920421546595896,5896.084401278928
1.472,0.9291408726700567,5897.921948324176
1.476,0.9327570623569745,5900.084755553532
1.48,0.930842274802329,5897.972511659734
1.484,0.9247963999926556,5901.705853537506
1.488,0.9172429779986577,5897.805751699438
1.492,0.9111953164434471,5903.885142693931
1.496,0.9092941376528565,5900.584179218862
1.5,0.9132377446285617,5897.8653863799045
1.504,0.9234245451641511,5904.256494141393
1.508,0.9388286952075738,5900.433553878896
1.512,0.9571466933999325,5898.1105687395975
1.516,0.9752248578529762,5898.386865020172
1.52,0.9897142316321167,5901.378339492536
1.524,0.9978304200297292,5894.476469622506
1.528,0.9980244022747615,5904.743737465325
1.532,0.9903255700526249,5903.0551638341685
1.536,0.9761902908645403,5899.553762227415
1.54,0.9579042046376366,5894.28935539923
1.544,0.93781102043778,5899.12204544038
1.548,0.9177083531586889,5902.446748990993
1.552,0.8986292823169868,5904.541697394116
1.556,0.8810185779715568,5897.460553309492
1.56,0.8651465087238032,5898.966938781538
1.564,0.8515548905560106,5896.622998155975
1.568,0.8413711632337461,5899.996474150489
1.572,0.8363674523071033,5903.234144350246
1.576,0.8386673163312951,5895.493858580186
1.58,0.8500990475489093,5904.31257570329
1.584,0.8713795564270447,5898.128356415154
1.588,0.9014507535659589,5902.064013230412
1.592,0.9372546110833672,5890.780292174071
1.596,0.9740673328448186,5902.829750319658
1.6,1.0063382011049085,5907.459686662808
1.604,1.0288276500910085,5887.894989244191
1.608,1.037708867397423,5900.432698333346
1.612,1.031279164282878,5904.724683089135
1.616,1.0101042824456534,5893.213121374705
1.62,0.9766862722904233,5893.02613345917
1.624,0.9349065141964957,5898.664220511735
1.628,0.8894789967404942,5900.586456991466
1.632,0.8455205033544547,5899.33147613781
1.636,0.8081964034695304,5900.26157452967
1.64,0.7823196759558828,5909.743393953494
1.644,0.7718113993908747,5898.346903757761
1.648,0.7790293569078589,5896.413083847693
1.652,0.8040825299238172,5909.840901173464
1.656,0.8443780518306659,5905.157493674751
1.66,0.8947336538687696,5903.5435140972695
1.664,0.9482600619888601,5900.985745574286
1.668,0.997863836495771,5902.315933145054
1.672,1.037916811595319,5902.177956766883
1.676,1.0655840932232645,5894.802778633106
1.68,1.081412478980305,5903.647269232222
1.684,1.0889590492125414,5900.474018423241
1.688,1.093516465720623,5912.419423217037
1.692,1.100316959595016,5904.3445583544135
1.696,1.112794989085758,5899.390322247928
1.7,1.1314546832320456,5899.058235277691
1.704,1.1536710468213975,5904.504282425959
1.708,1.1744500091719012,5905.2740846082
1.712,1.1878600520572569,5892.530471473692
1.716,1.1886383935932288,5901.389863926906
1.72,1.173486931872688,5903.465157079944
1.724,1.1417889476667382,5900.778286702169
1.728,1.0957322411393342,5896.520956452956
1.732,1.03997149850342,5900.555655166329
1.736,0.9809627432168809,5896.280966020193
1.74,0.9260243557464893,5892.000278225278
1.744,0.8821692572148405,5903.811968122992
1.748,0.8548788408251902,5894.073911858608
1.752,0.8471208652748807,5898.423412508217
1.756,0.8588805934919833,5898.301517398388
1.76,0.8872830853348915,5897.862196279162
1.764,0.9271948273326324,5900.768936551059
1.768,0.9721341011268221,5900.059470513578
1.772,1.0153716333053073,5895.635700077717
1.776,1.0511352242686403,5897.80879976691
1.78,1.0757462599146628,5908.027055167156
1.784,1.0883744531049409,5899.275333267243
1.788,1.091087672145013,5902.990155554008
1.792,1.088099536382388,5902.009267013485
1.796,1.084451188182224,5895.316284476944
1.8,1.0845751459256312,5904.671760155204
1.804,1.0911758991721394,5894.345824360502
1.808,1.1046952760265312,5901.902289807195
1.812,1.1234319205806116,5897.523096878033
1.816,1.144209245740385,5902.098678785138
1.82,1.1633284430089001,5893.9261403868095
1.824,1.1774380941332598,5900.318816273565
1.828,1.1840021281982243,5903.079914230531
1.832,1.1812885275816842,5894.729203004647
1.836,1.1681070477185147,5906.680338820609
1.84,1.1436849241017057,5903.158875661596
1.844,1.107943696392489,5905.478955028639
1.848,1.062089066046305,5905.314175021532
1.852,1.0091078619024123,5893.986374291712
1.856,0.953728002698037,5898.225797624274
