时间(s),电压(V),幅值(高频80K)
0.0,1.76024932664212,5892.003517860803
0.004,1.5698552414965787,5903.031955880829
0.008,1.3928246336687828,5906.068223779812
0.012,1.2424515496669084,5904.280983285049
0.016,1.129363924368429,5903.410029737668
0.02,1.060032571695769,5898.677323711449
0.024,1.0357285968925154,5900.222115481397
0.028,1.0523332215417316,5896.637049618069
0.032,1.1009979426166931,5898.761536717919
0.036,1.1695071894091529,5890.809377036958
0.04,1.2442964944005337,5900.984627135556
0.044,1.3129633043958313,5897.170079743805
0.048,1.3666579534524093,5901.443342885148
0.052,1.401458359735271,5905.4890487389
0.056,1.4182087464628015,5878.94698282803
0.06,1.4211545922507216,5900.553537065418
0.064,1.416254075717384,5909.271128891733
0.068,1.4097632199453423,5905.136708990815
0.072,1.4070059856835828,5897.844380106523
0.076,1.4110878296492864,5894.292634930267
0.08,1.4219054005979024,5898.0496114278285
0.084,1.4362827183167424,5907.799824986212
0.088,1.4495881032769926,5909.095887423793
0.092,1.4580574417358811,5895.125180275039
0.096,1.4604080647795175,5901.4495359181865
0.1,1.4578387776557475,5901.396995857701
0.104,1.4526472082672859,5903.821083946819
0.108,1.4464404855653787,5897.612306168292
0.112,1.4388917843880067,5899.284405390554
0.116,1.4275662042457127,5898.637248208299
0.12,1.4088456348732,5897.089280783871
0.124,1.379468541643439,5893.96248529842
0.128,1.3378724629070633,5897.1456099222
0.132,1.284748677625001,5899.096638060895
0.136,1.2228576095134414,5902.397534492865
0.14,1.1565697739365575,5904.703830095856
0.144,1.091468930435005,5898.238829561387
0.148,1.033999407701883,5910.527259747486
0.152,0.990967114930418,5901.958861621989
0.156,0.9687932868420637,5901.656942374993
0.16,0.9726103894587393,5896.437469360772
0.164,1.0053634838679053,5896.225814083438
0.168,1.0669706754465214,5899.670254769161
0.172,1.1535281892891045,5907.034235715998
0.176,1.2567421618626262,5892.652928666581
0.18,1.3640662902903415,5904.578798342246
0.184,1.460064667511483,5894.110929437827
0.188,1.5291676129321559,5893.762200876236
0.192,1.5593563290467003,5904.412161236071
0.196,1.5456600562689273,5905.688870778441
0.2,1.4920859260561035,5911.26806866652
0.204,1.4110230626495421,5894.370588940742
0.208,1.3201040302953329,5902.186503438479
0.212,1.2374915848468806,5901.683434664784
0.216,1.1771982107992343,5908.704485286779
0.22,1.146102502569058,5898.141034545012
0.224,1.1436403457632163,5900.670848055836
0.228,1.163889748468083,5899.680783173731
0.232,1.1986658348420542,5896.389013543071
0.236,1.240078642463336,5897.039861022374
0.24,1.2817722046537048,5904.067922237565
0.244,1.3190109283767582,5897.320155077281
0.248,1.3482820415482148,5903.01969932588
0.252,1.3670533835584084,5899.823918657984
0.256,1.3739575734248106,5902.998987247018
0.26,1.3692342001860467,5897.48124683742
0.264,1.3550503847420268,5903.121390259696
0.268,1.335467065302587,5890.260153974959
0.272,1.3161047456814399,5900.832285411476
0.276,1.303624830819227,5907.626048591842
0.28,1.304912788134531,5892.925472407497
0.284,1.3256935582751057,5894.730514100718
0.288,1.3686144614713502,5906.797090788337
0.292,1.4314803249907915,5891.460952518586
0.296,1.5067175149376097,5900.466646638574
0.3,1.5827690897497078,5904.157232781592
0.304,1.6471226832498242,5894.232677849679
0.308,1.6897617251260124,5907.894125065331
0.312,1.7056344188097494,5897.705834881306
0.316,1.6953052690680142,5908.914672072488
0.32,1.6638775927477767,5902.168659457309
0.324,1.6189862920555675,5903.953150381193
0.328,1.56877342618677,5894.892241732223
0.332,1.5203803354795649,5908.388834241177
0.336,1.47907693868735,5902.962147190887
0.34,1.4479994992023772,5889.7490376241885
0.344,1.4284715589317305,5907.494463504017
0.348,1.4207439674814404,5898.606144828745
0.352,1.424692197508014,5900.3460869646615
0.356,1.4399503817046575,5896.666690522447
0.36,1.465401006605039,5886.759656329132
0.364,1.498526342626836,5904.669145540933
0.368,1.535285342921481,5906.192330029316
0.372,1.5707618048827592,5895.963812411725
0.376,1.6002430171119206,5903.66979551334
0.38,1.6201554522820754,5899.6129466794655
0.384,1.628518634763257,5897.504622930959
0.388,1.624933071599418,5898.279940680066
0.392,1.610252774393585,5902.891342795228
0.396,1.5860505193851877,5902.676573128304
0.4,1.5540155723731555,5902.845361813952
0.404,1.5155496389635181,5901.019564338442
0.408,1.4718031708511763,5897.644619733914
0.412,1.4241319888860122,5895.199558720322
0.416,1.374687568555546,5898.67529923248
0.42,1.3267952064384836,5905.70981536983
0.424,1.284873162662048,5904.250591339772
0.428,1.2537905115092953,5894.313299815521
0.432,1.2377442106477792,5903.17652145117
0.436,1.238936164870399,5895.467078696429
0.44,1.2564738226943284,5890.436573783166
0.444,1.2859583519550584,5901.64500537428
0.448,1.3200907090513883,5904.7399187883175
0.452,1.3502542687649282,5899.077876400486
0.456,1.3685913508582788,5902.85540196516
0.46,1.3698820030533738,5895.234154492416
0.464,1.3526522185985017,5898.506703454664
0.468,1.3192659456966802,5898.781439807195
0.472,1.275122801357269,5903.552661789022
0.476,1.2273032717228816,5904.603951661126
0.48,1.1829995102367818,5895.442435280485
0.484,1.1480161304149468,5902.121272954391
0.488,1.1256756168655597,5894.020934508465
0.492,1.1164841529318428,5896.285052605555
0.496,1.11874143299247,5893.593783042273
0.5,1.129950006730632,5894.045284774975
0.504,1.1484833039336577,5892.790886399048
0.508,1.1746727848613792,5902.872667858989
0.512,1.2106102144421989,5906.435800832916
0.516,1.2586212796405718,5895.507610311175
0.52,1.3191073892575027,5900.378833063552
0.524,1.388769545010101,5898.251455911049
0.528,1.4600549247845658,5907.647695965549
0.532,1.5222328761405497,5904.975117719909
0.536,1.5639754349489048,5903.671797915832
0.54,1.5767420280913067,5906.184463247113
0.544,1.5577945498078956,5897.1724393390905
0.548,1.511595552834892,5900.331410935836
0.552,1.4488980376121992,5897.745520090646
0.556,1.3838472775308366,5895.425934623655
0.56,1.3302438570073336,5905.143606296582
0.5640000000000001,1.2982109347408581,5905.841561929724
0.5680000000000001,1.2920449032026615,5901.874827492667
0.5720000000000001,1.3095984153496758,5909.302740824377
0.5760000000000001,1.3432920104949344,5901.840584421468
0.58,1.3824815955456289,5896.044026443415
0.584,1.4164215333509156,5906.997275788719
0.588,1.4368516418629185,5904.281607587989
0.592,1.4395081523742923,5903.585246938346
0.596,1.424396645485602,5887.125292044859
0.6,1.395126697971144,5902.606541996122
0.604,1.3577637429040306,5897.7320128227575
0.608,1.3194845021462829,5893.759545471055
0.612,1.2870881371831377,5899.496432976742
0.616,1.265438445203818,5900.058898955749
0.62,1.2562108748294498,5904.612639349705
0.624,1.2575613130520333,5900.137906272066
0.628,1.2651302922760637,5900.040834138417
0.632,1.2740898894782726,5905.428924603091
0.636,1.2812345478357823,5903.673217303609
0.64,1.2860802015943242,5898.700331520323
0.644,1.2906293409650467,5903.756754916472
0.648,1.2982424098201606,5903.022256603607
0.652,1.3123433762337746,5896.568497318572
0.656,1.3354555875558605,5903.571660683305
0.66,1.3686293278093915,5911.041369901862
0.664,1.411025818524012,5901.821732593842
0.668,1.4594790249972092,5895.0370173959545
0.672,1.508190835434041,5892.594846270612
0.676,1.5489908682737974,5907.554395433145
0.68,1.5725340018599299,5899.311001021344
0.684,1.5704170180982626,5888.828411823522
0.6880000000000001,1.5376815507285073,5895.1993985468325
0.6920000000000001,1.4748160758368094,5898.873449286832
0.6960000000000001,1.3883999002641838,5893.13687520765
0.7000000000000001,1.2899944774012908,5902.925264620216
0.704,1.1936060916570437,5901.403627903976
0.708,1.112649153230508,5902.722503123387
0.712,1.0574276369178772,5901.8538732709485
0.716,1.0336516908496731,5895.446039127341
0.72,1.0418853132626633,5890.927445891006
0.724,1.0776578326638233,5902.587728262261
0.728,1.1322739214526343,5894.960230796776
0.732,1.194565821164735,5897.932191809174
0.736,1.25353178687701,5893.720134916822
0.74,1.3011818325126445,5887.9649325402725
0.744,1.3344980530309072,5898.59997524598
0.748,1.3555934066727138,5899.30894969923
0.752,1.369894798667366,5904.121953813575
0.756,1.3830844719772495,5897.841945055939
0.76,1.3981007568485484,5904.694269280163
0.764,1.413459720543152,5902.376296341124
0.768,1.4235900891871385,5899.1554948791
0.772,1.4210232659479147,5897.711777605355
0.776,1.3994756329722173,5905.780883265636
0.78,1.3565018437852265,5893.981037505688
0.784,1.2947026017533931,5899.989524587444
0.788,1.2212039135904242,5899.572673168295
0.792,1.1458530432334648,5890.521689111887
0.796,1.0790300497138583,5886.980962447972
0.8,1.0299724452004173,5903.452026660837
0.804,1.0059749957342403,5898.923376658842
0.808,1.0120993102437892,5898.184928775412
0.812,1.0507243655957967,5906.7180511943725
0.8160000000000001,1.120638649247793,5900.663486447369
0.8200000000000001,1.2160682867128603,5896.376134453622
0.8240000000000001,1.3264925521174344,5893.029107562095
0.8280000000000001,1.4379762370800329,5901.075194078243
0.8320000000000001,1.5360737166735448,5900.594801511163
0.836,1.6094889652322364,5904.786640469613
0.84,1.653121646359408,5904.740417483527
0.844,1.669238151736223,5900.4296888713725
0.848,1.6662336572308032,5904.717982688868
0.852,1.6554489087319952,5901.147174777593
0.856,1.647320367740363,5895.745399228175
0.86,1.6483689209689767,5902.281725130207
0.864,1.660024380395691,5895.51467392139
0.868,1.6793303919557732,5901.791358892797
0.872,1.7007828837734544,5901.058844252176
0.876,1.718372592789991,5898.07235084525
0.88,1.7272024767683636,5896.292611946575
0.884,1.7243896762414486,5895.778630682454
0.888,1.7091910998399107,5904.261578775056
0.892,1.6825418893477513,5898.3209664191045
0.896,1.6464050928423213,5905.004654967404
0.9,1.6032784754350184,5901.046761287726
0.904,1.555914613789207,5901.506479918164
0.908,1.5070845686488403,5902.132071488601
0.912,1.4592739701000885,5899.314352065064
0.916,1.414430440035429,5894.973309439757
0.92,1.3739785288037616,5902.24522994006
0.924,1.3391282302275724,5896.840515775916
0.928,1.31119143170415,5902.526608986961
0.932,1.2915114012909612,5897.537981978396
0.936,1.2808424723838017,5897.155821758349
0.94,1.2784286240156815,5899.352606567858
0.944,1.2813632753100486,5890.00644098014
0.948,1.2848533333284846,5901.954649799534
0.952,1.2836212629857238,5902.613063193003
0.956,1.2739839039846952,5898.311442310855
0.96,1.2556114436343055,5904.826065521943
0.964,1.2320420149702291,5890.218560255025
0.968,1.2096830143621589,5909.441900811221
0.972,1.1958001580953423,5896.100475253795
0.976,1.1963991614171616,5895.798583953901
0.98,1.2147782906215947,5900.469335452201
0.984,1.251044428814061,5900.523394949228
0.988,1.3023778260524617,5899.7697374903455
0.992,1.3635898559328958,5901.705984892628
0.996,1.427654992203138,5893.96608998146
1.0,1.4862880422356546,5891.123173133689
1.004,1.530921075001979,5894.030121904537
1.008,1.5542703993248455,5892.984157991157
1.012,1.5521717397052293,5897.824776331265
1.016,1.525019835891383,5895.3690883615145
1.02,1.4782697465872217,5903.708346536237
1.024,1.4217676546841889,5891.008819723694
1.028,1.3678755006482917,5902.338738021982
1.032,1.32855747548034,5895.2288004554575
1.036,1.312006553643708,5907.239845734724
1.04,1.319866523129732,5902.033316742412
1.044,1.3462622182301762,5901.924898859119
1.048,1.3793725357547841,5905.407201784089
1.052,1.405221606604161,5909.627623030115
1.056,1.4122463543867871,5893.104091965256
1.06,1.3947445923267512,5896.873270695296
1.064,1.3539179956337293,5905.103593006305
1.068,1.296538721563065,5896.378763940167
1.072,1.2323280151131601,5900.575848857208
1.076,1.1712911759990214,5894.8749126481325
1.08,1.1217665814174207,5900.913769492482
1.084,1.089437618805209,5903.384564603625
1.088,1.077237215669596,5899.101571119433
1.092,1.0858247972741617,5903.098466003382
1.096,1.1141387951906658,5901.468007324185
1.1,1.1595876889492511,5900.670938635947
1.104,1.2177713290457879,5892.596074668823
1.108,1.2820150810478395,5901.954482633593
1.112,1.343223067018222,5899.149702361975
1.116,1.3905290709853402,5899.367962645759
1.12,1.4129287127645573,5903.079831719467
1.124,1.4015996813436211,5899.871290386563
1.128,1.3522506503308502,5894.527578131927
1.132,1.2668105961821972,5900.857458066683
1.136,1.1539403233444092,5896.447675563001
1.14,1.0280272520604319,5902.5600598732335
1.144,0.9066491998523412,5906.311664066985
1.148,0.8070707897583403,5908.391015332364
1.152,0.742802699109258,5909.3250638962
1.156,0.7211657361269358,5905.268586348905
1.16,0.7422713935883283,5897.327163628412
1.164,0.7993832359544957,5904.421932929966
1.168,0.8805324743283358,5898.421915092195
1.172,0.9712699065439956,5892.83776566308
1.176,1.0581440265878839,5898.931586114819
1.18,1.1319297567623208,5897.885087934304
1.184,1.1893380487082912,5898.257479182629
1.188,1.2324044047833504,5903.937597014995
1.192,1.2658436944952274,5889.261702983804
1.196,1.293695619992836,5902.399382151544
1.2,1.3169316464807885,5902.365097025682
1.204,1.3331330604675686,5909.2958570765895
1.208,1.3381597590316008,5899.644055860597
1.212,1.3286132212777035,5899.228788776044
1.216,1.3036066811554705,5901.003963065077
1.22,1.265069737981616,5899.495708182346
1.224,1.2169310801859605,5906.256606787739
1.228,1.164159072060806,5912.573607386651
1.232,1.112345304521564,5897.840811363842
1.236,1.0676626158736449,5901.944106522911
1.24,1.0365094456041664,5900.285252341251
1.244,1.0244468347520124,5895.29988519382
1.248,1.0346987823706193,5903.811543650637
1.252,1.0668126779530962,5910.056439144112
1.256,1.1159530958250405,5904.380574829532
1.26,1.1730985871197872,5904.670602706637
1.264,1.2262978842731618,5893.282303834714
1.268,1.2629383283483593,5911.9618679359055
1.272,1.2725912924688974,5901.0813262594975
1.276,1.2496679863688698,5901.924315298589
1.28,1.195129234426293,5898.709765594267
1.284,1.116802487391823,5906.006661311335
1.288,1.0281858015610752,5903.473306537432
1.292,0.9458557108991698,5904.12629429299
1.296,0.8859144604131871,5903.100938614038
1.3,0.8603401825839957,5903.510735647589
1.304,0.8742947603527957,5899.684340927866
1.308,0.9251242243329644,5906.180302933117
1.312,1.0031737749205596,5902.657518690533
1.316,1.094049861840499,5900.450359822335
1.32,1.1817306421536513,5902.926864847402
1.324,1.2518203725437278,5900.5005360684745
1.328,1.2942012163010181,5899.612701616789
1.332,1.3045164448219615,5902.87624806586
1.336,1.2843794766337042,5907.332977345625
1.34,1.2405918172083135,5900.620933261373
1.344,1.1836376863937634,5898.833283921846
1.348,1.125563812760506,5896.67005942816
1.352,1.0775159701386876,5906.342990105755
1.356,1.0475773716142727,5912.329845076731
1.36,1.0395860336859255,5911.769620512214
1.364,1.0531466528261821,5907.567866750258
1.368,1.084546884377943,5899.975894500489
1.372,1.1281291024650153,5907.001007294825
1.376,1.1777724007771913,5904.9484855883065
1.38,1.228216148240488,5899.635278029153
1.384,1.2758735595840784,5898.34820319216
1.388,1.3187314789854145,5905.156649528401
1.392,1.3552687612170689,5906.073064856219
1.396,1.3829966588687546,5898.08940637525
1.4,1.3976219794656495,5901.764494568252
1.404,1.3935712558066728,5908.448617456087
1.408,1.3659389090304497,5906.786194260089
1.412,1.3132032792714774,5899.6472845345625
1.416,1.2395325834020594,5916.347079052636
1.42,1.1554829666139537,5901.45969740817
1.424,1.0765136609285841,5897.698580739403
1.428,1.0196633931454104,5904.682313587773
1.432,0.9994082140265534,5901.403501800456
1.436,1.0239070246995612,5908.298982569293
1.44,1.0926337251522311,5902.715803122781
1.444,1.1959912846903884,5906.974346292034
1.448,1.317025306425854,5904.312148781942
1.452,1.4348518104959933,5902.278610288669
1.456,1.5289720730560803,5895.572242142707
1.46,1.5834202287776233,5906.903519025331
1.464,1.5897733294824934,5899.943015578196
1.468,1.548404860429083,5906.37160822652
1.472,1.4678490443244914,5908.482328311743
1.476,1.3625885001301168,5911.107022971331
1.48,1.249845695724886,5905.856666359354
1.484,1.146080553155227,5896.923429675788
1.488,1.0639520404144502,5900.162407527739
1.492,1.0104075960886627,5903.768136563394
1.496,0.9862195349005555,5906.11953735379
1.5,0.9868069225848805,5899.28754655466
1.504,1.0038190868980423,5900.956260977189
1.508,1.0269111591546503,5906.508924319086
1.512,1.0454148879723582,5903.145613539409
1.516,1.0499415754629435,5908.262229625169
1.52,1.0340115478023688,5906.044367911381
1.524,0.995531231288243,5902.668453092213
1.528,0.9376464044498614,5904.269080120877
1.532,0.8685076658421296,5909.073526805435
1.536,0.799792726831374,5905.751559816101
1.54,0.7442073766804029,5906.751573859033
1.544,0.7124535608764153,5905.146080436885
1.548,0.7103327256391152,5913.808311070587
1.552,0.7368107416147751,5893.206833585461
1.556,0.7838556851222112,5896.958756596428
1.56,0.8384338055731516,5895.6460993504015
1.564,0.8862621026126112,5901.0009729512285
1.568,0.9161261833673192,5903.842277219476
1.572,0.9231813776610258,5907.323434528548
1.576,0.9099497841579285,5911.3313373338415
1.58,0.8847115956217889,5909.364978486681
1.584,0.8581624758125007,5899.2760183875735
1.588,0.8397798119818413,5904.352249924376
1.592,0.835019724852897,5898.522997833532
1.596,0.8438152704043498,5902.037961532436
1.6,0.8605194207445855,5897.624532691861
1.604,0.8753779603021135,5908.853970812029
1.608,0.8773868879735089,5911.966195155875
1.612,0.8579227266420595,5903.972697030516
1.616,0.81412636893197,5904.690550781913
1.62,0.7508711875476959,5909.963797623377
1.624,0.680362432543275,5910.656410352198
1.628,0.6191461816924323,5910.382389094885
1.632,0.583418279875712,5906.788514034794
1.636,0.5843744245724127,5914.498989062654
1.64,0.6252844655716985,5900.286693770234
1.644,0.7010571385136954,5904.409458790106
1.648,0.8000090625765357,5903.255988577224
1.652,0.9069882731851612,5902.531709185245
1.656,1.0069086593274066,5905.68919798046
1.66,1.0877973431473569,5906.766106360721
1.664,1.1425780074261271,5906.902606994674
1.668,1.1691951261527451,5905.141742868499
1.672,1.1693411918598695,5899.00020986606
1.676,1.1466410316163305,5905.387246285933
1.68,1.1052456951876883,5912.165196850734
1.684,1.0493098232896585,5901.983207946684
1.688,0.9831547778006475,5900.857916290951
1.692,0.9115554969989562,5903.462824989674
1.696,0.8397192531663847,5903.9547425977125
1.7,0.7729285844966243,5907.389269629563
1.704,0.7161052260328968,5901.27098494384
1.708,0.6735032535672839,5903.568692455466
1.712,0.6484913234422344,5900.975468055506
1.716,0.6432123998366521,5911.11777659612
1.72,0.6579745849375741,5901.803618605925
1.724,0.690518594280434,5913.461057126679
1.728,0.7356090566393368,5914.44912302967
1.732,0.7853836452860502,5910.787705053467
1.736,0.8305337933994728,5905.104625230218
1.74,0.8620350184026695,5912.163622451277
1.744,0.873035652648847,5902.833495321148
1.748,0.8605044833657863,5908.277593241934
1.752,0.8261522720248199,5904.208052890894
1.756,0.7761184885579288,5905.702838217174
1.76,0.7192272054592854,5909.07040702725
1.764,0.6642637543156451,5911.124913822131
1.768,0.6173349261198816,5902.174799970546
1.772,0.5804740818979867,5901.220727352999
1.776,0.5520441559749059,5904.967738532416
1.78,0.5285389354257214,5901.20885963716
1.784,0.506762966926402,5900.855181516583
1.788,0.48541299039975616,5907.423896655951
1.792,0.4655684611359884,5905.504116449065
1.796,0.4501534273764937,5910.423452117117
1.8,0.44279144222582284,5909.979023423259
1.804,0.44650962560139684,5906.271147972876
1.808,0.46257037522458366,5909.017837786937
1.812,0.4895909167796127,5904.845060410674
1.816,0.5231525435772932,5894.190727468636
1.82,0.5561591467072303,5901.128420454519
1.824,0.5801136780020306,5913.925875085148
1.828,0.5871946026333666,5913.579862348503
1.832,0.5726056229898744,5909.736610450398
1.836,0.5363430730882132,5911.43365025544
1.84,0.483550064895522,5901.028695374247
1.844,0.42311706584544473,5907.983550841395
1.848,0.3649214769007504,5917.525374546106
1.852,0.31669663099261336,5906.899039552024
1.856,0.28174373440973843,5910.848067769692
