时间(s),电压(V),幅值(高频80K)
0.0,1.4880116274984945,5905.788661769352
0.004,1.378244650887657,5901.981870151243
0.008,1.2807741552646221,5906.70350931748
0.012,1.2059992774967854,5902.587475479066
0.016,1.1595497576640825,5900.202140687549
0.02,1.14135526321187,5895.630786817661
0.024,1.1462997258514684,5905.4638520112085
0.028,1.166306413433652,5901.918338723705
0.032,1.1930366566190826,5900.951168690527
0.036,1.2201340913065595,5895.416698136978
0.04,1.244298310384496,5901.336541726925
0.044,1.2650620234889274,5894.8263193546045
0.048,1.2835698553763437,5911.853227746324
0.052,1.3008856783866898,5910.086563587606
0.056,1.3165128773955639,5895.520345556371
0.06,1.3278278214271022,5902.642918178975
0.064,1.330808173259132,5895.695186838493
0.068,1.3218111667962917,5898.86661174185
0.072,1.2995834710051555,5903.680038237659
0.076,1.2665576501372322,5897.949434340495
0.08,1.2288576383850127,5899.752004207962
0.084,1.1949898144890947,5890.306009500645
0.088,1.1736301818219708,5905.680567281286
0.092,1.1711601400967564,5905.349988705069
0.096,1.189696839148884,5891.468535768686
0.1,1.226291082804956,5899.42824925456
0.104,1.2736476571585003,5902.92560704332
0.108,1.3221674462562398,5887.420437234445
0.112,1.3625664444858927,5904.139460021069
0.116,1.388156568852863,5899.060780537966
0.12,1.3961649158290834,5900.986023937918
0.124,1.3879240354432745,5898.965130226877
0.128,1.368064863358415,5900.336607451212
0.132,1.3429728022605552,5903.952315713365
0.136,1.3188962364081107,5901.524280486013
0.14,1.3002394828545363,5907.827690817917
0.144,1.2885589603746348,5901.663691917871
0.148,1.28254373124999,5901.55454993944
0.152,1.2789248382633915,5908.634682609826
0.156,1.2739579581094145,5893.95138751996
0.16,1.2649403007861035,5898.311346507634
0.164,1.2512337103446776,5907.631629947636
0.168,1.234488034201991,5902.665913453007
0.172,1.218079683782821,5902.4024959610415
0.176,1.2060354985215418,5892.450588063858
0.18,1.2018142175896729,5900.164265231324
0.184,1.2072999428301652,5901.396275699473
0.188,1.2222845729730425,5900.900440275058
0.192,1.244579113738558,5907.266394258493
0.196,1.2706984778909927,5900.807297983285
0.2,1.2968815914559124,5898.417195989304
0.204,1.3201030009741466,5896.707445274351
0.208,1.3387162848590834,5898.109316360917
0.212,1.3524806762611812,5905.705491880345
0.216,1.3619971335918926,5894.858004350545
0.22,1.36790064813533,5904.878323647549
0.224,1.3702770603329626,5906.7721532719215
0.228,1.3685828114173966,5900.852598829578
0.232,1.3620142110492677,5898.9335752159695
0.236,1.3500756153939126,5893.282701395629
0.24,1.333111496815542,5896.254706857263
0.244,1.3126291510714196,5902.10244538412
0.248,1.2912352860155236,5896.4695214498615
0.252,1.2720678888998058,5888.778490102714
0.256,1.257843586238255,5904.58638544209
0.26,1.2499233215018881,5893.449751637108
0.264,1.2478749268278755,5899.615409777259
0.268,1.2497774162596276,5901.421972256758
0.272,1.2531072700429389,5900.269721478922
0.276,1.2557644556649619,5898.415436450336
0.28,1.2568155464692305,5905.964738386165
0.284,1.2567363406638588,5902.066106510174
0.288,1.257123908686209,5899.517921356592
0.292,1.2600012320401917,5897.702293227464
0.296,1.2670099406351054,5893.806510323041
0.3,1.2788718505356305,5894.555410829436
0.304,1.2953388595626638,5899.6441798112855
0.308,1.3155106182572178,5902.948596541765
0.312,1.3381696402224288,5907.058985669949
0.316,1.3618619572522421,5903.186446320361
0.32,1.3847455159676954,5893.133504474024
0.324,1.40448582112364,5897.466761213463
0.328,1.4185001276500662,5891.717183717508
0.332,1.4246063920028582,5897.242460638108
0.336,1.4218050622065184,5898.661769828528
0.34,1.4107865243873425,5897.081618569643
0.344,1.3939017840605032,5900.99390120935
0.348,1.3745937820611132,5906.51664336156
0.352,1.3564844485598024,5903.199189160592
0.356,1.3424091543549834,5903.419978957613
0.36,1.3337035698543975,5901.119351476882
0.364,1.3299829843327207,5900.158929364141
0.368,1.3295186161186412,5900.051158619406
0.372,1.3301117187385887,5901.49076197709
0.376,1.3301167285940763,5888.20507121061
0.38,1.3291090510486792,5905.851141337541
0.384,1.3278241506435264,5905.0394409591845
0.388,1.327392971629171,5891.646194270246
0.392,1.3282833828724212,5895.641252439762
0.396,1.3294875597965419,5905.787886265665
0.4,1.3283658904471018,5902.597499619064
0.404,1.3212819594790648,5900.538984067895
0.408,1.30484807235371,5899.23045396964
0.412,1.2773500041568417,5902.67312770306
0.416,1.2398252050052712,5900.354210874552
0.42,1.1963727097082812,5894.615093152444
0.424,1.1535294346824678,5905.103070241879
0.428,1.118838648010151,5899.806197946963
0.432,1.0989735692175997,5898.444569622191
0.436,1.0979344119382306,5911.301565479801
0.44,1.115869164103897,5897.919896772984
0.444,1.1489223871302765,5903.785048376367
0.448,1.1901962863422708,5891.115686753123
0.452,1.2315151670499147,5899.265452865582
0.456,1.2654137766956897,5906.383028414799
0.46,1.2867905169853362,5894.359652997227
0.464,1.2939173677777664,5903.26398094754
0.468,1.2887142439036336,5896.995948134878
0.472,1.2762260375171586,5907.948676220623
0.476,1.2632512378633036,5902.1868656248125
0.48,1.2563017894652084,5895.166350547776
0.484,1.2594681646102943,5905.591889561269
0.488,1.2730033329694461,5896.415822764214
0.492,1.2932854158601743,5901.679178458856
0.496,1.3142751254143057,5900.603359059507
0.5,1.3298764868273198,5900.885305844967
0.504,1.336143497952526,5899.040148036145
0.508,1.332407564572175,5892.735579653207
0.512,1.3210663294301774,5908.663651768202
0.516,1.306459058212571,5897.46694284534
0.52,1.293475831289721,5902.0779885486645
0.524,1.2863057576554005,5903.041163079536
0.528,1.2874020853233172,5907.178487979846
0.532,1.296678654786263,5900.764442228076
0.536,1.3111709317914633,5898.656950948391
0.54,1.3255519008252987,5899.092212319549
0.544,1.3336320080993347,5893.433989714124
0.548,1.3303855734694074,5896.540867973015
0.552,1.3136346819341609,5908.215342057606
0.556,1.284663374516195,5895.794692516243
0.56,1.247628379884322,5901.62859532798
0.5640000000000001,1.2082444303822668,5898.2017061000215
0.5680000000000001,1.1724521118549582,5906.265382654534
0.5720000000000001,1.1455218135445524,5898.48479523796
0.5760000000000001,1.1315725657545568,5906.709831490115
0.58,1.133204008261013,5896.204833194267
0.584,1.1510314644380273,5898.420681486531
0.588,1.1831971496461693,5909.891037226511
0.592,1.2251406747898679,5894.394423405151
0.596,1.2699510374373941,5906.734482575637
0.6,1.3094954584244813,5897.134962616111
0.604,1.3362214534878942,5897.135446904278
0.608,1.3451423545636425,5905.294282095245
0.612,1.3353007283125888,5893.175514102466
0.616,1.3101508544931264,5892.402990743682
0.62,1.2766885078573413,5899.310687909341
0.624,1.2435348257396652,5892.302397882439
0.628,1.218488919721235,5900.234627967841
0.632,1.2063077506082593,5901.071593532452
0.636,1.2074797368478456,5893.311139662533
0.64,1.2183807045791515,5902.107484604381
0.644,1.2326260447620498,5893.469621825134
0.648,1.243041573887896,5902.517083682025
0.652,1.243649877368707,5883.52413272218
0.656,1.231273169995531,5897.340143606123
0.66,1.2065410562514318,5900.641685365958
0.664,1.1741508277121717,5901.584424510328
0.668,1.1422314491496408,5907.566384104527
0.672,1.1207486682521888,5909.413748871878
0.676,1.1191322247253932,5902.654343148788
0.68,1.143639671758332,5899.917602123497
0.684,1.1952076560112967,5896.710309654756
0.6880000000000001,1.2685081061429195,5896.974076031766
0.6920000000000001,1.3526040522986107,5903.528525448086
0.6960000000000001,1.4331263070716886,5897.967204224087
0.7000000000000001,1.4954409927088164,5892.457852098138
0.704,1.5279768530750992,5898.403561380314
0.708,1.5248388414166862,5896.067777870125
0.712,1.487089957988992,5908.925439652373
0.716,1.4224946966981205,5897.355066188882
0.72,1.3438639993890287,5899.543821068668
0.724,1.2663648923759714,5898.294712547933
0.728,1.2043437924582967,5903.36707268294
0.732,1.1683613887612663,5899.526351353291
0.736,1.1631346595599872,5903.364828202483
0.74,1.186869320674656,5900.960132332949
0.744,1.2321029461409123,5897.864046092039
0.748,1.287776828682056,5904.097658514489
0.752,1.341930430359273,5898.858296479489
0.756,1.3842734411068536,5890.427657080277
0.76,1.4080107737598095,5897.791095341334
0.764,1.4106246196053491,5892.060766900897
0.768,1.3936386057691554,5891.724736496744
0.772,1.361553736058544,5898.754322901254
0.776,1.3202687737254528,5898.538719951538
0.78,1.2754808180585766,5903.59058664786
0.784,1.2316215104525037,5906.299956779886
0.788,1.191628209188589,5892.865428346912
0.792,1.1574140759093567,5894.791384218123
0.796,1.1305878558450622,5888.303952677892
0.8,1.112919276979456,5894.987398298158
0.804,1.1062109960914532,5911.264870366695
0.808,1.1115630952535773,5899.368543620766
0.812,1.128402942770884,5897.65980507076
0.8160000000000001,1.1538995844633253,5894.130146186488
0.8200000000000001,1.1832949385614397,5913.285770962353
0.8240000000000001,1.211248817685217,5902.812978226586
0.8280000000000001,1.2337109020609234,5905.557874395385
0.8320000000000001,1.2494418877364784,5908.876585671414
0.836,1.2604105319669103,5897.713622227161
0.84,1.270865537240998,5895.650309715433
0.844,1.2855088417268492,5900.526139247356
0.848,1.3075080948510922,5901.938244858624
0.852,1.3370759573202406,5889.290310356769
0.856,1.371121829983917,5906.247062983936
0.86,1.4040556838993776,5902.016061300833
0.864,1.4293390633280034,5904.24778904539
0.868,1.4411539259162918,5902.273611868224
0.872,1.435695206202512,5899.423797273179
0.876,1.4118607360025677,5898.3582760330455
0.88,1.3713122110850071,5895.143070674764
0.884,1.3180275449962293,5899.593637617255
0.888,1.2575915273780023,5903.3215496466855
0.892,1.1964808552628903,5904.413483815856
0.896,1.1414200900564253,5901.911294118288
0.9,1.0986727539642172,5904.40963257283
0.904,1.0731525729916205,5895.933670690057
0.908,1.0675155631988429,5896.979296267087
0.912,1.081610458846237,5897.832610646083
0.916,1.112548605898642,5895.451531917332
0.92,1.1553195613207614,5899.332718562068
0.924,1.2036663095799836,5900.074158586375
0.928,1.250987585903232,5898.071407728808
0.932,1.2911876724806466,5897.1194373918215
0.936,1.3194413457192709,5895.739989468788
0.94,1.3327850428380141,5897.989295085182
0.944,1.3304287272443953,5906.9700004731385
0.948,1.3137607891746381,5900.376335105598
0.952,1.2861008154473066,5905.720714328638
0.956,1.2522742439709647,5905.411855309181
0.96,1.2180621846558566,5905.501386719392
0.964,1.1895474352792186,5897.983130354571
0.968,1.1723517575663829,5899.893754100541
0.972,1.1707751475619315,5903.325624843922
0.976,1.1869284185721,5901.662323359177
0.98,1.220076959743251,5896.755365157861
0.984,1.266498662713528,5901.415256288952
0.988,1.3200838548055527,5905.291029177937
0.992,1.3736545759019605,5902.618826928538
0.996,1.420667905300652,5890.528720475345
1.0,1.4567340962853157,5905.317889482101
1.004,1.4803705624093586,5902.65812857185
1.008,1.4927201269704975,5900.501775463077
1.012,1.4964601114769498,5898.273229756979
1.016,1.494493877059861,5901.9630604555605
1.02,1.4890009104710475,5904.829317849151
1.024,1.4810822393728922,5892.870857569355
1.028,1.4708811906791561,5910.32986363984
1.032,1.457920490012953,5904.232931580209
1.036,1.4414368781726008,5904.706837794803
1.04,1.4205956745381605,5897.725912975201
1.044,1.39461885028503,5904.179701062907
1.048,1.3629995002935182,5895.155747334268
1.052,1.3259109699699647,5899.652640825644
1.056,1.28462581192115,5903.960473705095
1.06,1.2415655278509523,5889.035537727117
1.064,1.1998129788495802,5897.169772840335
1.068,1.1623631450001162,5892.258890315415
1.072,1.1315950981022884,5907.684116049771
1.076,1.1092303679229985,5895.8682719177805
1.08,1.096643856803801,5901.046947789573
1.084,1.0951377429454863,5901.892225969354
1.088,1.1058152799963499,5895.10266094858
1.092,1.1289741275232852,5893.778757090131
1.096,1.163331666628705,5901.690431920832
1.1,1.2056293718352857,5898.100280149104
1.104,1.2510205945660942,5900.065248292098
1.108,1.2942080179067674,5896.401112020079
1.112,1.330889756597586,5910.208102622103
1.116,1.358942972562107,5900.507940355914
1.12,1.3789048711832481,5899.9796514869
1.124,1.3935357880561585,5896.787160373562
1.128,1.4064825209500866,5895.147251481272
1.132,1.4203694332106755,5903.073169626269
1.136,1.4350333448968986,5891.900964427711
1.14,1.4468178915192427,5895.994255060248
1.144,1.4495182338923733,5894.044074032438
1.148,1.4367639733228261,5896.143754972532
1.152,1.4048476518869122,5903.0273982657445
1.156,1.3547585660936998,5900.171174339246
1.16,1.2925726029379914,5907.866842636679
1.164,1.2280772334204348,5904.015339651776
1.168,1.1721485862217411,5901.738672583204
1.172,1.1337068708829647,5899.017616995775
1.176,1.1171345298287936,5898.4456040063615
1.18,1.1210022394405645,5900.941710150366
1.184,1.1386988778942724,5899.364775130292
1.188,1.160881816290265,5908.328250713819
1.192,1.1787826375992227,5897.147626025758
1.196,1.1869801469628585,5916.030647003473
1.2,1.1846218276845568,5901.31497021514
1.204,1.1748911619005415,5889.400160808679
1.208,1.1632416197774627,5900.76422145671
1.212,1.15527402641915,5899.160072681672
1.216,1.1550798811057372,5905.162101594294
1.22,1.164495084493769,5906.517006867558
1.224,1.1832290931947071,5898.37214800626
1.228,1.2095173840073437,5902.114424267155
1.232,1.240906034321763,5894.971478813932
1.236,1.274904732075722,5909.214420344097
1.24,1.3093516761595236,5905.065776177356
1.244,1.3423981347465277,5891.140161575457
1.248,1.3721512128706885,5904.794211444572
1.252,1.3962020645539277,5899.187379852559
1.256,1.4113771361610028,5901.500742380967
1.26,1.4140057312996188,5890.707947117682
1.264,1.4008023995470371,5904.735244206143
1.268,1.3701526901193348,5885.528817614102
1.272,1.3233014799088674,5893.3642212812165
1.276,1.2648856590352195,5898.483393965396
1.28,1.2024857984292705,5897.093692678473
1.284,1.1452272543866824,5904.353461515599
1.288,1.1017841318921318,5899.149111560678
1.292,1.0783864771462757,5904.380431628835
1.296,1.077501821733572,5900.552226390157
1.3,1.0976274956718104,5896.458442463306
1.304,1.1341594133801205,5902.18739810014
1.308,1.1808505541155414,5904.034517350415
1.312,1.231184047770155,5903.814149082392
1.316,1.2791762400943862,5902.139042105547
1.32,1.319576873698228,5912.190514156896
1.324,1.3478177668160705,5896.94907772723
1.328,1.3601190531296785,5905.4260150036325
1.332,1.3539340394182606,5896.483591776655
1.336,1.3286250354300053,5902.003051191123
1.34,1.2860787578464143,5904.178119909893
1.344,1.230929527794468,5901.534001453948
1.348,1.1701535575339639,5902.13172097253
1.352,1.1120079680293962,5907.237755100541
1.356,1.0645284108722788,5903.371898748135
1.36,1.0339464051005631,5901.5969331613705
1.364,1.0234065141799242,5901.339302410205
1.368,1.0323043433123096,5893.91535286199
1.372,1.0564408024037624,5899.6308636283575
1.376,1.0889795593603424,5898.670898877255
1.38,1.1219685832937438,5900.341417004616
1.384,1.1480555792761462,5894.697528013968
1.388,1.162019167578313,5901.479885928541
1.392,1.161788313488828,5894.166903755401
1.396,1.1486892449831603,5904.169610990412
1.4,1.1268074051856654,5901.4666400240285
1.404,1.1016582196794655,5897.944221884531
1.408,1.0786831425276453,5900.468319211453
1.412,1.0621212337741335,5901.222484548603
1.416,1.0544980790157457,5908.280278847758
1.42,1.0566273319965105,5895.369310223557
1.424,1.0678787328593422,5909.905584667738
1.428,1.0865011228002146,5902.718296263935
1.432,1.109909753478591,5908.525468629431
1.436,1.1349841240975214,5911.835142208992
1.44,1.1584615681697508,5899.866672773027
1.444,1.1774181750332542,5907.983265559592
1.448,1.1897377528393331,5906.625543772855
1.452,1.194492238660252,5898.985180459582
1.456,1.1922005830991167,5902.716554078009
1.46,1.1848648875014303,5910.142973235858
1.464,1.1755974972124512,5897.470031685833
1.468,1.1677666806386455,5902.5248122833045
1.472,1.163889907748415,5901.432009044647
1.476,1.1647449506435923,5904.010377916132
1.48,1.1691552090010755,5906.711813859207
1.484,1.1746122692824357,5901.773789438001
1.488,1.1784500629379533,5908.857644288898
1.492,1.178953742088779,5905.825806652374
1.496,1.1758324915826248,5906.276025677721
1.5,1.169896283571678,5909.56262975957
1.504,1.1622640493208485,5911.389212097332
1.508,1.153679326830131,5901.516024415496
1.512,1.1443709822685948,5901.189830320604
1.516,1.1344481167626903,5902.774453224244
1.52,1.1243657005487158,5900.238625160945
1.524,1.1149221751949547,5901.819966676349
1.528,1.1066458682398557,5904.881260895349
1.532,1.0989550561476098,5904.581566657213
1.536,1.0897216072167233,5901.196540077371
1.54,1.0756973466165478,5902.666786673619
1.544,1.053799076359471,5914.519422078832
1.548,1.022742953722977,5898.691898954337
1.552,0.9842575905489896,5911.528162812303
1.556,0.9432315607897401,5907.673650890574
1.56,0.9065805398734514,5905.939085988066
1.564,0.8811728680143297,5904.178123758913
1.568,0.8716282964930369,5906.440521007701
1.572,0.8789313824685333,5912.738308572998
1.576,0.9004035766799559,5907.450737995198
1.58,0.9308763409894963,5903.049356489038
1.584,0.9644066049781885,5902.162738363076
1.588,0.9958546210908992,5895.005657507589
1.592,1.0219264982464107,5897.831289915624
1.596,1.0415543925326605,5907.294512926917
1.6,1.0556298385467828,5900.110435492987
1.604,1.0661881217322682,5902.5444885778425
1.608,1.0752490575616982,5909.188777884751
1.612,1.0836483006096305,5891.963137487857
1.616,1.0902632704360729,5905.265460438649
1.62,1.0919805899722022,5904.883517188339
1.624,1.0845368214874465,5892.12704311901
1.628,1.0640130957460918,5902.632805270164
1.632,1.0284408745269416,5905.533133962862
1.636,0.978908787123302,5902.105540062088
1.64,0.9197762891847598,5906.819387543479
1.644,0.8579149440837802,5909.544266258858
1.648,0.8011803145131013,5906.300874624015
1.652,0.7565465975169952,5913.308158338309
1.656,0.7284514775324195,5905.737171699191
1.66,0.7178137736599942,5911.332664202047
1.664,0.7219450228705825,5898.897760318494
1.668,0.7353303054034116,5913.036272353496
1.672,0.751086476593721,5895.300175456512
1.676,0.7627888941124509,5899.7846686070825
1.68,0.7662570236131979,5902.827690203769
1.684,0.7608162167792593,5912.456853362913
1.688,0.749565530558789,5906.815993777899
1.692,0.7383938190444824,5900.28351025224
1.696,0.733944351533331,5902.907485411166
1.7,0.7412220885520877,5896.086159429533
1.704,0.7617165241402826,5905.859137400597
1.708,0.7926641324943761,5903.705546782092
1.712,0.8276276499171638,5900.547285267685
1.716,0.8581765071619173,5903.338072289302
1.72,0.8761674150745292,5897.656457284185
1.724,0.8759548875253741,5914.070565696413
1.728,0.8558954812675417,5899.666275458348
1.732,0.8187694917555394,5914.42976147741
1.736,0.7710975796793722,5911.628914549814
1.74,0.7216156314503617,5897.717645152095
1.744,0.6793243749408759,5907.140881298253
1.748,0.6515811525148396,5906.069398160498
1.752,0.6426706078653543,5904.026213942263
1.756,0.6531290161228094,5907.694252906466
1.76,0.679832266941493,5907.6669425991
1.764,0.7166993138082011,5901.217412288503
1.768,0.7559204952494447,5906.92157401936
1.772,0.7896559186648605,5902.812445552222
1.776,0.8119126038740665,5906.66493509557
1.78,0.819997231461085,5908.006265490983
1.784,0.8149791491597532,5909.4256882818
1.788,0.8010268179830572,5903.140222926643
1.792,0.7839229842289525,5904.107957147142
1.796,0.7692629538713843,5905.89865545992
1.8,0.7608727370421173,5906.14111200871
1.804,0.7599349365024495,5903.816431335711
1.808,0.7650858423549985,5901.8997424626605
1.812,0.7733286200883701,5897.663674705746
1.816,0.7812579726915049,5909.928381570982
1.82,0.7860853191336907,5905.34715223508
1.824,0.7862091190013052,5912.753806470558
1.828,0.7812952268963043,5906.103176925576
1.832,0.7719218640315295,5894.559154178467
1.836,0.7589322423826004,5912.948934038281
1.84,0.7427578061796286,5904.457579465436
1.844,0.7229991924258723,5906.272060275181
1.848,0.698440466635477,5907.613504849317
1.852,0.6675330594122723,5912.486662567971
1.856,0.6292640694381819,5912.553260375685
1.86,0.584159780340469,5911.977927801213
