时间(s),电压(V),幅值(高频80K)
0.0,1.0250119392508479,5895.762574075145
0.004,1.1289516660824601,5899.568208014666
0.008,1.230631781255954,5903.716607179916
0.012,1.326340362625815,5898.243851623393
0.016,1.4106805982753596,5902.452551204279
0.02,1.4767728069628892,5905.829838265648
0.024,1.517418209993882,5899.215495573416
0.028,1.5269496911888094,5901.632855789396
0.032,1.5030834580458026,5899.4564295369055
0.036,1.4480797717623755,5900.733932400311
0.04,1.3688964279005187,5906.66109616925
0.044,1.276375112123887,5898.520915012246
0.048,1.183580132403481,5900.206577793905
0.052,1.1034169321890501,5897.285455427784
0.056,1.0459200651367515,5910.554285417433
0.06,1.016007181802941,5903.1831531508
0.064,1.0125635631132617,5898.355875160479
0.068,1.029234172146365,5903.1024877679165
0.072,1.056587871728092,5904.6106967241085
0.076,1.0848482094318972,5895.735259267761
0.08,1.1063322114249003,5892.294349077945
0.084,1.1169810199056986,5901.499902795713
0.088,1.1167121732330734,5889.310834041066
0.092,1.1086769302283452,5901.61622082057
0.096,1.0978104928424883,5905.873854391579
0.1,1.0891987254094966,5910.465662263866
0.104,1.0866785562102153,5904.816091313493
0.108,1.0918596992624692,5906.651932439408
0.112,1.1036327823699332,5908.663874603071
0.116,1.118306701146131,5902.333655218183
0.12,1.1305934698666473,5899.731568924795
0.124,1.1354127725332128,5897.15258264176
0.128,1.129920372453293,5895.965548388137
0.132,1.1147649238297013,5894.830537000473
0.136,1.0938648265412887,5903.4424731081735
0.14,1.0728580359309683,5890.39274785238
0.144,1.0571074887965284,5901.32897393367
0.148,1.0501985124906599,5893.886841999586
0.152,1.0533487318160195,5897.347699354168
0.156,1.0655804633739552,5901.653749124912
0.16,1.0842889812199459,5906.264395122354
0.164,1.1059658019231506,5899.448713197683
0.168,1.1269725233630812,5896.792461571135
0.172,1.1442089677595702,5894.992873034909
0.176,1.1554776004835328,5906.9116081125485
0.18,1.1595475430069142,5898.066114742861
0.184,1.1561702735281127,5887.120305265461
0.188,1.1462302570756255,5900.6213065514685
0.192,1.1319009811154805,5903.574923881656
0.196,1.1165293717732767,5894.489620812907
0.2,1.1041033774715563,5897.915224357075
0.204,1.098326807051565,5904.279895916585
0.208,1.1014392950426326,5904.865258311029
0.212,1.1131152506393645,5903.118060936802
0.216,1.129975943850781,5906.849175700976
0.22,1.1461122580279361,5890.189401384938
0.224,1.154505651856159,5898.306223132683
0.228,1.148817393360953,5897.185607225489
0.232,1.1250454000254935,5902.165970273089
0.236,1.0828052855326635,5903.086249621211
0.24,1.0260644422783516,5904.324408450021
0.244,0.9630089443813058,5892.2456743755565
0.248,0.9046970536817488,5903.750533099887
0.252,0.8625202993737051,5895.7793711392505
0.256,0.8451074347711945,5899.020244885725
0.26,0.8557354178589948,5904.509676367688
0.264,0.8912486542689803,5896.480989944472
0.268,0.9429675343619587,5908.349467215161
0.272,0.999336169479701,5902.93219828549
0.276,1.0493983787827796,5896.943798171059
0.28,1.085871304099677,5904.748831463588
0.284,1.1067817690314459,5896.145356198173
0.288,1.1152356590357186,5903.306023081022
0.292,1.1175546533755067,5895.96001083023
0.296,1.1204797361430625,5899.272843765126
0.3,1.1284036770076922,5901.785156024577
0.304,1.1416620563409974,5893.461816969012
0.308,1.1566216887862282,5897.146411350792
0.312,1.1675723828281033,5901.421598639216
0.316,1.1695665480073925,5898.196198853053
0.32,1.1609192340161183,5897.366204246074
0.324,1.1443420196412288,5894.202580867714
0.328,1.126360709210812,5896.348137927604
0.332,1.1153067171877045,5904.37786491653
0.336,1.1185764887013083,5903.382324531573
0.34,1.1400450185533098,5897.575618999364
0.344,1.1784886946440167,5894.630615196392
0.348,1.2275437555006865,5897.833456206242
0.352,1.2771730852531156,5903.396543007437
0.356,1.31613809972914,5906.086942041154
0.36,1.3347892170206859,5900.162533296405
0.364,1.3274897525670573,5899.278377111332
0.368,1.2940430304503272,5896.270606772267
0.372,1.239703230786494,5899.233159746495
0.376,1.1737792053121232,5898.000513710204
0.38,1.1072985742831796,5907.921568607701
0.384,1.0504530138389272,5897.559100253159
0.388,1.0105087825787926,5898.68467853118
0.392,0.990608271412701,5899.945789117784
0.396,0.9895764799441575,5896.432931037237
0.4,1.002616032725174,5898.733282496497
0.404,1.0226326838278395,5891.369611101557
0.408,1.0418487432084038,5901.021381429218
0.412,1.0533643392779566,5907.402521462457
0.416,1.0524275460189785,5894.922206790955
0.42,1.0372951971106303,5892.886095870676
0.424,1.009627996448618,5903.3776565710505
0.428,0.9743599862958543,5892.05972463194
0.432,0.9389564683896809,5902.036356652125
0.436,0.9120073943504913,5908.24724558405
0.44,0.9012683918968466,5903.3411101921865
0.444,0.9115232163364048,5901.165271355144
0.448,0.9428590771566775,5898.619454072836
0.452,0.9899887166880412,5904.052473556926
0.456,1.0430554237830245,5902.188374687267
0.46,1.0899212588498894,5894.650026443248
0.464,1.119367986954049,5898.070212923314
0.468,1.1241719574136693,5898.81804960874
0.472,1.1029600174568877,5894.774268068333
0.476,1.0602722777033893,5899.456986043056
0.48,1.0050876900665033,5897.93164140807
0.484,0.9486239127335031,5908.383119261421
0.488,0.9021309025974215,5891.321197913772
0.492,0.8749030039712516,5902.318194015425
0.496,0.8724427859274906,5901.828529806946
0.5,0.8949226525279534,5900.711502641972
0.504,0.9365144325929561,5904.789913693505
0.508,0.9862746610978916,5905.322808350732
0.512,1.0308284598931476,5898.270391214003
0.516,1.0582537705305504,5903.671667611129
0.52,1.0618087965020881,5900.487924513814
0.524,1.0419816725740378,5887.279059388007
0.528,1.0059697362115614,5891.048442464525
0.532,0.9648243187541921,5903.176963965831
0.536,0.9295040424544017,5900.160383765443
0.54,0.9074287442177191,5908.697602047012
0.544,0.9007241410033964,5901.06627964759
0.548,0.9065097457612228,5911.089582102948
0.552,0.9187400448053666,5902.884810287778
0.556,0.9306277481004505,5894.762772154622
0.56,0.9367377397166232,5898.073772572271
0.5640000000000001,0.9342779031561614,5907.425053113954
0.5680000000000001,0.9235394705126904,5902.981628147271
0.5720000000000001,0.9076236628513792,5897.06517509405
0.5760000000000001,0.8916064015163946,5895.040682011109
0.58,0.8813078377029413,5905.470573084957
0.584,0.8819070411350937,5890.752433497947
0.588,0.8967043181208616,5900.164109456213
0.592,0.9262976869375487,5906.229956856363
0.596,0.9683293853231456,5895.264851706471
0.6,1.017859310705683,5906.803549670977
0.604,1.0683128766763605,5897.378928409973
0.608,1.1127592394807717,5910.493896536659
0.612,1.145122231961673,5895.8092013869855
0.616,1.1610412462866777,5898.646459846614
0.62,1.158435390529624,5903.360830174031
0.624,1.138010135730023,5891.623453044137
0.628,1.1037550790474064,5900.605550839087
0.632,1.0631283984756243,5903.521728099968
0.636,1.0264557740071298,5896.659228015024
0.64,1.0052017198356444,5897.357613274864
0.644,1.0091466679092664,5901.096077659312
0.648,1.04305783300761,5907.677739258408
0.652,1.1039870078279013,5896.121382913872
0.656,1.1805039988304218,5901.76804330321
0.66,1.2546997433156177,5902.133528318806
0.664,1.3067501154386938,5896.44046639714
0.668,1.3207002974845443,5902.114407007744
0.672,1.289506634852928,5895.872583615969
0.676,1.2175480418771387,5892.491467351445
0.68,1.11964568687312,5903.065955418931
0.684,1.01678905688848,5897.836664966954
0.6880000000000001,0.9299421754167414,5898.555592802082
0.6920000000000001,0.8740827822800042,5902.476383310707
0.6960000000000001,0.8545756641497311,5895.276132742238
0.7000000000000001,0.8670096838599023,5904.740121209568
0.704,0.9001721784363695,5901.750656844045
0.708,0.9406265043919839,5908.4386513877225
0.712,0.9770035548510007,5901.69381231836
0.716,1.0026937631325008,5898.028681252813
0.72,1.0166040757059027,5905.188832163176
0.724,1.022359795585875,5907.297652069365
0.728,1.026544750456495,5896.440362550624
0.732,1.0364912100533081,5899.834107307072
0.736,1.058041355030526,5904.729107138314
0.74,1.0937206736330614,5896.437276880833
0.744,1.1417910511083953,5901.861266826533
0.748,1.1965039563567388,5890.527167073423
0.752,1.2495156772910716,5884.470415138289
0.756,1.2920299875210088,5902.879076530571
0.76,1.317002956447326,5898.168919640959
0.764,1.3207672384789855,5898.29415097126
0.768,1.3036809218548682,5907.794244784175
0.772,1.269761827060091,5897.036264099861
0.776,1.2255603298235975,5897.638584266833
0.78,1.1786396637062742,5899.741509979621
0.784,1.1360073188589865,5893.537350995742
0.788,1.1027690045929694,5907.049738724784
0.792,1.0811964373380047,5892.989660925671
0.796,1.0703374902997906,5893.73944674866
0.8,1.0662854018776586,5905.126805494191
0.804,1.0632031077236828,5893.352619959799
0.808,1.0550388496876102,5902.4938925960005
0.812,1.0375542196396723,5907.306142132345
0.8160000000000001,1.0099910902640816,5892.560574505408
0.8200000000000001,0.9756755164619207,5892.887414710401
0.8240000000000001,0.941216050176612,5901.36124053217
0.8280000000000001,0.9145453483986389,5899.338834019077
0.8320000000000001,0.9025190810324932,5897.041377851503
0.836,0.9088867870874081,5893.518726781181
0.84,0.9332464068375275,5898.256032956326
0.844,0.9712519242269714,5904.83465954833
0.848,1.0159315306267356,5903.204673232641
0.852,1.0595805398743043,5911.034358218196
0.856,1.0955320990284347,5896.4558232988575
0.86,1.1192954926632817,5906.08841215264
0.864,1.12891687847213,5895.764632081946
0.868,1.1247127815362203,5901.503591769764
0.872,1.1086677005746899,5900.573939636412
0.876,1.0837914262625319,5904.409939036485
0.88,1.0536220219785737,5903.709554415025
0.884,1.0219049924790502,5899.122703159914
0.888,0.9923840169246967,5906.4829778738695
0.892,0.9686442266319699,5894.676375698714
0.896,0.953989388663749,5893.470138508021
0.9,0.9513276279410924,5905.02448718091
0.904,0.9629964399087653,5894.039975661472
0.908,0.9904453361503802,5903.340710678256
0.912,1.033721440408276,5903.839145053737
0.916,1.090758262359142,5896.399691742575
0.92,1.1566362996217814,5893.857456864695
0.924,1.2232851187385336,5896.999386114922
0.928,1.2802609938085339,5903.1899050072425
0.932,1.3169173064350161,5905.979942679048
0.936,1.325493738204933,5903.202096146571
0.94,1.3038694174609526,5901.061669334084
0.944,1.2565975820577697,5904.98292092587
0.948,1.1935935068850232,5893.8225594670575
0.952,1.1270179688259,5890.123992522724
0.956,1.0677145577248064,5901.687780770169
0.96,1.0225847309326506,5902.656422387801
0.964,0.9936698544357945,5899.444335085525
0.968,0.9789127407422585,5887.685704479896
0.972,0.9739418476321343,5898.965122562758
0.976,0.973926813820199,5900.140978829253
0.98,0.9747206062925818,5894.131578935633
0.984,0.9730881864118202,5908.449138319785
0.988,0.9664453829890993,5906.263549373387
0.992,0.9527658125605118,5899.902222851827
0.996,0.9310509105517834,5897.12752740035
1.0,0.9022077447896195,5899.606147200386
1.004,0.8697127254948661,5895.824713083441
1.008,0.8394071905997442,5899.458197829392
1.012,0.8182268129549176,5899.749706953919
1.016,0.812294990125293,5903.407740539942
1.02,0.8251869226054794,5888.642430636561
1.024,0.8570558240490309,5904.673496091412
1.028,0.9047994229348598,5895.2748503884495
1.032,0.9629203562339038,5893.671562944774
1.036,1.024562126723469,5909.577206797912
1.04,1.082399660485422,5899.134789101342
1.044,1.1293732326565624,5891.223861868836
1.048,1.1594474480772892,5897.274325539771
1.052,1.1685540014857336,5901.659958412421
1.056,1.155634615795062,5896.102976574735
1.06,1.1233703436003217,5892.5313912419415
1.064,1.078029305158794,5903.143053301587
1.068,1.0281265450670607,5895.882740658612
1.072,0.9822424637573839,5904.153265117427
1.076,0.9469617827294278,5901.23709346849
1.08,0.9258971142842272,5901.185954702659
1.084,0.9200209306046526,5898.69303846351
1.088,0.9286347801232689,5905.462618439626
1.092,0.9500448263041461,5902.153457603049
1.096,0.9815618138092214,5903.150694017412
1.1,1.0191955098313255,5895.273116437042
1.104,1.0576912051377665,5898.001094943119
1.108,1.0912626016087488,5902.158319295486
1.112,1.1148625631105102,5898.792679135769
1.116,1.1254559538545095,5903.388373714919
1.12,1.1227234790360734,5895.926396304231
1.124,1.1089555916115996,5900.486936753918
1.128,1.0883463112814136,5902.973025366987
1.132,1.0660890483977599,5898.6518314670175
1.136,1.0474965270712104,5903.726325978654
1.14,1.0371310506234814,5907.176662694496
1.144,1.037976914577025,5898.824159938968
1.148,1.050909281904991,5899.990936852885
1.152,1.074727630333382,5896.120016855318
1.156,1.106702063534173,5904.799959330735
1.16,1.1432486159678599,5900.50827965332
1.164,1.1803843535247591,5892.378166241992
1.168,1.2139700967078755,5900.975215573074
1.172,1.240002195749166,5899.018351073954
1.176,1.2550960425870612,5903.087203733194
1.18,1.2570153878804968,5899.912512333105
1.184,1.2450004552341376,5913.330505975933
1.188,1.2197909651165681,5903.932076285989
1.192,1.1833994734024784,5896.748016764765
1.196,1.138714465263755,5899.754522277935
1.2,1.0889926421067064,5898.565947322941
1.204,1.037354982543567,5902.5735697123
1.208,0.9864562704123866,5896.405382829189
1.212,0.9384335508112661,5903.251802390525
1.216,0.8951127931628459,5899.189707627828
1.22,0.858351890820988,5893.433181805796
1.224,0.8302828507095149,5895.470547982308
1.228,0.8131268848904469,5900.692271153791
1.232,0.8084101642354253,5912.23614590754
1.236,0.8158678588827801,5896.211644369659
1.24,0.832747442875577,5896.034583133222
1.244,0.854156168512408,5894.363536134569
1.248,0.8745027156831823,5895.396282237622
1.252,0.8894158218568848,5900.278362166899
1.256,0.8972699368450194,5900.955237784416
1.26,0.8996989456056085,5907.404526712693
1.264,0.9009702158586892,5899.067922200724
1.268,0.9065311975833962,5904.609766555694
1.272,0.9212908727595386,5901.814294918939
1.276,0.9482081617294531,5902.845627402036
1.28,0.9875346882210521,5896.844999957795
1.284,1.0367461041514379,5903.168175074905
1.288,1.0910138596326244,5898.282550901548
1.292,1.1440835903110942,5902.2863805818215
1.296,1.1894837689223008,5909.16968230108
1.3,1.2219131639982213,5900.43870713336
1.304,1.2384655815008216,5907.123064473179
1.308,1.239246203376722,5894.178034592341
1.312,1.2270853972881122,5898.783325455172
1.316,1.2064263822627854,5903.413102990633
1.32,1.1818555733068714,5890.349371031355
1.324,1.1569433184628521,5906.655236210264
1.328,1.133895723162243,5900.177133674099
1.332,1.1139860947721494,5905.5653396848
1.336,1.0981869625798302,5892.774448018961
1.34,1.0873413657727804,5894.150541751446
1.344,1.0816838636778987,5894.124134285225
1.348,1.080130417651874,5903.807621917848
1.352,1.0800076464972508,5900.522073960893
1.356,1.077622509418561,5900.246711203877
1.36,1.0695260532694524,5897.124929669397
1.364,1.0539223300087375,5892.027314156101
1.368,1.0316375921003405,5909.602848806658
1.372,1.0062818743314244,5899.128654897179
1.376,0.9835089835781109,5907.46391873866
1.38,0.969530634761879,5900.959362897836
1.384,0.9692435982429535,5912.49771748432
1.388,0.9844620916220628,5905.058200798285
1.392,1.0127928281138343,5905.287041264703
1.396,1.047607912091855,5889.732730755368
1.4,1.0793054928389865,5902.168205035132
1.404,1.0976411391072531,5889.564854269686
1.408,1.0945562558846074,5897.953518527985
1.412,1.066775608164379,5897.076972098027
1.416,1.017444912819788,5891.110799052213
1.42,0.956169860154707,5895.993664174143
1.424,0.8971237546869113,5905.955993049532
1.428,0.8555041884395324,5897.941412900834
1.432,0.8433157677918072,5900.6482382185095
1.436,0.8658422269277285,5894.172416406672
1.44,0.9200205565577887,5905.364711716919
1.444,0.9952863073866829,5903.113750190199
1.448,1.076579686244488,5905.5198389768775
1.452,1.1484581443406563,5897.524749292248
1.456,1.1989703119163193,5902.684214153098
1.46,1.2222131623459103,5908.659850508928
1.464,1.219122015114489,5905.412799027694
1.468,1.1966188115212861,5892.157825719005
1.472,1.1655164148395405,5896.819446559955
1.476,1.1376784169275647,5904.651448664722
1.48,1.123060131748211,5900.7577111648
1.484,1.1273381542148382,5897.5211288169885
1.488,1.1507059055736675,5896.994365175373
1.492,1.1880815026846494,5892.296536675776
1.496,1.2305995147720297,5894.157003008198
1.5,1.267951585875013,5901.477300157525
1.504,1.2909333881840068,5898.141717105231
1.508,1.2935165797139294,5909.583802799537
1.512,1.273972501168086,5903.1176031382
1.516,1.2349406446709021,5904.24825513656
1.52,1.1826460899513942,5902.2597429652
1.524,1.1255928852118617,5905.749079837734
1.528,1.072998132219805,5906.527913154823
1.532,1.0331188698435974,5900.23568669083
1.536,1.0116631378934586,5906.622571218419
1.54,1.0106537442326564,5895.746730664872
1.544,1.028120352672942,5903.780055733474
1.548,1.0586801312396839,5892.307899785962
1.552,1.0947130743910087,5892.477769743325
1.556,1.127772562226903,5901.865196917862
1.56,1.1500327976323241,5901.067577543293
1.564,1.1556639212341424,5901.546087622798
1.568,1.141935042659312,5904.570248350174
1.572,1.1097650034761437,5884.563606227485
1.576,1.0635628828947639,5909.575695922161
1.58,1.01044054681367,5896.09244475089
1.584,0.959005919478917,5895.858354552349
1.588,0.9179132987921306,5897.172883275628
1.592,0.8943053308086879,5891.601454709677
1.596,0.8923125796694579,5902.193128330823
1.6,0.9118422384165109,5895.057798498372
1.604,0.9479740437049391,5906.563029441179
1.608,0.9913857692138595,5897.006428674784
1.612,1.0301827475834968,5903.069892144605
1.616,1.0530498659023224,5893.309559607702
1.62,1.0528688797790264,5891.993891279475
1.624,1.029410673963091,5901.284295451767
1.628,0.9899044878126827,5893.109155862643
1.632,0.9471033222673954,5903.993726036109
1.636,0.9154434154792433,5896.285219463432
1.64,0.9066435107867626,5896.544349181978
1.644,0.9263127358115266,5904.817004978827
1.648,0.9726550460680042,5898.461202072899
1.652,1.0374081428579423,5899.819998066397
1.656,1.1083479678516042,5899.760301197584
1.66,1.1724344422170039,5896.186719608016
1.664,1.2188211596636582,5895.013901160928
1.668,1.2411320408695719,5896.165062404367
1.672,1.2385385554835404,5898.014726214668
1.676,1.2154289404790746,5901.593496828874
1.68,1.179856477529243,5895.04327576455
1.684,1.1412615907576558,5899.593338433316
1.688,1.1080617174500786,5899.42463049169
1.692,1.0856792402314588,5897.404686443743
1.696,1.0754870209171377,5901.639232939446
1.7,1.0749199761874972,5898.621196784406
1.704,1.0786204109852813,5897.572575738614
1.708,1.080144729442625,5902.862796500542
1.712,1.073666135629549,5903.076700015258
1.716,1.0552585085214008,5895.935162342124
1.72,1.0235763082155123,5902.726244652554
1.724,0.9799302379292892,5897.865258105519
1.728,0.9278959178342151,5899.656317796736
1.732,0.8726768166647172,5892.2545716456825
1.736,0.8203938800795071,5904.31269017438
1.74,0.7773203177523038,5892.70159246789
1.744,0.7489948381717981,5903.019784423239
1.748,0.7392104889933951,5898.5465629180535
1.752,0.7490386139064457,5899.919542162292
1.756,0.7762312399608815,5901.450347510115
1.76,0.815388238589469,5904.459497022169
1.764,0.8590439163830178,5911.783529602567
1.768,0.8994420448663574,5910.342895248116
1.772,0.9304530617873504,5894.836708671132
1.776,0.9489486539795464,5899.737588133455
1.78,0.9550611787425018,5901.582809865842
1.784,0.9511938718717208,5904.613167291368
1.788,0.9402943531794901,5902.396221369846
1.792,0.9243703609938079,5900.370773761852
1.796,0.9041160544379728,5907.354796978894
1.8,0.8798054375283645,5900.952791767971
1.804,0.8527574527297597,5908.030037858856
1.808,0.8263157773170293,5899.124027225725
1.812,0.8056699895638784,5898.639416916003
1.816,0.796590742404162,5900.483452137186
1.82,0.8036513876114435,5904.941752839848
1.824,0.8285594439087397,5905.82905080497
1.828,0.8690623427010737,5898.612769884691
1.832,0.9187326578313332,5921.511424079138
1.836,0.9677678689383905,5905.200603284005
1.84,1.0047521089990723,5901.117918317935
1.844,1.0191729689005677,5896.251526503824
1.848,1.0042883679243026,5907.224332183222
1.852,0.9596022550342422,5898.461628023783
1.856,0.8919504921021646,5899.364858169372
1.86,0.8144457226763917,5904.209948133924
