时间(s),电压(V),幅值(高频80K)
0.0,1.0215521142463815,5898.232452784498
0.004,0.9149617244966364,5901.247257649492
0.008,0.8163121960564222,5900.325995614489
0.012,0.7337595061437059,5905.072815535858
0.016,0.6731522499602931,5892.149670380017
0.02,0.6377336586424267,5900.053991845891
0.024,0.6286042831683307,5900.680977290132
0.028,0.64540469418876,5893.317753492828
0.032,0.686542361768202,5902.964947325687
0.036,0.748724163043227,5905.243207625689
0.04,0.8261884106113497,5900.71448447631
0.044,0.9103954134821739,5901.207277354537
0.048,0.990769381027041,5901.125135342649
0.052,1.0564830958977898,5899.318828053757
0.056,1.0987239806054057,5901.699335876731
0.06,1.1127710666554769,5904.773180196996
0.064,1.0993859579429146,5902.069516365044
0.068,1.0651029076511886,5894.706060567647
0.072,1.0210515661849038,5904.669873534643
0.076,0.9803323050899831,5909.59140261324
0.08,0.9546725105096827,5900.36848207749
0.084,0.9515553798760604,5897.167655598213
0.088,0.9727783063244474,5898.418819812667
0.092,1.0146801378853618,5902.1630060634425
0.096,1.0696441763332498,5898.2527060360135
0.1,1.1282109490657841,5901.561556867277
0.104,1.1811188677400615,5898.698130421355
0.108,1.2207355775162254,5897.793437541701
0.112,1.241671077628153,5899.552002080421
0.116,1.2408030064106093,5892.213515451072
0.12,1.2172493840595418,5902.554935685994
0.124,1.172718785913231,5894.73408844952
0.128,1.1121135434404312,5898.773850369501
0.132,1.0436881960700555,5909.544882455696
0.136,0.9780782488058725,5894.235405312522
0.14,0.9261775563206833,5905.778382596478
0.144,0.8965565200688008,5902.261244941005
0.148,0.8933203851901381,5896.816098615721
0.152,0.9150225819405324,5897.851324170611
0.156,0.954848017952521,5909.35554539525
0.16,1.0020053652679255,5899.9592700431085
0.164,1.0440408699166361,5899.740095688785
0.168,1.0695204163648193,5893.725193121192
0.172,1.0703976596797988,5896.190930407914
0.176,1.043564783567127,5890.620836891389
0.18,0.9913974754757611,5913.734416296209
0.184,0.9212841600452824,5901.151905118686
0.188,0.8441794440798062,5897.986181737875
0.192,0.772349713331784,5895.377251274178
0.196,0.7167677170501586,5902.744956785967
0.2,0.6848923656040397,5887.630927682884
0.204,0.6795407673117233,5898.147196255765
0.208,0.6990948627277968,5902.713599101296
0.212,0.7386818847488539,5901.538553152535
0.216,0.7917066895946345,5900.039583166433
0.22,0.8512728164039357,5900.642184553072
0.224,0.9112479179003062,5899.232726205063
0.228,0.9668086923689297,5897.0240234413695
0.232,1.014412196462102,5907.191286120423
0.236,1.0513889493313924,5899.514317046984
0.24,1.0755392149532783,5899.133966241707
0.244,1.085032042268126,5899.372119594776
0.248,1.0786281096927983,5898.68024563551
0.252,1.0560119376638806,5902.543956271387
0.256,1.0179946541456268,5890.868627399545
0.26,0.9665459967761341,5895.562950546769
0.264,0.904856238906842,5905.8561842061135
0.268,0.8376084941331338,5905.804202459879
0.272,0.7712835507757159,5898.090851383441
0.276,0.714009255215872,5897.964014130344
0.28,0.6746027034032185,5907.20158221858
0.284,0.6609097318628877,5889.539180361487
0.288,0.6779032222872814,5906.137913262351
0.292,0.7260919501760348,5903.068174940897
0.296,0.8007117468285916,5897.543047888341
0.3,0.8920049337816828,5889.791580109808
0.304,0.9866674222045679,5893.739561672898
0.308,1.0702578271498557,5896.83838042717
0.312,1.130034913825713,5895.856260584574
0.316,1.1574836802239628,5897.631401561371
0.32,1.1499227232363634,5904.769421929997
0.324,1.1109559121392798,5897.23664501587
0.328,1.0497805644641287,5906.936362455013
0.332,0.9794094764011072,5894.4009043531
0.336,0.9140010510800096,5903.484704588419
0.34,0.8658484872191492,5906.176183210504
0.344,0.8428542177570607,5908.69690535223
0.348,0.8472208989288719,5894.655065510794
0.352,0.8756940744627839,5896.145479538893
0.356,0.9211888860418799,5894.308110129095
0.36,0.9751559914863291,5893.971100914321
0.364,1.0298075019824582,5898.899438622168
0.368,1.0795308377717714,5885.95814893418
0.372,1.1212852500105248,5896.596027140762
0.376,1.1541122838572566,5900.336115893063
0.38,1.178044311561317,5899.0931932631
0.384,1.1928731837112798,5896.315690805097
0.388,1.197403485875975,5891.006703203544
0.392,1.1896787928622052,5897.939312646882
0.396,1.168147444512385,5901.732117406981
0.4,1.1331213371351063,5901.778059647682
0.404,1.087625294836427,5896.781357727896
0.408,1.0370566596925568,5902.572734291606
0.412,0.9877799670030417,5895.143367233764
0.416,0.9453962038946876,5910.71190661778
0.42,0.9135240091346019,5903.705888560177
0.424,0.8934802380246061,5902.927068705202
0.428,0.8846737102689431,5891.249410481061
0.432,0.8852870508869178,5899.847806228503
0.436,0.89296924214331,5896.151828349119
0.44,0.9054897774476091,5895.712345126125
0.444,0.9213326339959691,5908.001102101563
0.448,0.9400712772792885,5900.7035904737
0.452,0.9623331085258308,5896.865799463006
0.456,0.9893329235415338,5906.31179804723
0.46,1.0221234695760317,5893.12060885525
0.464,1.060739106057492,5898.31360559289
0.468,1.103433495873552,5902.135487440966
0.472,1.1463140281696078,5903.286606372685
0.476,1.1836845408250394,5897.930472403023
0.48,1.2091838421708108,5910.540378130069
0.484,1.217427595492614,5904.383579047407
0.488,1.2055339537698044,5913.924369628082
0.492,1.1738853051635505,5905.656652743037
0.496,1.1258520844384736,5896.301360853967
0.5,1.0667449830859854,5912.496116408162
0.504,1.0025801302775212,5894.88960912618
0.508,0.9391703424892309,5904.217990733425
0.512,0.8817136772315652,5908.861988195677
0.516,0.8346755669520338,5896.246849006207
0.52,0.8016085090334982,5913.837782656645
0.524,0.7847648933043113,5891.231585502771
0.528,0.7847377940625401,5902.300770745628
0.532,0.8004833239103611,5902.175430041369
0.536,0.8297822859748746,5890.90629457946
0.54,0.869817219630664,5894.883646834333
0.544,0.9174743415209087,5904.378198548338
0.548,0.9692538586107974,5890.5108542287935
0.552,1.0210034457466635,5899.860583933926
0.556,1.0678561774030422,5901.029262120038
0.56,1.1047009107715842,5891.009318434482
0.5640000000000001,1.1272270340616062,5892.063678827934
0.5680000000000001,1.1331739131528973,5894.781261755858
0.5720000000000001,1.1231839485372037,5890.425075798562
0.5760000000000001,1.1008205963107478,5899.587277697791
0.58,1.0717262190252752,5898.700097227088
0.584,1.0422565756224735,5902.480928307907
0.588,1.0181002446533567,5905.619675133029
0.592,1.003372105284499,5901.385429797118
0.596,1.0004244434638305,5893.918865756644
0.6,1.0101793118978235,5901.713141445804
0.604,1.03243797158956,5906.223635967717
0.608,1.0657158288852366,5900.549536602074
0.612,1.1066626152343382,5899.524438407955
0.616,1.149613912098408,5900.267836495249
0.62,1.1868925582976289,5899.325733968178
0.624,1.210158827716159,5895.76657649965
0.628,1.2126185866321981,5899.3495532322
0.632,1.1913940048782412,5900.334060396014
0.636,1.1490483336691024,5894.664041220026
0.64,1.0934204835365209,5907.659695527818
0.644,1.03559475039719,5892.851133656125
0.648,0.986646326522047,5899.378498788322
0.652,0.9543338382153393,5897.966011937147
0.656,0.9409554901630932,5900.670924454199
0.66,0.9431710808628767,5890.4283819397015
0.664,0.9538449839696329,5900.822890399023
0.668,0.9651269515996068,5893.076818879502
0.672,0.9714635515194318,5896.598589593167
0.676,0.9713613395159312,5898.4443703770985
0.68,0.9674181329582425,5898.558902052532
0.684,0.964902875454117,5896.398734435441
0.6880000000000001,0.96953872083157,5894.923066778839
0.6920000000000001,0.9851335031700698,5899.910133726414
0.6960000000000001,1.0116565146160565,5892.440853669913
0.7000000000000001,1.044418780754189,5903.411948304358
0.704,1.0748946111207276,5897.444478167291
0.708,1.0931797473466607,5899.867456000646
0.712,1.0913307084057458,5898.597171470628
0.716,1.0663649823075059,5893.0570276977605
0.72,1.021802220267897,5898.315525249849
0.724,0.9671627570207946,5906.183959646904
0.728,0.9155406219125096,5893.707296666308
0.732,0.8800484756926764,5893.921592311551
0.736,0.8703630284187212,5894.119636132106
0.74,0.8905083942343892,5892.269284273278
0.744,0.9384076195114591,5904.177826473636
0.748,1.0069788065433738,5901.654618314343
0.752,1.0860571136309733,5895.381403766179
0.756,1.1643431724359572,5895.172190648429
0.76,1.2308443833193976,5905.387927142714
0.764,1.2757627827918718,5900.95740796762
0.768,1.2912890213732824,5895.946757395759
0.772,1.2728905514235542,5904.463771312554
0.776,1.2211422072925804,5897.016463211467
0.78,1.1432747651940978,5891.633126782287
0.784,1.0531976664438372,5887.514366016341
0.788,0.969205969449965,5902.44672241101
0.792,0.909625484401034,5903.803910947073
0.796,0.8876887928832699,5903.571382077461
0.8,0.9074455006925963,5883.002581087688
0.804,0.9622176055349952,5891.993664103437
0.808,1.0361717737394054,5906.075248392588
0.812,1.1084996432482754,5894.392777008297
0.8160000000000001,1.1589052840790781,5895.333630836543
0.8200000000000001,1.1727772674416281,5910.585415713288
0.8240000000000001,1.1446387941328227,5887.706462444011
0.8280000000000001,1.079109819709582,5900.567444796592
0.8320000000000001,0.9893303388010596,5900.90267716181
0.836,0.8933333987063298,5900.986534697022
0.84,0.8092779666327459,5895.1558307971145
0.844,0.7508033858693925,5904.403904043816
0.848,0.7238225652876751,5903.030844654039
0.852,0.7256255870800484,5904.256714404081
0.856,0.7464184134157635,5889.360048496325
0.86,0.7727734764532695,5895.377706116565
0.864,0.7920311507415819,5907.44429552493
0.868,0.7963508855659422,5894.877719557301
0.872,0.7850306111304519,5908.585458752702
0.876,0.7642640801218685,5904.901213700591
0.88,0.7445976888640126,5896.343215530938
0.884,0.7372845398855555,5891.006982912994
0.888,0.7509263352108476,5899.876709144915
0.892,0.7893182890223055,5902.7462210878575
0.896,0.8507503521291788,5892.032198285243
0.9,0.9285452631554573,5894.537962570198
0.904,1.0124439269610688,5901.154408896954
0.908,1.0905094450859294,5896.646942788674
0.912,1.1513097971948008,5908.772271216795
0.916,1.1860650668012584,5900.433981286251
0.92,1.1902685862256717,5893.447982969059
0.924,1.1642995836382006,5905.751066545163
0.928,1.1128899016535836,5900.103190609514
0.932,1.0437883040966902,5886.145575867479
0.936,0.9662386790844736,5901.3039248347895
0.94,0.8897855736369862,5904.709571607978
0.944,0.82353370169267,5908.338072283144
0.948,0.7755785409584678,5912.4504452396495
0.952,0.7522092999128922,5892.942764649082
0.956,0.7567977925718431,5894.989792406698
0.96,0.7887477678949568,5901.066944252114
0.964,0.8430525891071314,5902.1123658604565
0.968,0.9108203948350425,5900.325092716749
0.972,0.980815673363343,5898.253618684047
0.976,1.0417584568964002,5903.320273648568
0.98,1.0848186641667374,5896.1904151889685
0.984,1.105561578134335,5896.369853230182
0.988,1.10470452907002,5901.682366572713
0.992,1.0874450391089505,5900.44418748019
0.996,1.0616484253634004,5888.692963024397
1.0,1.0355870326166816,5907.064019169094
1.004,1.0160074728354742,5896.040433128317
1.008,1.00704001145811,5899.770235067471
1.012,1.0100268255814477,5893.380477948113
1.016,1.0239931992778708,5898.451968030003
1.02,1.0463602020382377,5904.227374611457
1.024,1.0735743099311885,5899.259179390585
1.028,1.1015452140499833,5906.234145703519
1.032,1.126017812984074,5896.66159866798
1.036,1.1430546388072829,5907.179952501515
1.04,1.14962637191961,5897.918052958727
1.044,1.1441085363112717,5900.499889036085
1.048,1.1264479553008875,5891.225354772959
1.052,1.097911972940123,5901.256945305589
1.056,1.060594426518679,5893.773815138073
1.06,1.0170515647783336,5896.614887185749
1.064,0.9703553680051487,5902.908037736442
1.068,0.9244706117757241,5894.589564370919
1.072,0.8844962991347866,5898.042808964144
1.076,0.8562953785149191,5904.520415161167
1.08,0.845377859631489,5899.319453408343
1.084,0.8553390691083872,5899.818319864627
1.088,0.8864498256865986,5887.651998536653
1.092,0.9350282037644353,5890.555836256672
1.096,0.9939372985398564,5905.350292591694
1.1,1.0540525003642938,5900.913011845657
1.104,1.1061345631869766,5897.297696404602
1.108,1.1424963344693408,5904.046873358378
1.112,1.1581210628393594,5900.289663567437
1.116,1.1512260794622045,5901.762621669908
1.12,1.1234664809002235,5899.353341468969
1.124,1.079957418156632,5902.200422785852
1.128,1.0290499842175678,5902.228696729566
1.132,0.9814714308663469,5896.58709031641
1.136,0.9483963818372023,5898.204336625036
1.14,0.9385346122191335,5900.620055420899
1.144,0.9551612453118506,5895.791440032129
1.148,0.9944563802741812,5890.433330450633
1.152,1.046075112173096,5900.966671873755
1.156,1.0958408859140847,5894.74766216615
1.16,1.1295868352401672,5904.73545476762
1.164,1.1368727650260784,5899.937379732177
1.168,1.113494831418225,5900.214504737793
1.172,1.0621782498843224,5892.399412476785
1.176,0.9914531926919139,5901.79830904103
1.18,0.9132617307886083,5900.845464070379
1.184,0.8401236727286973,5905.478079657933
1.188,0.7826554156859497,5897.676148707533
1.192,0.7479791827622232,5894.952910362184
1.196,0.7391742631224194,5896.763486587322
1.2,0.7555326095356192,5901.561911859718
1.204,0.7932021865434694,5898.09638667144
1.208,0.8459366279425384,5912.2853411489405
1.212,0.9059349257312067,5901.42589494928
1.216,0.96488412537573,5895.842676750171
1.22,1.0152233035357574,5898.423353529891
1.224,1.0514116037348658,5895.344641668075
1.228,1.0707915151361382,5896.692884865829
1.232,1.0736822990924126,5900.010136815912
1.236,1.0626353142346727,5891.609482957763
1.24,1.0411526050370616,5900.287587235863
1.244,1.0124083045352514,5909.183402132975
1.248,0.9785093590344428,5901.244729690508
1.252,0.940577712281471,5903.522144451634
1.256,0.8995314863187733,5895.840758153578
1.26,0.8571009777037273,5907.437308231632
1.264,0.8165261493328954,5906.868031614058
1.268,0.7825431843860416,5900.282797783543
1.272,0.7605540601594925,5898.3443557883365
1.276,0.7552015603794938,5897.712180225585
1.28,0.7688430641390464,5897.556092461499
1.284,0.8004805204609504,5905.739310415689
1.288,0.8455362463532887,5897.634551855067
1.292,0.896581984612005,5897.294831910679
1.296,0.9448285397748134,5902.782464780261
1.3,0.9819366055119259,5897.369530768839
1.304,1.0016335189184964,5907.571949248085
1.308,1.0007876306090295,5904.856148938055
1.312,0.9798801470835296,5902.534561632888
1.316,0.9429668225157923,5910.424947754862
1.32,0.8971377905858319,5894.297699098979
1.324,0.8513702415754189,5905.331719490793
1.328,0.8147860243332551,5902.508818719638
1.332,0.7946557334243257,5909.311114312172
1.336,0.7947513340099263,5902.779485019402
1.34,0.8146022360899341,5905.088646932348
1.344,0.8498872481707492,5902.474833907082
1.348,0.8938041779920073,5898.388824721051
1.352,0.9389336863209296,5899.500208860086
1.356,0.9789293152203196,5907.153406136427
1.36,1.009482887269873,5905.148593116886
1.364,1.0284616363966055,5901.063082582714
1.368,1.0355454233583985,5903.713612237044
1.372,1.0317696504849432,5896.097049682678
1.376,1.0191998967395084,5902.663883442651
1.38,1.0007873610600044,5900.324313701461
1.384,0.9803082719926549,5895.714004836879
1.388,0.9621561277011397,5898.468631907917
1.392,0.9507770205541032,5897.314842066536
1.396,0.9497685112688379,5896.236853816285
1.4,0.9608994352064855,5893.2222100987065
1.404,0.9833752377423715,5896.065122916875
1.408,1.0136275558367966,5893.04085426961
1.412,1.0458391341842186,5890.327799351627
1.416,1.0732597078031088,5891.535938007456
1.42,1.090069988037698,5897.064599466463
1.424,1.093253736868343,5894.1611444222535
1.428,1.083835721771625,5897.283747117245
1.432,1.0669816621874315,5892.1920883346365
1.436,1.0507714654080413,5895.730681198295
1.44,1.0438629724924455,5908.28485364086
1.444,1.0526588376281891,5899.942312565928
1.448,1.0788618817650284,5904.158162407049
1.452,1.1183383575005459,5900.313679456419
1.456,1.1618885189700896,5903.372393873057
1.46,1.1978281818866123,5900.137813078351
1.464,1.2154672324551,5902.257404332123
1.468,1.2081410903890704,5900.681725171005
1.472,1.1747607111383327,5891.040882296535
1.476,1.119666556136888,5899.8801278959645
1.48,1.0512543573010757,5896.239798041644
1.484,0.979991111825275,5906.302129853693
1.488,0.9162661832078077,5904.358613023954
1.492,0.8684186311012165,5903.6268416254825
1.496,0.8413106077936232,5894.939815739637
1.5,0.8357695199285734,5894.946740421892
1.504,0.8489745438080984,5896.319064121338
1.508,0.8755184068982137,5887.256111931087
1.512,0.9086725664212378,5896.221800576048
1.516,0.9414841690716146,5900.565135716469
1.52,0.9676173111202152,5895.269106673554
1.524,0.9820349586557658,5903.864892362818
1.528,0.9815911181518268,5889.4093092722
1.532,0.9654796794176748,5895.939571758233
1.536,0.9353913354450555,5903.920140165568
1.54,0.8952525692445088,5899.872158757689
1.544,0.8506071025986137,5907.442732421984
1.548,0.807883364613076,5903.208037308784
1.552,0.7737086069171694,5905.194128182841
1.556,0.754152956244479,5902.591148738012
1.56,0.753699518377769,5898.155628161149
1.564,0.7740167553834905,5901.178847958862
1.568,0.8130060090034936,5892.163107089824
1.572,0.8647246372633162,5901.724224171045
1.576,0.920483834128661,5899.657741411815
1.58,0.970880524894892,5900.340747030375
1.584,1.008109656046221,5897.373974715817
1.588,1.0278337223676177,5901.686328951324
1.592,1.0300958841756667,5899.05053809427
1.596,1.0190602509089493,5900.227187577073
1.6,1.00164976672036,5906.725754028676
1.604,0.9854585229078089,5905.133125246703
1.608,0.9766150513781985,5898.653964878166
1.612,0.9783608864719094,5901.754797642505
1.616,0.9907943332714243,5901.500595508286
1.62,1.0116322617582751,5899.431673131135
1.624,1.0373630944777554,5898.024901670128
1.628,1.064136598370989,5900.739377430114
1.632,1.0881530273816018,5906.541903846577
1.636,1.1058288503516511,5903.951820507609
1.64,1.114187116462829,5897.037337727687
1.644,1.1115973343140984,5898.264929603526
1.648,1.0984979271584807,5907.8853208912005
1.652,1.0775493945528232,5906.588430457281
1.656,1.0529399569131455,5901.756352390541
1.66,1.029059077745754,5903.694638433546
1.664,1.0091228600779205,5899.926223644083
1.668,0.9943759457810067,5903.66545705955
1.672,0.9842132799099801,5899.114010673449
1.676,0.9771246651354571,5903.802219528811
1.68,0.9719758861592136,5909.034324725043
1.684,0.9689633043676131,5910.858227213889
1.688,0.9696984306612313,5895.091411105409
1.692,0.9762905199850143,5894.51429454574
1.696,0.9898630740711184,5901.428146360876
1.7,1.0093732823665527,5902.605910266736
1.704,1.0315473865236602,5891.718558820993
1.708,1.0521006624863165,5899.475959576617
1.712,1.0675913978603055,5901.431724860997
1.716,1.0768785534723402,5901.545283415005
1.72,1.0814433660960223,5895.053518835044
1.724,1.0845138141738984,5894.496472276132
1.728,1.0895256810322276,5902.370485922441
1.732,1.0986436341208137,5890.171676967862
1.736,1.1118650640182766,5894.72446601165
1.74,1.1269132815515954,5913.578196128015
1.744,1.1398958270179245,5888.619876287587
1.748,1.1465135926687509,5900.679983845096
1.752,1.1434061545446026,5902.63041085707
1.756,1.1291369492321965,5903.258299595354
1.76,1.1044750876343168,5905.669817719259
1.764,1.0719480999276598,5897.982292792926
1.768,1.034959080069778,5902.812813872964
1.772,0.996929727253268,5907.803960442366
1.776,0.9608515961172079,5902.467862943617
1.78,0.9293509958890603,5900.533357198405
1.784,0.9050627847570681,5896.345686439856
1.788,0.8909018134685577,5901.992728439053
1.792,0.8898059062498959,5901.402703486006
1.796,0.9037633078349253,5897.294966353332
1.8,0.932379555281906,5905.293613901174
1.804,0.9716600885197727,5903.397295890959
1.808,1.0138104382686477,5895.032924080711
1.812,1.0485512026990846,5898.983032966357
1.816,1.0657867857463978,5902.263222175798
1.82,1.0587222995990615,5911.508470859382
1.824,1.026118477690174,5907.00943407148
1.828,0.9726826933044559,5902.2306522712925
1.832,0.9075367754317354,5903.28211191431
1.836,0.8416463820633252,5901.978471596835
1.84,0.7853676590213541,5905.356193286356
1.844,0.7467997496465497,5904.525261916374
1.848,0.7309706435422042,5905.902360248594
1.852,0.7395418732361962,5907.83805848369
1.856,0.7707591935578016,5893.165401410493
