时间(s),电压(V),幅值(高频80K)
0.0,0.9023084338659564,5899.481286164481
0.004,0.9454424829867795,5896.922511633964
0.008,0.9843407236646076,5896.31236637015
0.012,1.0145761200019556,5903.31980477588
0.016,1.033809347998941,5900.648483052381
0.02,1.0419079141896699,5897.346554533257
0.024,1.0406076605112278,5897.5821154064815
0.028,1.0331519685124009,5906.68203341252
0.032,1.0239415146965636,5894.909545703282
0.036,1.0179849007036124,5913.109233169443
0.04,1.0201196304246414,5890.346153952247
0.044,1.0342587775097367,5901.414096912999
0.048,1.0628901671899993,5903.409595142619
0.052,1.1067489943278153,5902.613386229204
0.056,1.1644133738988194,5894.480658860708
0.06,1.231761919483035,5901.288851234167
0.064,1.3016073910940786,5900.148085884516
0.068,1.3640568951955994,5900.757190551303
0.072,1.408000223660549,5897.491979918563
0.076,1.42358796409149,5896.307524673899
0.08,1.4049780892791086,5906.755153521436
0.084,1.352399045681828,5901.991526854449
0.088,1.2727366155991913,5904.421223672639
0.092,1.178258062821537,5894.1555325069085
0.096,1.0837189196042067,5904.459031196826
0.1,1.0028093014611918,5906.139250801039
0.104,0.9452297015471492,5894.779746829362
0.108,0.9153271161836974,5897.104843572895
0.112,0.9124163774357896,5901.578193441088
0.116,0.9322150663362677,5895.869823846512
0.12,0.968588908410953,5900.891048691257
0.124,1.014988341915546,5903.13161516697
0.128,1.0653009290548272,5897.390612082875
0.132,1.1141735740570586,5899.757536359573
0.136,1.1570940176335365,5889.487212312027
0.14,1.1905540160739798,5893.3055395980855
0.144,1.2123961508497134,5904.97542251933
0.148,1.222151279177053,5901.461321994825
0.152,1.2210898317788625,5895.789000675887
0.156,1.2119015669061535,5894.127851848968
0.16,1.1981462121453015,5902.535010324485
0.164,1.1836356627950855,5900.65334899391
0.168,1.1717675682112836,5897.773698072815
0.172,1.164803216640706,5894.971510119856
0.176,1.1632767885663615,5897.671712476319
0.18,1.1658784438777645,5899.084321962533
0.184,1.1699734907613313,5890.041631872362
0.188,1.1725143574218806,5896.91813793981
0.192,1.1708881264454605,5889.254167163105
0.196,1.1634321268202974,5901.955102000823
0.2,1.1497056253070874,5901.896859473842
0.204,1.1307203533895656,5904.424014230042
0.208,1.1091000068902026,5906.67305744059
0.212,1.0888730258908483,5904.29585219465
0.216,1.0746602406371477,5893.81431517357
0.22,1.0703873943929527,5896.36690006157
0.224,1.0779945078816855,5895.922176731794
0.228,1.0966670758374788,5903.577321774082
0.232,1.1229132173948513,5900.321719199131
0.236,1.1515028647950376,5895.066609794483
0.24,1.1769539424241642,5895.66287745877
0.244,1.1950098151392272,5904.994405936176
0.248,1.2035697141557513,5900.544219283623
0.252,1.202838350492101,5900.24948989385
0.256,1.1948366095654013,5897.235375623006
0.26,1.1825861075059372,5903.874471672261
0.264,1.169205945658172,5898.559080887346
0.268,1.1570604841490213,5903.097855336466
0.272,1.147140157923662,5887.815465706346
0.276,1.1389356722640456,5905.977593262664
0.28,1.1309593407210217,5896.352793238486
0.284,1.1217511819157127,5902.408762997055
0.288,1.1109130148479172,5901.193162898082
0.292,1.0996746117145315,5913.454987517259
0.296,1.0907183509654836,5897.319933382492
0.3,1.0873182592566342,5890.269508002722
0.304,1.0921415799441998,5893.3263177959925
0.308,1.1062134493997529,5902.657280350251
0.312,1.1284658687847184,5895.008456083151
0.316,1.1559715107250477,5903.357304779028
0.32,1.1846018897994652,5895.839757219513
0.324,1.2097506468168753,5900.017958437264
0.328,1.2269600355117083,5910.117634209622
0.332,1.2324792949940546,5901.610940141506
0.336,1.223762406287624,5897.944642580998
0.34,1.1998235796128436,5899.806929056101
0.344,1.161405433819211,5902.41892488614
0.348,1.1110159439474223,5902.254242107922
0.352,1.0528790887343944,5902.17143513746
0.356,0.9927196893235669,5896.240433122989
0.36,0.937225405265245,5891.471157361305
0.364,0.8930982913934004,5895.935595948958
0.368,0.8657975787203419,5897.00637589248
0.372,0.8583052459116741,5898.596052350541
0.376,0.8704001232595073,5891.909960884706
0.38,0.8988468732805951,5893.206267977041
0.384,0.9385314648871587,5903.0582787401545
0.388,0.9840947626165992,5908.1140399959495
0.392,1.031361462137046,5898.733785574725
0.396,1.0780138114053295,5895.452092593927
0.4,1.1233903424164513,5895.506111776616
0.404,1.1676609459121114,5898.247164300806
0.408,1.2107235685561237,5902.65694673045
0.412,1.251125774667335,5901.583177990033
0.416,1.2853815426150517,5900.5543768073885
0.42,1.3081547850957536,5901.791660983674
0.424,1.3135943208644603,5895.928775021056
0.428,1.2975398253854487,5896.225629961762
0.432,1.2597273852931727,5894.813545637428
0.436,1.2049714931228632,5897.1027715908285
0.44,1.142703475290552,5897.219009777011
0.444,1.0849143578429363,5911.612943592684
0.448,1.0431192568796803,5895.713386278149
0.452,1.0252745100623586,5898.902797949765
0.456,1.033647822725786,5895.3998595271
0.46,1.064428689369994,5902.39901558194
0.464,1.1092849677306336,5906.590956556812
0.468,1.1582535730648746,5902.015501093206
0.472,1.2027451139903995,5894.567963632843
0.476,1.237465033777285,5894.552205925306
0.48,1.2606953712502105,5899.636432555169
0.484,1.2732087223790192,5898.231381618011
0.488,1.276628459268618,5897.172683888639
0.492,1.27210634756309,5908.069989362859
0.496,1.2598533187670578,5903.627302642171
0.5,1.2395734004888856,5899.514334276214
0.504,1.2114438946093982,5891.422446635856
0.508,1.1770895810130333,5899.157291822352
0.512,1.1400456463823694,5904.972884439012
0.516,1.1054310870555915,5896.014583170822
0.52,1.0788574078831286,5901.505655803948
0.524,1.064906417441261,5892.1156707828
0.528,1.0657549465560492,5908.591239786257
0.532,1.0805405960104626,5902.288998304764
0.536,1.1057191633374377,5900.815409473263
0.54,1.1361441952555948,5904.486138763855
0.544,1.1663268879375523,5898.851662153102
0.548,1.1914712653049044,5899.503817949247
0.552,1.2081547629860543,5889.792674245893
0.556,1.2146779510429384,5896.780311168914
0.56,1.2111487571483404,5902.702746661675
0.5640000000000001,1.199347585252843,5905.121107192594
0.5680000000000001,1.1823398394074214,5898.629881709643
0.5720000000000001,1.1637758288641504,5900.259366794006
0.5760000000000001,1.1469852222631896,5890.801478654617
0.58,1.134210064935463,5902.470252199511
0.584,1.126329407609998,5908.498775955561
0.588,1.123154144664617,5901.370328680378
0.592,1.1240570415521485,5886.499733673434
0.596,1.1285566849506996,5899.542206432221
0.6,1.1365283662111365,5909.875963897938
0.604,1.1479337383918264,5894.244729680598
0.608,1.162240695936011,5894.70584319348
0.612,1.1778796791342723,5902.668943895394
0.616,1.1920629304279962,5900.07952091332
0.62,1.201123777976372,5890.738574735852
0.624,1.2013172703283606,5904.051689618563
0.628,1.1898515998491968,5889.51582187696
0.632,1.1658300943562627,5895.702777917889
0.636,1.1307705520655686,5895.103088725444
0.64,1.0884413443243879,5904.394904609133
0.644,1.0439482471976755,5904.791744215442
0.648,1.0023080126957413,5906.915605940897
0.652,0.9670258846763381,5901.46464962717
0.656,0.9392684648335403,5898.608750976596
0.66,0.9179866557022462,5902.163867537535
0.664,0.9008922223500719,5903.379833686387
0.668,0.8858091280060615,5908.355455486058
0.672,0.8718356490409644,5886.709083439922
0.676,0.8598971253258998,5904.683902046623
0.68,0.8524608906805891,5899.446205394063
0.684,0.8524576232842443,5899.721214292888
0.6880000000000001,0.8618656458368456,5909.087579619796
0.6920000000000001,0.8806948959343992,5902.18640639677
0.6960000000000001,0.9069117254769433,5896.990539239454
0.7000000000000001,0.9372675812015853,5901.876949244436
0.704,0.9684888860487103,5900.849775317292
0.708,0.9981870052899594,5901.072779617843
0.712,1.0251488013871601,5900.217065060454
0.716,1.0491136599688025,5896.187890668824
0.72,1.0704045842853949,5905.174128497206
0.724,1.0896931488715136,5901.607245255757
0.728,1.107881994854434,5903.097381860264
0.732,1.12588523122413,5900.932602982036
0.736,1.1441581252483684,5900.114598383871
0.74,1.1621121360320386,5897.82961761092
0.744,1.1778033121007754,5908.360847107897
0.748,1.1882415661024268,5901.623228793414
0.752,1.1902979638822637,5900.464834241968
0.756,1.1817621123536468,5896.793122479928
0.76,1.1619884297429377,5899.712134966712
0.764,1.131875774981596,5909.599797546336
0.768,1.0933836776719659,5901.21109068288
0.772,1.0490293407778872,5900.416939642161
0.776,1.0017218737606794,5904.265075783296
0.78,0.9550300269553933,5901.028870973389
0.784,0.91366982949428,5896.168158109896
0.788,0.8836867998033437,5909.337761713976
0.792,0.8717141444087071,5902.681918315063
0.796,0.8830988312083586,5900.858710908439
0.8,0.919479945473335,5895.178103338109
0.804,0.9769955854738982,5904.508016954762
0.808,1.0462002717169447,5900.227626472472
0.812,1.114047384512432,5904.453706225419
0.8160000000000001,1.1673622396315242,5898.100439189303
0.8200000000000001,1.1965499721212958,5889.912977106721
0.8240000000000001,1.1981634689520646,5906.617338011588
0.8280000000000001,1.1754632707553923,5899.53735258178
0.8320000000000001,1.1369500091371492,5902.184279430802
0.836,1.0936003708781319,5898.846384745691
0.84,1.055875624363138,5890.505390082717
0.844,1.0314196061624306,5899.520052445265
0.848,1.0238912800936453,5895.886559512859
0.852,1.0328927829459755,5906.496766729105
0.856,1.0546761669727027,5904.030483478022
0.86,1.0832763753749513,5901.410612931528
0.864,1.1118341774876046,5905.058314074581
0.868,1.1339811247868539,5901.143566989958
0.872,1.1451172554846085,5898.710915729984
0.876,1.1432475991104785,5903.473209804207
0.88,1.1290013041799778,5895.078693783714
0.884,1.1047760686663701,5899.122077634512
0.888,1.0734969156883507,5900.405500184897
0.892,1.0377687457067204,5908.664028789182
0.896,0.9999307959565722,5909.343469895252
0.9,0.9628860434295431,5901.679867327663
0.904,0.9310160837097756,5904.204433794892
0.908,0.9103260458517018,5896.023706544942
0.912,0.9073078130770416,5892.699702175493
0.916,0.9267192553036661,5907.79062523452
0.92,0.9691628293901053,5904.241184855951
0.924,1.0296077369700825,5907.840905232138
0.928,1.097685980506753,5911.067436833773
0.932,1.1598681658919379,5902.316324642795
0.936,1.202867189508628,5904.119017648492
0.94,1.2171867065584676,5905.530651133599
0.944,1.1997285869570715,5896.121890858691
0.948,1.1546801054562705,5901.324162970909
0.952,1.0924072424103486,5894.409903507944
0.956,1.026700542144122,5897.133371841224
0.96,0.9712492807586516,5900.055446275934
0.964,0.9364154762230584,5895.633543208527
0.968,0.9271797853394345,5900.111697128733
0.972,0.942671377534527,5904.681669306476
0.976,0.9771758096171492,5901.920830130143
0.98,1.022117170612534,5899.761393014584
0.984,1.0683429236892312,5896.654137279577
0.988,1.1081147674440068,5900.405312863597
0.992,1.1364240089383801,5906.102241662927
0.996,1.1514653752446204,5902.893655122872
1.0,1.154296293981104,5901.967877092182
1.004,1.1479262543339568,5902.3422860138935
1.008,1.1362427771661392,5888.4434692667055
1.012,1.123143654167059,5900.910181303025
1.016,1.112028980535775,5897.620265069328
1.02,1.105573924673358,5894.754424729957
1.024,1.1055812994721697,5898.914821504167
1.028,1.112748688760822,5903.443129836726
1.032,1.1263676429255285,5894.128450023216
1.036,1.1441784641000772,5889.728550212534
1.04,1.1626299785368974,5904.823673912652
1.044,1.1775780445966388,5902.347600951193
1.048,1.1851914268771866,5893.957502100454
1.052,1.182761824356654,5901.504867916414
1.056,1.169244819517714,5899.125134436639
1.06,1.145473374286696,5907.2592653970805
1.064,1.113984990126344,5898.364312485259
1.068,1.0784620046549622,5905.95695340582
1.072,1.0429909351326891,5903.429646360526
1.076,1.0114618943826836,5890.380680685862
1.08,0.9872711849640199,5898.627129142291
1.084,0.9732381627784306,5905.213832708
1.088,0.9715308791920996,5904.772510394935
1.092,0.98343423865492,5904.982876297054
1.096,1.0089372973469402,5898.871669938364
1.1,1.0463062910019638,5893.938236915236
1.104,1.0919186191882244,5895.9541754338015
1.108,1.1405417440377799,5897.5372143814175
1.112,1.1860099349203639,5901.716671047835
1.116,1.2221016971189262,5902.3895106588025
1.12,1.2434572098623022,5897.889575707329
1.124,1.2464375521269107,5895.030725871961
1.128,1.2297724426207537,5896.754078641647
1.132,1.1948006572625034,5899.747774398038
1.136,1.1452361165385712,5889.3160106431205
1.14,1.0865888493859512,5901.167921856183
1.144,1.0254411893448547,5903.253587828608
1.148,0.9687109562291935,5897.174907301594
1.152,0.9229172963752874,5895.861190148728
1.156,0.8933733047490382,5906.952908205614
1.16,0.8832595003614859,5901.369554353635
1.164,0.8927528483587197,5894.253282930934
1.168,0.9186486636937234,5900.406343987497
1.172,0.9549055895243648,5903.559456183261
1.176,0.9941423927495624,5900.59421889455
1.18,1.0295716363985121,5897.896145001825
1.184,1.056575593783774,5902.418308849416
1.188,1.0733183508518058,5911.256859680384
1.192,1.080303018231529,5901.93540076228
1.196,1.0792820224191655,5899.450714328773
1.2,1.07214735748892,5893.523231555401
1.204,1.0603211972464155,5900.022948712769
1.208,1.044836870401275,5909.868815442044
1.212,1.0269066612301423,5902.935809429099
1.216,1.0085131412589958,5893.561984362504
1.22,0.9925819596788554,5907.448789383421
1.224,0.9825630568992361,5898.79865681462
1.228,0.9815716467991439,5903.756310307628
1.232,0.9914488006328505,5912.34529272939
1.236,1.0121399980389143,5892.484933418449
1.24,1.0416586133474428,5902.754789880776
1.244,1.076634932229509,5894.983270159654
1.248,1.1131803359658392,5902.756373465805
1.252,1.1476879246414085,5903.084065308357
1.256,1.177288461234852,5901.803359575863
1.26,1.199882950553304,5894.931485476139
1.264,1.2138726177446517,5888.785890301026
1.268,1.2178554213591863,5910.203845720688
1.272,1.210594732139166,5897.956615342171
1.276,1.1914133172244494,5884.686242455456
1.28,1.1608741038892458,5908.880211409244
1.284,1.1213774759727848,5893.449044967294
1.288,1.077275857195056,5903.293870313474
1.292,1.0342619363019139,5903.021191657079
1.296,0.9980712668805494,5910.696630796911
1.3,0.9729017425134746,5903.282499743869
1.304,0.9602238739884971,5903.162654753511
1.308,0.9585798186690071,5894.3965425012975
1.312,0.9644816050943192,5893.343490595272
1.316,0.9739312880061916,5903.027788932959
1.32,0.9838296420909061,5905.668661260271
1.324,0.9927221515880655,5910.00457539832
1.328,1.00069757235205,5903.677316950741
1.332,1.0085914593636822,5895.5563449734245
1.336,1.0169414688411456,5903.5406096975785
1.34,1.025304835167515,5897.134418606534
1.344,1.0323662081073468,5891.103762489384
1.348,1.0367559354202276,5893.807828660343
1.352,1.0380274840730943,5888.136851284631
1.356,1.0371482609724019,5896.062335510167
1.36,1.0361706286344534,5903.669492941503
1.364,1.0372471130436622,5890.487617138504
1.368,1.0415261867556207,5903.053088348038
1.372,1.0484839458096857,5897.184095859537
1.376,1.055946806709162,5897.476072308071
1.38,1.060719481810643,5904.273690729102
1.384,1.0595825813695194,5902.816436910136
1.388,1.0504355749592031,5898.361363029174
1.392,1.0333563579920841,5897.117172966723
1.396,1.0112601274672135,5905.316405506166
1.4,0.9897889853295039,5899.600237786598
1.404,0.9762016635424714,5900.731126696624
1.408,0.9773809570432404,5900.832003626153
1.412,0.9975124986260815,5903.826230534396
1.416,1.0362846068836638,5896.16445365507
1.42,1.088381623336291,5900.667504721459
1.424,1.1445625257844958,5900.483442252624
1.428,1.193981327346195,5900.731089090694
1.432,1.2269563640886048,5900.8577692652525
1.436,1.2373315481271894,5900.322770978044
1.44,1.223840244046574,5900.972883506055
1.444,1.1902476652868919,5892.685356159136
1.448,1.144320547128052,5904.742103952623
1.452,1.0958441137473711,5900.910111290908
1.456,1.054078726915507,5909.925193149414
1.46,1.0252837954128118,5902.598616915911
1.464,1.0111250949893635,5913.338455027021
1.468,1.0086700425029604,5905.126925496074
1.472,1.0121294512375714,5898.968602385789
1.476,1.0157275612351369,5898.213696879415
1.48,1.0164911692190277,5895.546595532098
1.484,1.0156825099814597,5902.154585969687
1.488,1.0181603423415841,5900.046260108861
1.492,1.0299398949855176,5910.849048306479
1.496,1.055130619430194,5894.236915015674
1.5,1.0937009920853433,5891.187499168771
1.504,1.1409949844402612,5904.536003289818
1.508,1.1890122632078508,5898.646441755842
1.512,1.228742273242351,5901.649555182632
1.516,1.252598898751938,5886.467859122882
1.52,1.2561773198398187,5889.492247722599
1.524,1.238941923495477,5900.596976574372
1.528,1.2038658416350518,5894.081004415669
1.532,1.156362395511333,5903.824323885491
1.536,1.1029987010749789,5902.2395389075
1.54,1.0504034547060044,5904.101443823059
1.544,1.0045112120746764,5898.325445497653
1.548,0.9700264614897495,5895.993774190311
1.552,0.9499798057397356,5897.110218246722
1.556,0.9454646081725228,5911.407910369244
1.56,0.9557667611724424,5902.495885089702
1.564,0.9789109332354333,5902.705253678136
1.568,1.0123124616055836,5896.379242367276
1.572,1.0530979332148365,5901.240078039488
1.576,1.0979125792104008,5890.259365669382
1.58,1.142511002285787,5902.028765400021
1.584,1.1817299301063553,5897.408034658664
1.588,1.2102387571394855,5881.840161503828
1.592,1.223857685913912,5898.180967948234
1.596,1.2207397838184006,5895.526979876056
1.6,1.201755836544928,5902.956533508936
1.604,1.1699123816422419,5898.139995650971
1.608,1.1291655226267296,5889.829686656432
1.612,1.0832746001229174,5901.821465886597
1.616,1.0352675554078254,5906.727495114557
1.62,0.9876524127499512,5899.761546319767
1.624,0.9429375948513516,5898.240358558504
1.628,0.9037964145586806,5896.804628620329
1.632,0.872564369368384,5892.253455736595
1.636,0.8503575863995145,5906.095932769975
1.64,0.8364275751383775,5900.575525900079
1.644,0.8282554610186008,5898.116421732717
1.648,0.822522521923659,5895.6790823386245
1.652,0.816672169942855,5895.386379622892
1.656,0.8104228988612329,5902.795333583925
1.66,0.8064704789682103,5898.23700993001
1.664,0.8098804873372439,5906.552419041293
1.668,0.8262491421138197,5895.516811373588
1.672,0.8593116626517069,5899.438454304608
1.676,0.9089779823656902,5897.618639528287
1.68,0.9706128678021037,5895.388933567751
1.684,1.0358698460985278,5898.636581709866
1.688,1.0948199492911448,5906.892829425508
1.692,1.1386759714648957,5902.754667858483
1.696,1.1621772943900013,5900.355763008213
1.7,1.1647876875066885,5898.456502696636
1.704,1.1503243954147189,5905.872577105527
1.708,1.1252744034594073,5904.025725366664
1.712,1.0965260209502605,5910.654588994776
1.716,1.0693638038650604,5898.442942519987
1.72,1.046356071016381,5899.109821616433
1.724,1.027330988843229,5896.786391583712
1.728,1.0101955811088745,5907.231201528999
1.732,0.9921170753096612,5897.560060939495
1.736,0.9706137793272936,5893.455387897879
1.74,0.9442819709921771,5895.992581069226
1.744,0.9130979821529097,5889.289096082783
1.748,0.8783995285632733,5895.087301119055
1.752,0.8427000648970467,5899.177236425712
1.756,0.8094228117125433,5892.581037071222
1.76,0.782516918261465,5900.744973068498
1.764,0.7658302287594044,5903.558820447272
1.768,0.7621904693069405,5902.602594612638
1.772,0.7724159704629128,5901.616206422743
1.776,0.7947263254889454,5899.642525571411
1.78,0.8249792248587225,5896.191893053581
1.784,0.857785558825668,5900.538278582751
1.788,0.888090001978336,5899.709752892051
1.792,0.912550282433784,5901.640358571528
1.796,0.9301477576973205,5898.135968859045
1.8,0.9418286598899669,5899.130407905579
1.804,0.9494080366894581,5897.192938738793
1.808,0.9543014240921793,5901.594433236905
1.812,0.9567376837158206,5896.902377988967
1.816,0.9558156602602126,5901.65243913266
1.82,0.9502235012567014,5906.35221345609
1.824,0.9390938562083319,5903.743611147428
1.828,0.9225763812161489,5911.854404300927
1.832,0.9019918635002219,5898.64852000168
1.836,0.8795619520052497,5897.166886442653
1.84,0.8577768511590959,5905.912010739483
1.844,0.8386494005222103,5895.190011752724
1.848,0.823245748820895,5905.324740267441
1.852,0.8117219335149127,5904.946754769331
1.856,0.803708959958364,5897.391680539288
1.86,0.798632955170185,5896.664203909526
