时间(s),电压(V),幅值(高频80K)
0.0,1.2030187812566893,5901.27784905378
0.004,1.1929352255231163,5891.02965833424
0.008,1.1824905106932877,5899.459468898809
0.012,1.17173690949451,5893.346480503257
0.016,1.1603214488007079,5908.518471572889
0.02,1.1474413237554135,5904.402663523714
0.024,1.1319355640523259,5897.29563595224
0.028,1.1125920576807105,5906.901125432415
0.032,1.0886142625888653,5903.591148743021
0.036,1.0601638821235748,5908.982468572204
0.04,1.0289158103811467,5900.366021380556
0.044,0.9984161345407313,5898.250185443347
0.048,0.973803475815886,5901.064816148976
0.052,0.9605606077515151,5907.047908110234
0.056,0.9625953583761636,5898.70433206787
0.06,0.9806307427675882,5909.347034209375
0.064,1.0118890923146866,5902.574473611136
0.068,1.0512344429529343,5906.506166896002
0.072,1.0929659495790667,5907.184953728896
0.076,1.1321792376415951,5902.469333440628
0.08,1.1651726887956788,5899.940731351312
0.084,1.1891313407901205,5903.8891859507385
0.088,1.2016491747713398,5899.88124180717
0.092,1.2005222725725615,5899.110600556194
0.096,1.1839851881521153,5897.3271920596335
0.1,1.1513754546933557,5901.058652678347
0.104,1.1040633721328221,5894.079773671558
0.108,1.0462865510759871,5900.8906608202005
0.112,0.9853465576007348,5900.402255510567
0.116,0.9306959682010414,5908.715502545306
0.12,0.8919099398581397,5904.686889384707
0.124,0.8761609594133083,5902.556274947569
0.128,0.8861239338433505,5899.798535944858
0.132,0.9190239039248105,5893.935603526579
0.136,0.9670727957002694,5901.782266074044
0.14,1.0191605334469034,5896.344872391464
0.144,1.0633784189162703,5894.979493062373
0.148,1.0896810366645049,5904.26692431171
0.152,1.0919074032660772,5893.177673414626
0.156,1.0686738031461325,5898.461162981694
0.16,1.0231628321780417,5901.768344936924
0.164,0.9621798203377594,5909.125150403482
0.168,0.8948367174985268,5898.2060434881005
0.172,0.8310403379169518,5899.064004397516
0.176,0.7799059811623933,5901.319912156376
0.18,0.7483228176645105,5895.414851533147
0.184,0.7399568391834682,5899.150586108636
0.188,0.7548702331409561,5896.673793246183
0.192,0.789741938595289,5891.791369564838
0.196,0.8385347494556481,5896.30153206375
0.2,0.8934478266518623,5912.006533417207
0.204,0.9460831785489525,5895.571676754543
0.208,0.9888209712184967,5898.654767457964
0.212,1.0163237461628032,5902.526720661277
0.216,1.0268583840389003,5902.287063876267
0.22,1.0229148275468058,5904.364042565338
0.224,1.0106757953066157,5908.91622607126
0.228,0.9983047605956439,5901.068569778559
0.232,0.9935320551263928,5891.225237583138
0.236,1.0013460380592114,5900.027357320542
0.24,1.0225968990047576,5891.490906802338
0.244,1.0539807195084672,5902.483412092368
0.248,1.089315550157479,5908.469321213885
0.252,1.1215410628186517,5896.21387221091
0.256,1.1447145644031305,5902.591499343564
0.26,1.1554178966197286,5892.476584184879
0.264,1.1532762353769517,5901.246662064443
0.268,1.1406098668658544,5897.353679644992
0.272,1.1214801601267217,5895.711036831524
0.276,1.1004618442729903,5898.473367874711
0.28,1.0814392409788836,5900.803053791585
0.284,1.0667022566216657,5902.011159729676
0.288,1.0565898456438692,5893.496497740792
0.292,1.0498048915425902,5897.567203691401
0.296,1.0443094489878275,5896.488352932783
0.3,1.0384868810212073,5908.120221102835
0.304,1.0321151563184032,5897.707600011703
0.308,1.0267115570268848,5907.263115028071
0.312,1.0250248757458373,5901.752143636746
0.316,1.0298247724133487,5905.086129798036
0.32,1.0425121038649743,5904.288774978685
0.324,1.062220201507686,5900.953211511369
0.328,1.0858717348948603,5903.120703993774
0.332,1.1092002635972402,5903.443575500288
0.336,1.12827808940606,5897.69476980597
0.34,1.1408521360022725,5897.123171153398
0.344,1.146903875328512,5895.49627799674
0.348,1.1482389434507687,5902.808073971278
0.352,1.1473685062877745,5899.333214248131
0.356,1.1462655377324689,5904.264524798274
0.36,1.145589639564149,5893.398158422161
0.364,1.144641334717619,5896.582159287086
0.368,1.1418892043255298,5899.532707025093
0.372,1.1357233939707176,5904.706315158519
0.376,1.1251425698730728,5901.363656810085
0.38,1.1101943521237503,5900.428855969572
0.384,1.0920778187622588,5897.117838238447
0.388,1.0729149022589255,5903.58413617281
0.392,1.05530855448826,5900.923137651429
0.396,1.041873561131096,5904.339197540029
0.4,1.034896325217895,5901.959658487824
0.404,1.0361446804345857,5903.920886738044
0.408,1.0466961958950256,5904.728286020438
0.412,1.0666423869934105,5895.230685153227
0.416,1.094703233449655,5893.325044250098
0.42,1.1279950374682552,5901.010371788679
0.424,1.1622457724459176,5890.667947058103
0.428,1.1925834923629361,5893.982249209009
0.432,1.2147070240316866,5906.610572878095
0.436,1.2259849541697656,5898.992282244846
0.44,1.2260449829859943,5898.692338485899
0.444,1.2167069805498385,5895.078285565625
0.448,1.201418015927708,5889.278505214358
0.452,1.1844600221094204,5897.5929776516
0.456,1.170142327996872,5902.704321833304
0.46,1.1620819135429699,5898.777123982732
0.464,1.162608643369166,5901.043420625768
0.468,1.172333531008645,5901.073746888394
0.472,1.1899367879112026,5899.067871376308
0.476,1.2122375015358469,5902.531041627392
0.48,1.2345971656195445,5903.240384867687
0.484,1.2516640319423367,5902.24628586914
0.488,1.2583981665805546,5903.361998389627
0.492,1.2512593093619118,5903.42382747874
0.496,1.2293395074444096,5893.712106572252
0.5,1.1950634977833443,5894.018786207842
0.504,1.1540288249116504,5899.641332788339
0.508,1.1137921888300342,5896.585575298022
0.512,1.081865945026312,5898.079438428104
0.516,1.0635963862400921,5898.207279992664
0.52,1.0606980699526904,5898.04422398402
0.524,1.0709490406568865,5903.726826080784
0.528,1.089055496428845,5895.247860654838
0.532,1.108247061949871,5904.4239169480015
0.536,1.1220059448783701,5904.700997637407
0.54,1.1254777004484813,5898.663372013712
0.544,1.1163481677191578,5897.904045275281
0.548,1.0951363358017479,5904.559618534806
0.552,1.0649737763149076,5895.302782268607
0.556,1.0310350870255052,5896.318440326934
0.56,0.9997504809742429,5897.5119870990375
0.5640000000000001,0.9777911809276831,5887.063255698405
0.5680000000000001,0.9707902394701632,5900.596399130358
0.5720000000000001,0.9819584429824801,5902.486361796941
0.5760000000000001,1.011004327128765,5887.64813266123
0.58,1.0538268713959547,5891.577573225758
0.584,1.103247132002955,5903.382040900368
0.588,1.150663719597753,5895.801653886391
0.592,1.1881202224659713,5900.609220487653
0.596,1.2100972788592979,5891.5951949332375
0.6,1.2145304293527466,5892.400181240491
0.604,1.2029401135246232,5891.43979641422
0.608,1.1798304247556377,5905.214424555011
0.612,1.1515584758203325,5901.982668845956
0.616,1.1248320106294847,5904.41238208386
0.62,1.105046146416298,5903.166349488545
0.624,1.0948593786739307,5896.731255944085
0.628,1.0935389116212906,5893.127167224487
0.632,1.0974418468847478,5894.482777036585
0.636,1.1015655916997065,5903.012595060732
0.64,1.101647558286048,5912.560673004192
0.644,1.0960246252092662,5903.163760240991
0.648,1.0864528918055223,5899.285988535463
0.652,1.0773994580554898,5893.922251479991
0.656,1.073968812268632,5898.9299287184695
0.66,1.0793709441699808,5896.79720697188
0.664,1.0931707140132279,5893.897224893796
0.668,1.1111683358192255,5903.782989137864
0.672,1.1269097667745978,5909.046406450517
0.676,1.1340918440888348,5909.169082722633
0.68,1.128863218712331,5903.1201941212885
0.684,1.1111909685364718,5899.835000685317
0.6880000000000001,1.0848706006843312,5898.6127773523785
0.6920000000000001,1.0562439032505058,5901.942280005759
0.6960000000000001,1.0321271493048463,5895.766832474985
0.7000000000000001,1.0177143315296688,5897.015691698531
0.704,1.01520076177788,5898.73948725207
0.708,1.023563872190854,5902.99503606265
0.712,1.0394666857331594,5898.177980123357
0.716,1.0587920097829886,5897.448949302112
0.72,1.0780576322207802,5898.9870079468055
0.724,1.0950963987696267,5904.9373387629785
0.728,1.1089031323535192,5894.686533488992
0.732,1.1190782814329183,5894.969523000587
0.736,1.1254111130789404,5903.09618015228
0.74,1.1278384317793735,5907.246231783399
0.744,1.1266456583018287,5898.1726842555145
0.748,1.1226204247490235,5896.679108915736
0.752,1.1169354499543493,5907.026141554013
0.756,1.1107409536479502,5896.638960231014
0.76,1.1046959670674825,5895.861090792752
0.764,1.0987897753578253,5895.776126023273
0.768,1.0926383723752122,5904.5481228917215
0.772,1.086088236822074,5898.573889307455
0.776,1.0797180654876866,5908.2198287466135
0.78,1.0748489050233416,5894.206537092736
0.784,1.072903755946189,5904.179405875801
0.788,1.074321772395441,5907.548671060968
0.792,1.0775897480395296,5905.779743032824
0.796,1.0790458903453664,5893.155184163046
0.8,1.0737944914635429,5892.502973139618
0.804,1.057515905979693,5897.738896955591
0.808,1.0284853409963028,5894.067934103627
0.812,0.9889357502578942,5889.889972357362
0.8160000000000001,0.9450759774648182,5898.628491979938
0.8200000000000001,0.9055768660833023,5901.142496354883
0.8240000000000001,0.8789989990200132,5903.2206963382005
0.8280000000000001,0.8711313051357877,5904.260218089106
0.8320000000000001,0.8832454724275669,5903.528936533335
0.836,0.9118472840966406,5903.432719293253
0.84,0.9499177645170044,5897.282000333991
0.844,0.9891666987503259,5898.981998716977
0.848,1.022543802918568,5909.921601844321
0.852,1.046163924442652,5892.742632821271
0.856,1.0599647052073315,5901.775347206906
0.86,1.0668751638215266,5910.671424179293
0.864,1.0708789839088053,5894.359512475768
0.868,1.0747989250952257,5893.877507517907
0.872,1.0787243369597888,5894.540965298713
0.876,1.0797694368034836,5907.688138620776
0.88,1.0733483087514666,5906.278559018519
0.884,1.055506319215454,5899.229387748629
0.888,1.0253266275795725,5897.767054810569
0.892,0.9863033684691755,5902.259552054736
0.896,0.9459285522878862,5901.107011099504
0.9,0.913472524683783,5902.94152341338
0.904,0.8967635225873007,5901.097932066567
0.908,0.8992875174661755,5890.011994298584
0.912,0.9188450127072705,5899.897649900574
0.916,0.9483551473681652,5901.699091521863
0.92,0.978496260439965,5902.233631303584
0.924,1.0010940952064935,5899.8606238788
0.928,1.0118633111118955,5899.131143838513
0.932,1.0114563499011855,5889.926044439036
0.936,1.0045898762518573,5904.175240245392
0.94,0.9978412101502886,5894.590009553603
0.944,0.9971533443220557,5902.004782310693
0.948,1.0060414455603548,5904.292439661924
0.952,1.0250505315913272,5896.134211494931
0.956,1.0523921139348842,5898.19091685536
0.96,1.0851631528664372,5897.042807576862
0.964,1.1203739844673266,5904.20256717272
0.968,1.155296850423505,5900.394012867943
0.972,1.1872274811791068,5891.781210615712
0.976,1.2131884962661807,5899.130656789006
0.98,1.2300426062514274,5906.335596135648
0.984,1.235056943737198,5897.738542429868
0.988,1.2266239280717788,5899.322312569174
0.992,1.2048273020216191,5896.285488876003
0.996,1.1716894243525235,5892.579036100133
1.0,1.1310596217287774,5909.880598555367
1.004,1.0881631706430592,5896.139088708182
1.008,1.04882395994499,5891.0114598243335
1.012,1.0183644051744472,5889.958391461623
1.016,1.000327968002138,5903.729837975775
1.02,0.9954502263215075,5909.047272349477
1.024,1.0014290267595893,5898.8947168585455
1.028,1.0137635427932448,5899.743137184254
1.032,1.0273617071595982,5903.752709134861
1.036,1.038164959788302,5899.086028131671
1.04,1.0440656427021144,5898.788706018783
1.044,1.0448769128406008,5896.871508761884
1.048,1.0416720397935255,5895.486919087158
1.052,1.0360344737219518,5905.51429312941
1.056,1.0295606348112887,5896.97292362142
1.06,1.0236140821471282,5897.795199468946
1.064,1.0192009650628124,5893.095333443984
1.068,1.0169361207651517,5896.389729147731
1.072,1.0171113121804847,5894.866162118515
1.076,1.0197776772886713,5898.115339313427
1.08,1.0247339613794992,5894.901865073866
1.084,1.0314606182882537,5895.399612396559
1.088,1.0391484527156707,5900.640784296377
1.092,1.0468783906458061,5909.748876963096
1.096,1.0538580617644102,5902.762976118899
1.1,1.0596109232820594,5897.961895640305
1.104,1.0640815810122581,5909.694185409615
1.108,1.0676108556865698,5905.025994321926
1.112,1.0707248074854832,5908.231358967018
1.116,1.0738205238431797,5906.036885174579
1.12,1.0769803527136184,5891.037583969754
1.124,1.0800497501972333,5894.415843315719
1.128,1.0828494188213509,5897.422816638634
1.132,1.0853050080056925,5900.938056401118
1.136,1.0874552225645135,5904.054793159359
1.14,1.0894524277764785,5905.9071258024005
1.144,1.091594586465631,5887.69054991394
1.148,1.0942828727689833,5899.075580353929
1.152,1.0978287756146512,5901.493070048237
1.156,1.1022249499253993,5896.9664297189
1.16,1.107121788951981,5902.287960131075
1.164,1.1121465075567434,5897.55090653416
1.168,1.1174078791171451,5898.1429626785175
1.172,1.1237835641621896,5891.555296713951
1.176,1.1326359560314803,5901.075608391635
1.18,1.1449659430250376,5901.114167938441
1.184,1.1604106453692689,5904.412958873472
1.188,1.1766007475656994,5898.658218981195
1.192,1.1892061878714404,5906.400036630294
1.196,1.1927523508872668,5893.950363653887
1.2,1.182083692420061,5898.442553499953
1.204,1.1541138608845287,5900.116318911058
1.208,1.1092764483100508,5909.012225835086
1.212,1.0520743239051222,5903.231423977835
1.216,0.9904075641988358,5893.581654835801
1.22,0.9338079462538698,5889.708875712664
1.224,0.8911040070375777,5894.122728967443
1.228,0.8682491350579931,5900.659855200152
1.232,0.8670154973569424,5906.943637085787
1.236,0.8849600913262878,5900.701585255215
1.24,0.9165705635913598,5895.225949870296
1.244,0.9550357404384534,5900.611944519927
1.248,0.993932741554486,5903.255446255364
1.252,1.0283477426768024,5890.751465244363
1.256,1.055340298205728,5905.211305961284
1.26,1.0739152046100584,5900.077701992368
1.264,1.0846719812365395,5906.376840877165
1.268,1.089232878723401,5897.269753846255
1.272,1.0895879159786097,5902.423358974872
1.276,1.0875664109739556,5903.430395612177
1.28,1.0845774140686473,5904.3413634189055
1.284,1.0815943037939804,5895.611136953479
1.288,1.0792726944174984,5894.582710194661
1.292,1.078114443335092,5896.626270183081
1.296,1.0785992658702852,5896.053732341448
1.3,1.0811853923195265,5889.582403290766
1.304,1.0861452894036432,5896.4158958645785
1.308,1.0933353287189362,5903.724598956082
1.312,1.1020489671896125,5895.750931442257
1.316,1.11104417215584,5891.989911248304
1.32,1.118771515697966,5902.996158754157
1.324,1.1237849497857895,5906.748035795752
1.328,1.12523570663975,5901.09943075353
1.332,1.1232578447511978,5892.742760586946
1.336,1.1190552836711587,5897.9630937116135
1.34,1.1146125627805312,5895.222894395864
1.344,1.112101527390916,5903.440748794309
1.348,1.1131850760986908,5901.967169167673
1.352,1.1184655358458941,5903.848580624301
1.356,1.1272435422835239,5904.824678427719
1.36,1.1376186258547598,5908.557300464469
1.364,1.146882862876834,5893.448736032034
1.368,1.152128677989086,5896.985160015151
1.372,1.1509553713879965,5896.381877068173
1.376,1.1421038348453691,5901.075235704113
1.38,1.1258205978121683,5895.08544505518
1.384,1.1038349299967876,5898.358926448842
1.388,1.0790195353961278,5897.729471633257
1.392,1.054921020493789,5895.579050286248
1.396,1.0352576465303114,5891.777464890547
1.4,1.0233155834445007,5900.722784719597
1.404,1.0211730673580268,5899.90634369715
1.408,1.028894048411802,5906.613938126628
1.412,1.0440665251820878,5903.439079897793
1.416,1.0620974365441995,5899.311559954655
1.42,1.0774342701924522,5907.489237655535
1.424,1.0854381956678512,5899.819868961296
1.428,1.084215347192404,5901.806252278178
1.432,1.0756035824697243,5893.446262699347
1.436,1.0648024139154653,5898.512083930775
1.44,1.0586592372931332,5904.974856516808
1.444,1.0631575866974308,5892.729446099779
1.448,1.0810198035897998,5890.209269956675
1.452,1.110384161713145,5902.233782227669
1.456,1.145154172731865,5901.137619415485
1.46,1.1769463079978248,5899.675549311257
1.464,1.1978926307005038,5890.552052973075
1.468,1.2032323913038911,5903.236277921218
1.472,1.1927799924748508,5897.167528883707
1.476,1.1708335097748512,5899.974857592259
1.48,1.1446590268300558,5899.615104956349
1.484,1.1221803618140618,5901.407234039116
1.488,1.109731153798024,5901.4563498733
1.492,1.1105472018422264,5900.021333020464
1.496,1.1242350883423355,5893.525613182289
1.5,1.147088276705203,5903.888759459844
1.504,1.1729990070886247,5908.828922714443
1.508,1.1947351653371732,5898.864834094534
1.512,1.2053908199020917,5900.941227232825
1.516,1.1998382556063907,5901.717917408383
1.52,1.1759816662261038,5901.6976674320085
1.524,1.13552844298547,5899.105432755834
1.528,1.083944853982058,5900.348566116569
1.532,1.0293981791117792,5899.455117994113
1.536,0.9808330566345413,5903.640986695759
1.54,0.9457148537671634,5900.353024871046
1.544,0.92816916392356,5900.968872559354
1.548,0.9281372434399141,5894.964673773133
1.552,0.9417997147807051,5892.297947406309
1.556,0.9630587007295872,5901.199979898369
1.56,0.9854854930150336,5902.151893146322
1.564,1.0039779050840927,5906.831529525481
1.568,1.0155650892347392,5908.495837235375
1.572,1.0193230904574828,5900.8334016748295
1.576,1.0158408879320595,5895.877116068437
1.58,1.0066970837763851,5904.319056552535
1.584,0.9940729881614427,5894.671605521069
1.588,0.9803812541136278,5895.158680766861
1.592,0.967819290458289,5898.278647137305
1.596,0.9579110025236086,5897.22039405178
1.6,0.9512164533672751,5884.192637099777
1.604,0.9474107350559454,5898.308999149831
1.608,0.9458138967367263,5893.023465841568
1.612,0.9461854674667582,5903.486031362946
1.616,0.9493339988375336,5899.972847317959
1.62,0.957084824564631,5904.269821285052
1.624,0.9714919941951262,5898.453775388224
1.628,0.993667834012534,5902.93580252874
1.632,1.0228776179929682,5897.071496770115
1.636,1.056404295791045,5901.057598201395
1.64,1.090255809135261,5898.878732452284
1.644,1.1203726161225975,5890.467171787443
1.648,1.143800580436454,5904.684772875772
1.652,1.159357346433697,5899.028721865776
1.656,1.167588742392683,5898.017906558171
1.66,1.1701471875923288,5890.345800397642
1.664,1.168918940307373,5902.2587920043925
1.668,1.1652044596575806,5894.438022511041
1.672,1.1591567561174754,5906.023226823952
1.676,1.1496330133771717,5901.750022800159
1.68,1.1345660100259645,5896.01308971823
1.684,1.1118404490754807,5904.432752582078
1.688,1.0804736975286522,5896.509076016328
1.692,1.0417025806746096,5898.842031692014
1.696,0.9994952560581845,5890.082303852724
1.7,0.9601660655609592,5894.313894634947
1.704,0.9310932605184857,5900.405066711485
1.708,0.9188276834663531,5902.657547911426
1.712,0.9270743249650583,5902.235321123149
1.716,0.9551575927965831,5903.439873037077
1.72,0.9975787842370155,5905.635568952066
1.724,1.0450288085855497,5907.519685627858
1.728,1.08672923648225,5906.942423452953
1.732,1.113399645238452,5898.4710557782455
1.736,1.1197833689705923,5901.071655397829
1.74,1.105788077246709,5897.102228374383
1.744,1.0759184980149723,5901.9023273607845
1.748,1.03744426194882,5904.822784546205
1.752,0.9982004480369919,5898.22927694219
1.756,0.9648481200435708,5905.907424251584
1.76,0.9419577217435323,5889.210514474304
1.764,0.9317478014387343,5905.764049394041
1.768,0.9340588969162769,5903.55915945371
1.772,0.946320568085763,5890.193871300304
1.776,0.9636632597662741,5901.656494881548
1.78,0.9795351612982278,5896.130578016084
1.784,0.9870385868528382,5903.666453718565
1.788,0.9808380292603499,5899.871354893219
1.792,0.9591140548854031,5899.824730440745
1.796,0.9248057737676848,5905.82302059518
1.8,0.8854524282206162,5900.470034031501
1.804,0.8513782977935614,5897.819342393313
1.808,0.832627354177111,5899.9316077913145
1.812,0.8356368617044919,5900.021570836151
1.816,0.8608477399865244,5902.371482266404
1.82,0.9021679406631138,5904.450135712488
1.824,0.948536080115024,5888.140453521921
1.828,0.9870547270572058,5908.019851324788
1.832,1.0066226423238154,5906.819307247623
1.836,1.0009158639831597,5901.0459299814665
1.84,0.9699096604640894,5902.447936876551
1.844,0.919663129427141,5905.315638367393
1.848,0.8605645963732195,5900.238166330865
1.852,0.8045534945864793,5901.388090459619
1.856,0.7620320416403347,5909.229059073683
