时间(s),电压(V),幅值(高频80K)
0.0,0.8467915358476924,5902.164844633985
0.004,0.9412475395347766,5897.229978178627
0.008,1.0266025509390972,5902.511662888814
0.012,1.0970110808377123,5898.299809943091
0.016,1.1499243822901852,5906.362623568553
0.02,1.1859277777145678,5902.889754676436
0.024,1.2078301158051783,5898.852775144187
0.028,1.2194430742807716,5901.711755772739
0.032,1.2243030561551222,5895.774609923963
0.036,1.2245275390572776,5896.364863701131
0.04,1.2201320156687825,5896.438228082158
0.044,1.209157059237424,5898.587884286581
0.048,1.1886801783420295,5899.113597549884
0.052,1.1563965745074127,5900.729682354062
0.056,1.1122314085458556,5902.407037282257
0.06,1.0594544430296382,5915.567135040004
0.064,1.0048627909837426,5903.258463622046
0.068,0.9577261059844512,5901.726963245949
0.072,0.9275257244364477,5904.362787240113
0.076,0.9211478975786729,5900.924822614544
0.08,0.9407409949491685,5903.525463091823
0.084,0.9833284853150757,5887.966324020917
0.088,1.042334093398463,5895.977798389234
0.092,1.1100248264439332,5905.094449344434
0.096,1.1794157053492447,5895.537056961846
0.1,1.2447674729442602,5901.946685675482
0.104,1.3009042956732175,5893.421371041269
0.108,1.3423119106565964,5898.386147369717
0.112,1.3629613595931935,5901.698443968567
0.116,1.3572677645503435,5901.415059590016
0.12,1.3219273028655907,5912.094552717134
0.124,1.2578500664523495,5895.527498717039
0.128,1.1712453211779759,5899.996928121807
0.132,1.0732520044606544,5904.112632860903
0.136,0.9781563681030703,5890.611151886875
0.14,0.9007628132493746,5895.609607643288
0.144,0.8536078122489025,5898.123867570356
0.148,0.8445401799344202,5894.94932720062
0.152,0.8750183983262523,5903.378768061822
0.156,0.9394400424912885,5896.379434387463
0.16,1.0258139370449273,5901.338210232088
0.164,1.1179041187107135,5902.410424852529
0.168,1.1985636855018298,5891.4189216593
0.172,1.253532799290779,5899.81354758194
0.176,1.2747391698319004,5893.403814420642
0.18,1.2621771115651246,5902.047946718932
0.184,1.2237084584080458,5900.904179742004
0.188,1.1726362399943862,5900.53197939108
0.192,1.123635582230233,5900.819690549924
0.196,1.0883288611690176,5903.042150398886
0.2,1.0720491147368918,5887.994792392844
0.204,1.0729459472483514,5897.936063617923
0.208,1.0836928274320379,5900.767225112752
0.212,1.0949848851542496,5908.283238854612
0.216,1.0992606613023637,5890.21965755091
0.22,1.0931292316143593,5904.136116623653
0.224,1.077818094888314,5901.682531508909
0.228,1.057942016185315,5898.224968801268
0.232,1.0394121770625213,5906.327083147114
0.236,1.0272884899252825,5899.707169683738
0.24,1.0241357568361342,5897.9703473060345
0.244,1.0292173207023099,5899.03867283184
0.248,1.0386608709870924,5896.870724892199
0.252,1.0465317225825235,5900.020054682311
0.256,1.0465977445740284,5902.177833810632
0.26,1.0344541396759337,5892.406970268724
0.264,1.0094985938016894,5898.310913625039
0.268,0.9760510954574082,5898.723909329521
0.272,0.9429363747083174,5895.607919096844
0.276,0.9212802107943261,5903.187832572715
0.28,0.9210227619545682,5903.666555665371
0.284,0.9473446039043255,5902.181741277717
0.288,0.9984037949026002,5900.016127826528
0.292,1.0653310520142827,5902.637868462792
0.296,1.1345461135361268,5898.306732060472
0.3,1.1915742333486496,5898.527571746741
0.304,1.2250468214479941,5896.817618531545
0.308,1.2296355352593475,5905.722280791755
0.312,1.207168072815324,5898.024292528876
0.316,1.1657968575463902,5903.926372035503
0.32,1.1176060304603104,5900.201966222732
0.324,1.0753785052473945,5900.613104545978
0.328,1.0493913732404627,5904.532059431901
0.332,1.0450686731497252,5898.40596604058
0.336,1.062101180180158,5906.154964918741
0.34,1.09522616221176,5896.708555428126
0.344,1.13632681026095,5891.197068647209
0.348,1.1770938125404187,5900.39287810634
0.352,1.211354074492671,5894.937387271591
0.356,1.2363109852561458,5896.519685108233
0.36,1.2523503692292832,5900.597401536602
0.364,1.2616903016187133,5909.201243972302
0.368,1.2666801554015186,5902.787052837133
0.372,1.2686194716702652,5899.635222344135
0.376,1.2675694739410748,5901.512782422901
0.38,1.2630782546936028,5906.0845873703165
0.384,1.2552891359724663,5903.162098406207
0.388,1.2456934031742892,5889.874202574332
0.392,1.2369570335468048,5897.824516629614
0.396,1.231780062141202,5900.1945591985095
0.4,1.2313431803196793,5898.003808477924
0.404,1.234178306700666,5906.075938468711
0.408,1.2360940887378398,5905.658177212351
0.412,1.2312499208117618,5902.402101538769
0.416,1.21397256339897,5901.498761997844
0.42,1.1807147240053395,5903.75388450324
0.424,1.1316036047257838,5894.806883044615
0.428,1.071104430522545,5893.7330342679925
0.432,1.007423817140894,5897.32589163659
0.436,0.9506111862008149,5901.021916360246
0.44,0.909893414911469,5895.146130727872
0.444,0.8911897959439861,5900.976531567119
0.448,0.8956202802902975,5901.212369097341
0.452,0.9193226565834216,5911.720287097794
0.456,0.954501205404333,5903.022229289074
0.46,0.991424682415,5894.74865252413
0.464,1.0208678682224417,5897.46671135066
0.468,1.0363019709713934,5897.291146532064
0.472,1.0352295791099675,5896.011137049576
0.476,1.0194214651435027,5892.582707473147
0.48,0.9941952105545043,5911.61811203538
0.484,0.9670829221573264,5897.359595907368
0.488,0.9462196627404088,5898.164294200809
0.492,0.9386344210701261,5901.747798411747
0.496,0.94855764616719,5899.443439220927
0.5,0.9760271233804404,5899.870748005935
0.504,1.0163239746504047,5901.071605815736
0.508,1.0607544977148595,5893.4126215021015
0.512,1.0988557127878282,5899.399446608889
0.516,1.121449833688772,5900.12290773586
0.52,1.1234923340266336,5898.217926151049
0.524,1.105644706597494,5910.621668465525
0.528,1.0739924313689813,5900.355819152921
0.532,1.0380839122319427,5905.3501745686535
0.536,1.0081076717619881,5900.797600574661
0.54,0.992237219572041,5895.041128264972
0.544,0.9948988973297568,5904.093304205594
0.548,1.0162082780649557,5901.69168311468
0.552,1.0524192503588876,5892.259353920756
0.556,1.0970755972407114,5900.037271228925
0.56,1.142524152825207,5889.909827957315
0.5640000000000001,1.1813876710877271,5896.101834277504
0.5680000000000001,1.2075758529636542,5896.687700883091
0.5720000000000001,1.216650502989146,5894.200646856201
0.5760000000000001,1.2058093708406075,5902.728793012715
0.58,1.1739953907944956,5891.149355356854
0.584,1.1223930164654357,5901.065787581795
0.588,1.05508902117964,5900.400629913816
0.592,0.9793805456772714,5893.597213982861
0.596,0.9052359826229099,5904.180794007909
0.6,0.8436697278284662,5899.779755811288
0.604,0.80425154342503,5901.254636626439
0.608,0.7925382692831043,5906.577659478462
0.612,0.808518768957284,5901.310080915624
0.616,0.8468230923619526,5905.196795839558
0.62,0.8985879395425398,5898.882294172899
0.624,0.9541102897617163,5904.377008682809
0.628,1.0052373562831283,5900.428923507074
0.632,1.0467776572406253,5900.570006858931
0.636,1.0767546368447312,5898.130654627196
0.64,1.0957901190169217,5898.517030001499
0.644,1.106108595390245,5896.735305711243
0.648,1.110565018871552,5898.404459295878
0.652,1.1119140543442532,5897.108580707449
0.656,1.1124354721282472,5893.5718806714585
0.66,1.1139465309317629,5904.590653120102
0.664,1.1180534924146595,5900.376651059619
0.668,1.126325408153787,5892.696479941646
0.672,1.1401186953047917,5906.325606355856
0.676,1.1600526648710348,5904.554590415626
0.68,1.1854496442785512,5901.256893248817
0.684,1.214193477871427,5911.228085679372
0.6880000000000001,1.2432708323936883,5895.734884699086
0.6920000000000001,1.269796501287556,5908.410751686396
0.6960000000000001,1.2919377592425356,5894.037924864741
0.7000000000000001,1.309185203447562,5902.113190242934
0.704,1.321836144803735,5894.078601061225
0.708,1.3300257277777785,5899.478302382191
0.712,1.3328750904830011,5897.739171845422
0.716,1.3282691820761148,5908.213358386306
0.72,1.313493264318454,5898.531523713332
0.724,1.2865370742795057,5904.166202779762
0.728,1.2474997511043238,5888.97105506219
0.732,1.1994170925555,5900.100581883812
0.736,1.1480529082291233,5891.354298400459
0.74,1.100630911006518,5900.000780535447
0.744,1.0639432230087205,5902.210654152126
0.748,1.0425579102893023,5901.580758029393
0.752,1.0378130054830779,5895.814538464729
0.756,1.0479244962511975,5899.151829101169
0.76,1.0690217457055544,5908.719189484837
0.764,1.096521515295484,5889.511575535083
0.768,1.1261796972749767,5895.64971108395
0.772,1.1544656378197844,5904.756751984003
0.776,1.1784023540877775,5898.208587066139
0.78,1.1953523207484995,5898.773428189078
0.784,1.2031505108472247,5899.803731087597
0.788,1.2006111711356773,5905.299554975178
0.792,1.1881195848052748,5906.411134983402
0.796,1.1679692678661653,5901.635650830155
0.8,1.1442438947123905,5901.591155367329
0.804,1.1222200984230124,5897.319892795874
0.808,1.1074111704708163,5912.863243141085
0.812,1.1044726380464118,5894.855207694339
0.8160000000000001,1.1162493296212086,5908.033050584452
0.8200000000000001,1.143242411737298,5902.359695192616
0.8240000000000001,1.1836662865474157,5914.159850000796
0.8280000000000001,1.2340379243807087,5904.325779271087
0.8320000000000001,1.2899960852245085,5898.971990654548
0.836,1.346949756224715,5901.0827997035385
0.84,1.4003062392032857,5906.166452800419
0.844,1.4453691492683978,5909.663110935416
0.848,1.477300113742481,5904.005253569621
0.852,1.4915471734561265,5904.369314254157
0.856,1.484790132499755,5895.483472883233
0.86,1.4560130850997144,5901.031624915578
0.864,1.4071813313440769,5902.1163708982685
0.868,1.3432240649949447,5893.951997557755
0.872,1.2713146420480044,5896.553067204021
0.876,1.199623432712127,5904.155755152397
0.88,1.1358379313921343,5902.099196225683
0.884,1.0857980604844262,5903.12249465737
0.888,1.0525405796056362,5889.1176164644585
0.892,1.035961840071068,5904.091689893211
0.896,1.0332397594499514,5902.693049390379
0.9,1.0399601586940637,5894.998600395483
0.904,1.0515070709117744,5896.260787629892
0.908,1.0640178969822365,5904.96201472926
0.912,1.0744601929733182,5896.6040343558425
0.916,1.0800614641252535,5894.684832221815
0.92,1.077852154263522,5896.359426739774
0.924,1.065001363251295,5899.767262556698
0.928,1.039998549805681,5902.187382363697
0.932,1.0040386096985234,5897.306829342571
0.936,0.9616756076979431,5898.7932226021085
0.94,0.9201140829611293,5906.752928912812
0.944,0.8872478336688194,5896.334428015726
0.948,0.8692864855643818,5897.977928985241
0.952,0.8690602660578206,5902.134801185517
0.956,0.8856966152326972,5896.119799006426
0.96,0.9155641793774019,5903.681586276627
0.964,0.9537292436152909,5897.372021750294
0.968,0.995136760574664,5900.890486626088
0.972,1.0352186565780057,5909.604596320131
0.976,1.0700967475720684,5899.141592235818
0.98,1.0966596128538122,5902.167455617102
0.984,1.1127008602233786,5907.224316555309
0.988,1.1172135013330624,5896.610767214631
0.992,1.1108071004328737,5897.493119283648
0.996,1.0960042492074622,5889.450217364952
1.0,1.077057579365001,5899.435713852887
1.004,1.059120723511609,5908.809359871083
1.008,1.0470244077427602,5908.046658944805
1.012,1.0441828256050967,5902.35597174756
1.016,1.052019658378348,5903.540628874506
1.02,1.0699288139616656,5911.951321310832
1.024,1.0955695199938136,5901.412942705872
1.028,1.1253492393039066,5899.326875712625
1.032,1.1550545168454243,5890.995703065287
1.036,1.180603574115198,5902.876411449084
1.04,1.198851402514354,5897.724722268738
1.044,1.2083126412704404,5899.521268342153
1.048,1.2095890419656932,5897.8449002350735
1.052,1.2052621234011345,5903.456731566812
1.056,1.1991410799909354,5899.810622676531
1.06,1.19506624478554,5901.251150809175
1.064,1.1957502200036236,5903.313103155441
1.068,1.2020772911457092,5897.949722825852
1.072,1.2129261778782119,5896.143773187892
1.076,1.2253623874332111,5902.602789221442
1.08,1.2351299104860307,5896.628154011087
1.084,1.237455449035978,5905.215637180305
1.088,1.2280628366795634,5905.570061637078
1.092,1.2041428557315135,5904.414141694469
1.096,1.1650118675929129,5906.712139945014
1.1,1.1123300083934127,5905.350355564122
1.104,1.0499445742286797,5904.433885489485
1.108,0.9835155427343836,5897.906936521295
1.112,0.9199869823398337,5903.338446573871
1.116,0.8668310273327944,5909.343944028721
1.12,0.8309923220804964,5897.5858203094585
1.124,0.8176219044863825,5907.122152041139
1.128,0.8288960476372741,5908.293960691698
1.132,0.863297229912031,5895.596257718204
1.136,0.9156113888202594,5901.64315851473
1.14,0.9776872079711784,5898.96756754683
1.144,1.0398396118932034,5901.043606622045
1.148,1.0926419621938737,5897.3267316254805
1.152,1.128722276110412,5895.246915322372
1.156,1.1441224637324368,5898.024293995844
1.16,1.1388519564960897,5903.079360249853
1.164,1.1165005711597569,5896.016851982695
1.168,1.0831167558532606,5903.318799736208
1.172,1.0457944322150836,5902.4815626078125
1.176,1.0113814193186432,5902.010930667914
1.18,0.985529533442373,5899.509207074708
1.184,0.9721576967816361,5903.875347864607
1.188,0.9733253193841813,5901.769049502187
1.192,0.9894041167943531,5907.624778434185
1.196,1.0193119052047737,5893.170817183947
1.2,1.0606235220476283,5898.123878854864
1.204,1.1096310169580976,5900.763956416479
1.208,1.1616054112419874,5886.955192052967
1.212,1.2114047651099231,5898.991021962938
1.216,1.2543152423273947,5902.914221196085
1.22,1.286833143678711,5901.187223798079
1.224,1.3070775644157129,5895.920412762127
1.228,1.314662378103771,5904.208489743532
1.232,1.3101016577948725,5903.73887387767
1.236,1.2940656151486187,5896.318440910043
1.24,1.2669343210630264,5896.362732815558
1.244,1.2289981264869592,5896.444770018554
1.248,1.1812776511672298,5895.737777099698
1.252,1.126492393708922,5899.602335785754
1.256,1.0695419072951138,5903.220234323873
1.26,1.017065138584879,5897.288769844244
1.264,0.9760315306818322,5901.479485078577
1.268,0.9517679789739649,5902.69410923082
1.272,0.9462282771097691,5896.74740068028
1.276,0.9573530259136729,5894.222397199529
1.28,0.9798640193118693,5906.117812458512
1.284,1.0071199424347628,5908.578966275162
1.288,1.0332146247334775,5904.3702707273005
1.292,1.0544709149535925,5900.717050448853
1.296,1.069786619124204,5899.673603584498
1.3,1.0798173048151953,5903.512224154209
1.304,1.0855360415114186,5905.13855748015
1.308,1.0870056587616725,5893.950295981155
1.312,1.0830511137813001,5905.198104786831
1.316,1.0719921611237193,5894.882696560724
1.32,1.0529914521569872,5905.788244320864
1.324,1.0272564837229763,5892.220258358343
1.328,0.9984708054590309,5897.3633149475145
1.332,0.9722500756883478,5897.93757107786
1.336,0.9547974017162537,5892.433994069759
1.34,0.9511254352717585,5895.965607656046
1.344,0.9633127172250424,5889.414161981224
1.348,0.9893352337289645,5904.978077779198
1.352,1.0229720770178432,5902.40941914544
1.356,1.0550382922104329,5896.114177149046
1.36,1.0757696665705048,5904.458304019028
1.364,1.0776877074507032,5905.759469230189
1.368,1.0579460580442408,5895.760748877579
1.372,1.0192791849085683,5909.851187349697
1.376,0.9692512620353627,5898.883114248059
1.38,0.9181733789331593,5903.867800337266
1.384,0.876420554191708,5901.514756496602
1.388,0.8518739291292228,5901.683521856613
1.392,0.8480635763328995,5895.167560883924
1.396,0.8634625587010799,5891.805406679287
1.4,0.8922097616860959,5900.041499304609
1.404,0.9261587197975937,5905.959260023946
1.408,0.9576080557062526,5902.840664982072
1.412,0.9817006395833656,5898.875208037257
1.416,0.9976073363845883,5904.094793884693
1.42,1.0081720415413855,5893.291842516325
1.424,1.0183058780668484,5901.3804825328725
1.428,1.0328149742902903,5895.941602137304
1.432,1.0545045732658331,5899.140621023995
1.436,1.0832691521449216,5898.220065032631
1.44,1.116370630439586,5906.706709971205
1.444,1.1494647436402279,5893.2401653444185
1.448,1.1776617694431741,5892.94833431613
1.452,1.1962032218605285,5898.681036455274
1.456,1.200873198238501,5891.437953295528
1.46,1.1885496442591412,5898.0381698565325
1.464,1.1581078643037233,5901.529461107828
1.468,1.111397229255909,5893.153778204428
1.472,1.0536603941378202,5898.153460286429
1.476,0.9929040733930199,5900.9478028215335
1.48,0.9383090555838212,5892.439371398986
1.484,0.8983083560643915,5909.894352683004
1.488,0.8790100687531682,5898.290783233892
1.492,0.8832545622549011,5892.047845979137
1.496,0.9102298638044333,5895.909918855851
1.5,0.9555272699925845,5895.4426597898455
1.504,1.011692402990549,5900.482883076579
1.508,1.0694039945045724,5901.0447897413615
1.512,1.119235513005432,5902.174687610943
1.516,1.1536570792206429,5894.950095501041
1.52,1.1687385696624506,5893.261132641349
1.524,1.1650021695252475,5901.440511633025
1.528,1.1470513084388518,5902.445406278816
1.532,1.1219882026066803,5908.214011168848
1.536,1.0971121267189288,5900.56243958584
1.54,1.0777174301922183,5900.8376121696965
1.544,1.0658065947601214,5901.783338412834
1.548,1.0601755475722805,5906.51434152348
1.552,1.057751639588199,5905.228753653631
1.556,1.0555438947767732,5888.982598140217
1.56,1.0523316744527342,5901.35449803989
1.564,1.0493587588965367,5897.009323471113
1.568,1.0497831847007322,5894.308265284997
1.572,1.0572174488681614,5896.827059802551
1.576,1.0740155822244477,5892.358444587172
1.58,1.0999068129330194,5900.608664195433
1.584,1.1313473318092804,5899.025550205035
1.588,1.1617733521673241,5903.007168728769
1.592,1.1827921445142444,5894.146573195698
1.596,1.186145082389423,5894.871728433625
1.6,1.1660134244417373,5896.87852009062
1.604,1.121024076234977,5898.5096161271285
1.608,1.0552805245486547,5900.3235108262825
1.612,0.9779635303111076,5898.292440751752
1.616,0.9014631863311372,5903.157455717484
1.62,0.838477879028118,5900.758317531393
1.624,0.7989056853219392,5892.553167237311
1.628,0.7875017736997829,5904.198949831311
1.632,0.8030418551047691,5898.01948403922
1.636,0.8391614939147091,5905.655150243405
1.64,0.8863932014686594,5905.016457936445
1.644,0.9345335239867579,5899.240721756196
1.648,0.9745757939534314,5904.0431742325645
1.652,0.9999297102819318,5911.266789562268
1.656,1.0070555048851253,5896.8142534988165
1.66,0.995677593852247,5897.2926043040425
1.664,0.9686117414841855,5907.930460362697
1.668,0.9311848804796294,5901.689662677232
1.672,0.8902125773658727,5898.379790393093
1.676,0.8525572581303695,5892.788604565684
1.68,0.8235676419117242,5896.049170062985
1.684,0.8060062134225888,5906.150961363876
1.688,0.7999770728337967,5897.479260835938
1.692,0.8038148482075858,5901.179678194704
1.696,0.8153236652591018,5897.71951774588
1.7,0.8326456339299141,5904.685578534346
1.704,0.8544860785158115,5892.993060903207
1.708,0.8800018715123255,5896.792185139285
1.712,0.9087807758224175,5909.135027235933
1.716,0.940926278658041,5897.98796600822
1.72,0.9768682196840983,5899.600564317248
1.724,1.0166307191327246,5913.258156624484
1.728,1.0587859271217626,5903.445700799793
1.732,1.0997334803621943,5895.898303270859
1.736,1.1339403746115109,5895.727635073221
1.74,1.15532839196898,5899.437968436728
1.744,1.1593292092802874,5896.992898538344
1.748,1.1446393287506333,5906.896495592398
1.752,1.1137849119668035,5900.711447718342
1.756,1.0722841159667722,5902.231339079495
1.76,1.0269868121837324,5904.205008344469
1.764,0.9844467765305563,5904.111602105789
1.768,0.9498246611517953,5907.86124441132
1.772,0.9263405542840468,5911.890522216998
1.776,0.9151306888888867,5896.00477849447
1.78,0.9154091459455048,5904.992769462949
1.784,0.9248451517239017,5905.766058589761
1.788,0.9400710801265065,5896.778395410508
1.792,0.957314170512689,5911.059850402168
1.796,0.9731574288110615,5901.663934085919
1.8,0.9852643537721251,5893.399832050424
1.804,0.9927274593890795,5899.55169522195
1.808,0.9958025279995361,5911.69272738338
1.812,0.9951627002236982,5897.20025410679
1.816,0.9911345787068523,5899.6366791006
1.82,0.9833919389327425,5903.457762771171
1.824,0.971291448455162,5908.225154728226
1.828,0.9546374267705566,5904.595606276512
1.832,0.9343928711662678,5898.141416107103
1.836,0.9128865100476743,5903.228831190367
1.84,0.8933775817122473,5889.953646854597
1.844,0.8791969343743447,5912.371444651395
1.848,0.8728598555290056,5900.577479929869
1.852,0.8754893765269242,5905.277815098479
1.856,0.8866865135634407,5896.340736065964
