时间(s),电压(V),幅值(高频80K)
0.0,0.6772542578919951,5896.912938896533
0.004,0.7848838569211346,5910.725916877859
0.008,0.8880273498064735,5897.497759358074
0.012,0.9829308870348836,5898.503521749678
0.016,1.0657533057742434,5898.719776290705
0.02,1.132529859785594,5903.248120833577
0.024,1.1796290679587293,5902.790335288057
0.028,1.2047819407663836,5911.37835213668
0.032,1.208256601391117,5899.422643589424
0.036,1.1935003305458114,5901.109683818266
0.04,1.1667958635484204,5895.002393049701
0.044,1.1359574315617056,5893.565041700916
0.048,1.1084767187891984,5902.182706519306
0.052,1.0897017461725356,5908.212105887662
0.056,1.0816571445494263,5900.893196582148
0.06,1.0829776858548106,5893.76800565588
0.064,1.0900245042169634,5898.9460644977535
0.068,1.0986864257250921,5896.644452599942
0.072,1.1060412151316672,5896.903033314365
0.076,1.1112564307415917,5896.783328726546
0.08,1.1156332165210499,5900.090106538531
0.084,1.1220491034481455,5906.544858297199
0.088,1.1340331544905369,5897.568410050194
0.092,1.1545647558649605,5902.784478688311
0.096,1.184762900637541,5901.140043051053
0.1,1.222891389563058,5899.470713757187
0.104,1.2641787190173417,5894.823327311588
0.108,1.3016365511339638,5893.206930361601
0.112,1.3276216663022529,5898.962125778119
0.116,1.3357007107654466,5899.719182257912
0.12,1.3224109469885559,5896.654013892166
0.124,1.2884654369459043,5898.227925335105
0.128,1.2388751347472564,5903.121987127794
0.132,1.1817387858581383,5908.454338122639
0.136,1.1261156897306477,5907.478364178916
0.14,1.0798985665412513,5900.116513077915
0.144,1.0484664769667587,5905.566811890255
0.148,1.034287321699897,5898.678696913304
0.152,1.0371223592877028,5900.626879634855
0.156,1.05440992411302,5901.6258063190535
0.16,1.0816753706663114,5894.310754031279
0.164,1.113105368555457,5904.011114308565
0.168,1.142469724990051,5909.391900839784
0.172,1.164344619237849,5893.515063861136
0.176,1.1753074878554166,5894.030503057094
0.18,1.1746746789245743,5900.812421693212
0.184,1.164477757591712,5903.911922888859
0.188,1.1486403235419067,5896.046341059488
0.192,1.1316602598326961,5900.889761329836
0.196,1.1173779087021165,5895.245616381572
0.2,1.1083682087881463,5904.874845256079
0.204,1.1060865349648188,5905.877052896836
0.208,1.1114233186818017,5897.320161542294
0.212,1.1251134375195087,5898.848715300403
0.216,1.1476007169522537,5899.649105616675
0.22,1.1783788963907555,5892.970846305802
0.224,1.2152715259880151,5892.613044966469
0.228,1.254226860485442,5895.993339846638
0.232,1.2898418764835586,5904.2562898293645
0.236,1.3163311843980783,5901.610961143026
0.24,1.3285423206579374,5907.410476098095
0.244,1.3229066263211007,5896.597566727382
0.248,1.298382369656343,5901.753257340793
0.252,1.2572124466064343,5900.43314957627
0.256,1.2050573412440162,5900.8968921609785
0.26,1.1502062107360365,5897.166273249983
0.264,1.1019791158790686,5893.744294287277
0.268,1.0687235305496618,5901.6182679315725
0.272,1.0559180902212502,5899.893756560737
0.276,1.0649386305998327,5903.181533133894
0.28,1.0929149029268013,5896.7593552934
0.284,1.1337161981068875,5894.211491117888
0.288,1.1796717511038248,5907.484206128434
0.292,1.2234401966488324,5899.213926867868
0.296,1.259508318620684,5898.505109186534
0.3,1.2849793468579316,5896.957183205462
0.304,1.2995369034591437,5904.00035663383
0.308,1.3047431715910895,5899.440822781381
0.312,1.3030713455535878,5900.656196442104
0.316,1.2971223857627767,5915.168835781456
0.32,1.2892574437391,5904.240965418687
0.324,1.281526522264549,5889.374917233808
0.328,1.2755759470969004,5907.831186285495
0.332,1.2723483455525701,5902.471222458121
0.336,1.2717169553220633,5901.313471983148
0.34,1.2724053087020961,5906.40211155972
0.344,1.2724383840311007,5901.9674668548
0.348,1.2700365108969154,5893.619142049263
0.352,1.2645648202732853,5899.913546942178
0.356,1.2570884164840148,5902.224717552381
0.36,1.2502588506094698,5888.9346401821695
0.364,1.2475509847166615,5899.585459720358
0.368,1.252123884975508,5901.607352900905
0.372,1.2656801949294731,5902.318720104168
0.376,1.287672229347962,5893.133355572968
0.38,1.3151432497215185,5898.910991580475
0.384,1.3433743497592554,5907.308482827014
0.388,1.3672263749314117,5896.5508258900045
0.392,1.3826916900407478,5903.1560730367655
0.396,1.3879956851794606,5898.829854060771
0.4,1.3838039602439092,5895.41644906676
0.404,1.372539116132547,5897.430674536194
0.408,1.3571762778209242,5895.090705107709
0.412,1.340017522773415,5904.9292394894055
0.416,1.3218837750838217,5896.29089433038
0.42,1.3019789866009637,5912.23065867785
0.424,1.2784210111724337,5901.566358486784
0.428,1.2491853357350882,5896.3796292233565
0.432,1.213101748677795,5900.56238314693
0.436,1.1706231149439943,5902.917889330807
0.44,1.1242262298272974,5899.4753749444935
0.444,1.078360040796619,5896.228008079059
0.448,1.0388460644305402,5903.720058213585
0.452,1.0117042464224075,5906.418781301691
0.456,1.001607934958634,5898.256311476738
0.46,1.0104552175417651,5898.453132614565
0.464,1.03661783521971,5906.297123907591
0.468,1.0751530417070494,5897.185538341119
0.472,1.1188376021147646,5907.350496038044
0.476,1.1596331389886423,5900.369445248251
0.48,1.1902120345718106,5904.27033846572
0.484,1.2053080575711705,5909.035093613206
0.488,1.2027338072886185,5902.680229785543
0.492,1.1838809452423453,5908.884447929903
0.496,1.1534830014487842,5905.946728328034
0.5,1.1185370706824307,5895.337475051488
0.504,1.086587881244036,5898.279439919628
0.508,1.0638717140881728,5905.101062601378
0.512,1.0538686779792084,5896.878813591247
0.516,1.0566384978543795,5898.095502642852
0.52,1.06907202287938,5904.355973381972
0.524,1.0859336506689508,5902.831260145553
0.528,1.1013300236284596,5910.207696862367
0.532,1.1101325586617834,5906.7172099726495
0.536,1.1089714556516068,5900.577514348704
0.54,1.0966378581107528,5896.7747172563295
0.544,1.0739590617047723,5898.23694536432
0.548,1.0433443376247025,5901.331526762492
0.552,1.008201180865752,5901.0202151941
0.556,0.9723700431947335,5901.549530075956
0.56,0.939687630436034,5912.415203943539
0.5640000000000001,0.913718818886943,5897.214704672366
0.5680000000000001,0.8975759406476735,5904.733992872437
0.5720000000000001,0.8936789726187275,5904.210174513207
0.5760000000000001,0.9033857955825509,5901.353718522253
0.58,0.9265880366708286,5895.431436930251
0.584,0.9614925949539675,5904.154290931054
0.588,1.004769737774936,5906.846072840275
0.592,1.0520551540145402,5897.172408726308
0.596,1.0986171195574346,5900.720616261555
0.6,1.1399814288988825,5907.5666202965895
0.604,1.1723922659700385,5898.92560273236
0.608,1.193062004432636,5906.058351074711
0.612,1.2002407894042966,5903.33238402308
0.616,1.1932493147438952,5897.481927039092
0.62,1.1726407636952674,5906.190848639132
0.624,1.1404873453735132,5895.199006093665
0.628,1.1005612904966728,5902.580626437718
0.632,1.0581132748908249,5893.429354383852
0.636,1.019102267457443,5897.74996771592
0.64,0.9890205927212277,5896.903400787441
0.644,0.9717264829544758,5908.010926191091
0.648,0.9687470117392293,5903.535454876943
0.652,0.9792848426381691,5907.500492455968
0.656,1.0008240153567953,5904.683281209659
0.66,1.03000385808293,5901.829613624739
0.664,1.0633993979094973,5904.705253233707
0.668,1.0979851682854942,5896.838947390924
0.672,1.1312619199566172,5889.776471678703
0.676,1.1611414985814956,5899.080624119131
0.68,1.1856924690778134,5904.898492447281
0.684,1.2028750550586793,5897.930565407463
0.6880000000000001,1.210462461795105,5905.566850866156
0.6920000000000001,1.2063169648405112,5897.121008219106
0.6960000000000001,1.189008872087496,5902.5772168410485
0.7000000000000001,1.1585678251657363,5895.3582331317775
0.704,1.1170773771681002,5905.545540172698
0.708,1.0688746426263973,5901.993576084839
0.712,1.0202288720335928,5890.692694469524
0.716,0.9784849302101617,5897.004759752115
0.72,0.9507664576861593,5896.904414712078
0.724,0.942474426439348,5898.904172364212
0.728,0.9559529441513175,5899.716628932573
0.732,0.9897132555813702,5895.704497930751
0.736,1.0384716244080878,5897.320914540719
0.74,1.0940375160878666,5902.68620665128
0.744,1.1468726258455535,5899.173414888923
0.748,1.1879957349206078,5904.266723265649
0.752,1.2108446112301465,5892.652064572209
0.756,1.2126748997436534,5896.525724919709
0.76,1.1950964164709004,5898.638364550019
0.764,1.1635466639808811,5905.5538687716125
0.768,1.1258822040134018,5893.189560791212
0.772,1.0905675216863586,5900.828752112026
0.776,1.0649228463460185,5904.85107352756
0.78,1.0536782344643083,5900.1483327245
0.784,1.0579713112421423,5898.499187463459
0.788,1.074999743717805,5907.438865820774
0.792,1.0986109059749076,5907.240165426695
0.796,1.1209613687925073,5904.163698633131
0.8,1.1349503774711296,5898.346619892006
0.804,1.1366445394902245,5895.911069785112
0.808,1.126755552511518,5909.1066690426405
0.812,1.11057809874991,5901.680743870307
0.8160000000000001,1.0963962577623234,5905.0268051382645
0.8200000000000001,1.0928656541727864,5897.033068530002
0.8240000000000001,1.106137911040635,5895.216824326501
0.8280000000000001,1.1375521222404643,5894.535371554221
0.8320000000000001,1.182592580568283,5900.39171426361
0.836,1.2314962594737104,5900.080753290844
0.84,1.2714541569907347,5899.484007217409
0.844,1.2898977508669864,5900.922412844142
0.848,1.2779979780590396,5896.605548374
0.852,1.233372283447371,5893.674671895727
0.856,1.1612112565532247,5907.61299878756
0.86,1.0734993656637442,5894.414315509461
0.864,0.9864764400336492,5907.956958652849
0.868,0.9168896401081665,5910.458247696419
0.872,0.8779702825858103,5913.407768623704
0.876,0.8763054819341439,5903.963703108867
0.88,0.9105720122083443,5898.607936415406
0.884,0.9724025622202198,5899.5170294816335
0.888,1.0488391455200443,5896.445202948292
0.892,1.1254213121231078,5912.194770153896
0.896,1.1891231604439543,5896.397712458954
0.9,1.2307284575731445,5904.246303423545
0.904,1.2463798220438962,5905.858104591132
0.908,1.237978682356242,5906.652423634786
0.912,1.2122155826189855,5909.029749010554
0.916,1.1784290614856145,5899.949053670711
0.92,1.1459681038412173,5898.924666576609
0.924,1.1219299299794663,5903.807080829819
0.928,1.1099495644228303,5901.990447257213
0.932,1.1102413427575843,5896.468507781252
0.936,1.1205618529320522,5902.856447619293
0.94,1.137442159829419,5898.80908611852
0.944,1.1571145430722798,5891.094522834072
0.948,1.1759770380519463,5897.26268569231
0.952,1.19083286997368,5903.639112959328
0.956,1.1991751682380303,5902.996120543179
0.96,1.1995582516932304,5894.359395069281
0.964,1.1919310132638399,5900.7298796469695
0.968,1.1777721362740723,5896.476600626612
0.972,1.1598577311888367,5901.649266464338
0.976,1.1415768166806075,5899.379551483066
0.98,1.1259718915326877,5894.525305898091
0.984,1.1149308358017493,5896.214138822636
0.988,1.1089140558571113,5903.774003062471
0.992,1.1072635513098448,5902.522888473164
0.996,1.1087924793961297,5903.746434064474
1.0,1.1122622668175113,5907.0446611738735
1.004,1.1165323921344306,5898.6153285043165
1.008,1.1204276580591173,5896.932088472187
1.012,1.1225316987723362,5903.355160830494
1.016,1.1211310970668984,5894.140265808537
1.02,1.1144402713389354,5901.111105709095
1.024,1.1010880836976809,5899.992870606469
1.028,1.0806862360784817,5898.564058604506
1.032,1.0541932354556365,5894.988530666549
1.036,1.023828401596881,5899.917407801791
1.04,0.9925016798158418,5897.476575890157
1.044,0.9629920498778778,5897.280054973039
1.048,0.9372466732822721,5904.716222450905
1.052,0.9160835018282232,5899.1226277142405
1.056,0.8993444560130858,5889.742687944217
1.06,0.886352127960825,5907.100088146588
1.064,0.8764602514883112,5903.5991977032845
1.068,0.8694992282761846,5907.387907374696
1.072,0.8659441758371205,5899.695458742542
1.076,0.8667001003703724,5898.118499378338
1.08,0.8725510381377652,5901.71489277323
1.084,0.8835246714959257,5900.347261177507
1.088,0.89854382059533,5900.360950635866
1.092,0.9156205088654902,5895.860652056693
1.096,0.9325112699015351,5896.745323643617
1.1,0.9474418063986466,5900.233066620046
1.104,0.9594926721681498,5899.201930830072
1.108,0.9685209604574344,5902.955541003462
1.112,0.9748294961368416,5911.40692412195
1.116,0.9789163383830974,5892.601315919226
1.12,0.9814596386810385,5899.304499239243
1.124,0.9834145428687631,5906.716830071107
1.128,0.9860108488948515,5900.301189998029
1.132,0.9905641818892564,5904.0776595638845
1.136,0.9981443722982895,5891.394018234637
1.14,1.0092170524251463,5898.333464862556
1.144,1.0234508274785807,5891.037463288954
1.148,1.0398815663237477,5902.316837292384
1.152,1.0574305469833187,5905.484749005361
1.156,1.0755065939308794,5900.978417626658
1.16,1.0943270067259439,5901.779076952006
1.164,1.1147452342902195,5896.29431913544
1.168,1.137667639030534,5905.566950643482
1.172,1.1633988309411631,5903.381108021483
1.176,1.1912910073215293,5908.083612443901
1.18,1.219829964061219,5900.25418979977
1.184,1.2469578542987716,5899.185250102607
1.188,1.2703181249706426,5893.7890820453495
1.192,1.2873261285128614,5895.323468780003
1.196,1.295283626083974,5904.692794996617
1.2,1.2918162179604362,5907.960109907737
1.204,1.2756562489325975,5900.17520881128
1.208,1.2474841500779688,5900.590885696846
1.212,1.2104121607986296,5896.480071255712
1.216,1.1697553922258304,5896.042498913385
1.22,1.1319483635037617,5914.458202196699
1.224,1.1028269792226755,5903.727044573771
1.228,1.0858644810315523,5896.542083967897
1.232,1.0810629704572081,5892.539581983175
1.236,1.0849650761769798,5897.790403967189
1.24,1.0918264260968853,5902.740024795885
1.244,1.0955777867732213,5902.151664756839
1.248,1.0919062356705074,5894.070316211783
1.252,1.0796935010557056,5896.893851457202
1.256,1.0612752527806446,5900.79849076464
1.26,1.0414913139776247,5903.344219517268
1.264,1.026027508281516,5889.020061589515
1.268,1.0197801899589491,5907.246940053562
1.272,1.0257773512989674,5901.0642687297
1.276,1.0447557553969962,5901.647598058504
1.28,1.0751465673249996,5899.893740354564
1.284,1.113164280435649,5899.069756123609
1.288,1.1529256731752069,5897.429178658651
1.292,1.1868635671729328,5901.6590882382525
1.296,1.206832757646567,5898.606131280389
1.3,1.2060264444386526,5897.145573819609
1.304,1.1812830886549515,5893.169039972328
1.308,1.1349536746562916,5899.561763489311
1.312,1.075471015330581,5911.671076772288
1.316,1.0161134914435557,5901.2557504064425
1.32,0.97205123956865,5896.462774492227
1.324,0.9563959370668701,5894.846668739782
1.328,0.9764040408564036,5900.291699113606
1.332,1.0310468714273606,5896.729227871612
1.336,1.1108167212229962,5901.03624765064
1.34,1.1999379459950232,5894.820058863772
1.344,1.2803231979371568,5899.9578688593165
1.348,1.33605433879423,5898.404058563311
1.352,1.3571304387516883,5899.431269454627
1.356,1.3415911358205643,5899.789607257058
1.36,1.2956073623822706,5890.68319046801
1.364,1.2315936964103549,5894.302298103267
1.368,1.164840506139994,5905.2519188788765
1.372,1.1095494104902857,5906.813934472078
1.376,1.0753514695751516,5894.959264093153
1.38,1.0652886611750907,5893.920878069522
1.384,1.0758085231092072,5894.984808150472
1.388,1.0986050739849371,5901.636326163294
1.392,1.1234337503257874,5904.166493230719
1.396,1.1408108171724771,5897.028634142457
1.4,1.1439022710956062,5894.0648163991855
1.404,1.1294812039397284,5903.973801938532
1.408,1.0981344718977626,5907.597053506238
1.412,1.0539048511152893,5902.3889308506095
1.416,1.00347451627879,5891.391172007237
1.42,0.954962799611297,5899.388962460059
1.424,0.9164479940473943,5892.189802419008
1.428,0.8944096632790327,5896.266548350831
1.432,0.8923943538348833,5899.619979033801
1.436,0.9102678771898419,5896.353303520587
1.44,0.9443119489161574,5899.415845256991
1.444,0.9881311312130355,5897.200775767502
1.448,1.0340590040535578,5899.244892020005
1.452,1.074685112225975,5896.22744720107
1.456,1.1041972731606908,5896.842966108067
1.46,1.1192836429115436,5902.368712185778
1.464,1.1193930577232225,5895.143627600238
1.468,1.1063238123235632,5896.932219071785
1.472,1.0833400200496779,5894.870212271231
1.476,1.0541429256474188,5902.642486759758
1.48,1.0220190049592717,5919.902767370211
1.484,0.9894026909835025,5907.451890361945
1.488,0.957948282144142,5906.044234740641
1.492,0.9290196106259885,5891.24736093398
1.496,0.9043244155282986,5900.095169350875
1.5,0.8863118993405833,5894.717601611509
1.504,0.8780247162735059,5894.22127310251
1.508,0.8823847277041683,5903.490655919822
1.512,0.9012145007063925,5901.146294818916
1.516,0.9344191743407047,5902.240407718082
1.52,0.9796454805628618,5897.625917069354
1.524,1.0325250824546106,5898.611062239711
1.528,1.087398469253648,5901.083805082591
1.532,1.1382645556067252,5898.586162427774
1.536,1.1796918655533577,5889.361325950552
1.54,1.2075702795435983,5890.974779224018
1.544,1.21971790422232,5895.836356807192
1.548,1.2163069058406137,5902.015646099128
1.552,1.1998893567373987,5891.596483662094
1.556,1.1747687369513666,5905.418182189932
1.56,1.1457478374322443,5902.863054410022
1.564,1.116688874416844,5902.927142481851
1.568,1.0894878241656487,5904.508822362192
1.572,1.0638857082414752,5899.184352808036
1.576,1.0381692477576279,5903.344390400296
1.58,1.0104332410838968,5897.290949318618
1.584,0.9798460224915362,5899.365034501184
1.588,0.9473935465883998,5903.438956429113
1.592,0.9158393800200697,5897.891184292463
1.596,0.8889797518936821,5898.363484073013
1.6,0.8705665867246096,5904.976802293097
1.604,0.8633895503382583,5902.653457965959
1.608,0.8688422380388969,5896.341283551559
1.612,0.8869357817542113,5895.458292301313
1.616,0.9164606304018952,5902.725235292978
1.62,0.9550519254485599,5901.483895822148
1.624,0.999198136541948,5902.107157071319
1.628,1.04444918146744,5902.382001160825
1.632,1.0860083438192092,5907.005567061929
1.636,1.1195940010946142,5898.120949054351
1.64,1.1422239558830305,5895.646986091246
1.644,1.1526178088593322,5903.7447893412855
1.648,1.1511412690570504,5891.579237951931
1.652,1.1394117804696071,5895.280283142167
1.656,1.1197530947223373,5901.968143048376
1.66,1.0946526188315278,5899.808689127134
1.664,1.066310770099625,5906.733516033967
1.668,1.0363512257884928,5899.365334868168
1.672,1.005768320153599,5909.136618497236
1.676,0.9751407889837348,5898.133691318781
1.68,0.9450382706877652,5898.601656881722
1.684,0.916448845972824,5907.398739904887
1.688,0.8909963978855069,5901.674976922885
1.692,0.8707568419760982,5900.869141823788
1.696,0.8576828196377156,5902.262007734079
1.7,0.8528983051205796,5899.529897213425
1.704,0.8562101970372925,5899.527448480278
1.708,0.8660497093115224,5890.808505130784
1.712,0.8798440154021537,5897.307026019277
1.716,0.8946532932365746,5901.533992506524
1.72,0.9078279640982999,5897.851816201583
1.724,0.9174671026686688,5905.570249446072
1.728,0.9225826121450069,5901.842528035204
1.732,0.9230264984809927,5904.927464279407
1.736,0.9193418825117091,5904.167132417952
1.74,0.9126841050290794,5900.623142584594
1.744,0.9048027886664782,5905.0076282111095
1.748,0.8979100975858142,5902.253403237156
1.752,0.8942989889888027,5895.31126069004
1.756,0.8958037727626531,5908.187224263033
1.76,0.9033404314954252,5903.158607914093
1.764,0.9166957796732416,5911.194890336452
1.768,0.9346039160544507,5907.491197987864
1.772,0.9550606423683002,5899.1110925827925
1.776,0.9757510710133829,5900.676518375146
1.78,0.9944476705940156,5897.951556265067
1.784,1.0093256219339317,5903.305265426139
1.788,1.01922939163229,5901.2943326263885
1.792,1.023898633853629,5901.585024582992
1.796,1.0240653558328368,5906.942700967691
1.8,1.021270053023095,5906.335538361763
1.804,1.0173043104457258,5908.587223653017
1.808,1.013406546039262,5899.231288106317
1.812,1.009577851118951,5904.1427734999415
1.816,1.0044086406994293,5909.660035768117
1.82,0.9955495045609992,5902.350273353199
1.824,0.98060540403202,5897.935885173776
1.828,0.9580231593588081,5911.085837002478
1.832,0.9276018288968804,5906.7369812002125
1.836,0.8905338822425871,5906.923948415219
1.84,0.8491703169195768,5905.478642494223
1.844,0.8067713886323081,5898.149762595072
1.848,0.7673514716106988,5903.30096584372
1.852,0.7355386089033299,5912.849286360295
1.856,0.7162656883436533,5905.632821297588
