时间(s),电压(V),幅值(高频80K)
0.0,1.4851252431995132,5901.193673890189
0.004,1.3218280663179955,5905.845589437264
0.008,1.1716943762195902,5907.471206568801
0.012,1.04455343828544,5902.571392940624
0.016,0.9464843418662621,5904.373362573452
0.02,0.8793089544658567,5900.46280980713
0.024,0.8409738086982863,5906.685408526352
0.028,0.8265200650112041,5904.678834141913
0.032,0.8292819046308839,5900.31119759887
0.036,0.8421049894540222,5909.276062712122
0.04,0.8585545587990563,5905.996515116152
0.044,0.8740817578627499,5904.479273786433
0.048,0.8869165624452614,5895.618578063233
0.052,0.8982799585599417,5898.877215508697
0.056,0.911620451270697,5897.719907883913
0.06,0.9309864177676731,5905.827983098589
0.064,0.9590781084037112,5909.043224881932
0.068,0.9957173185645696,5897.032625165716
0.072,1.0373356566264895,5901.474053184933
0.076,1.0776759653220254,5894.109407857456
0.08,1.1094253348976426,5896.287502150416
0.084,1.1261762506132014,5899.844992530263
0.088,1.1240469248774472,5895.81005109509
0.092,1.1025007382353833,5899.390449740163
0.096,1.064326329434046,5894.199835391584
0.1,1.0150989604601184,5894.991937429779
0.104,0.9624259365543953,5901.912951991497
0.108,0.9149683058661964,5905.9087619794855
0.112,0.8810657978523145,5908.531045325565
0.116,0.8670122113114427,5900.421067330597
0.12,0.8754260843675099,5900.417559279968
0.124,0.9043631151724782,5900.135402123863
0.128,0.9476302172567255,5894.704674594403
0.132,0.9962864468051918,5905.280832053932
0.136,1.0408329512088148,5908.871828376567
0.14,1.0733605268997992,5899.985616968042
0.144,1.0890380086852236,5898.2039505956
0.148,1.0866789634300018,5905.267271091147
0.152,1.0684754034074564,5897.02708940903
0.156,1.0391685243690507,5904.492038588117
0.16,1.004957763889117,5898.50037437601
0.164,0.9723997949600827,5897.252299937107
0.168,0.9474250999604927,5905.5306889454105
0.172,0.9344602193814706,5899.307357830078
0.176,0.9356527543270459,5904.705004509766
0.18,0.9503969787562052,5894.539210524586
0.184,0.9755123878269519,5902.975255801097
0.188,1.0062510014919117,5904.971150860321
0.192,1.0378361175493522,5907.27805634508
0.196,1.0668595382296515,5891.811145170746
0.2,1.0919440269012541,5899.1912211080535
0.204,1.1135160169565967,5909.081111350669
0.208,1.1329242092657557,5907.426326676584
0.212,1.1512950970911542,5899.892272075544
0.216,1.168568724303102,5897.335074652575
0.22,1.1831671650769504,5896.619632912745
0.224,1.1925496527233166,5903.02418185925
0.228,1.1944419415868865,5903.655644314992
0.232,1.1880878053309403,5902.718873492122
0.236,1.1748395186862748,5902.458018481132
0.24,1.1578067452464647,5903.976087982323
0.244,1.14076817710369,5903.306052192333
0.248,1.1267953453351354,5896.3959129660925
0.252,1.1170408214107894,5908.855375321819
0.256,1.1100754839832523,5909.071550221568
0.26,1.1020625842250495,5910.247274523562
0.264,1.0878403068439753,5893.719502611782
0.268,1.062673439623498,5898.04736278052
0.272,1.0241872671011616,5903.478362695375
0.276,0.973898499748028,5902.999344257597
0.28,0.9177808181819425,5899.620476342715
0.284,0.8654492442095179,5907.568944056371
0.288,0.8279036924132009,5902.566467859556
0.292,0.8143523245155595,5898.950243439275
0.296,0.8291839280410743,5897.34207020336
0.3,0.8702568623411852,5902.340956784709
0.304,0.9291658760084187,5901.626804833706
0.308,0.9933479210549866,5902.920239985007
0.312,1.0492690854984477,5906.387589600356
0.316,1.0857375457803675,5898.643748373755
0.32,1.0965227289592612,5892.256009767336
0.324,1.081703571913886,5903.564832290632
0.328,1.0474162782868122,5899.743884704858
0.332,1.0040052914536446,5897.79718250533
0.336,0.9630501104996885,5902.018934951446
0.34,0.9341784903358068,5900.371995633851
0.344,0.9227139645662933,5897.106829932861
0.348,0.9289033946485992,5898.41670649652
0.352,0.948833795248046,5900.296272118873
0.356,0.976489728078595,5899.7000955109725
0.36,1.0060482894561436,5902.487202679678
0.364,1.0335665057264134,5901.056166126378
0.368,1.0575655412577791,5901.581207258646
0.372,1.0784904432621467,5907.727951887572
0.376,1.0974858501609224,5913.150010440219
0.38,1.115188142859454,5889.32338501551
0.384,1.131108113377197,5905.70228065798
0.388,1.1437311543493567,5898.278444204015
0.392,1.151049610504621,5902.58248262929
0.396,1.1511634306807688,5888.278817731746
0.4,1.142771016179351,5890.060266352207
0.404,1.1255286492852756,5894.164611080067
0.408,1.1002623260885573,5897.346717064566
0.412,1.0689888598881194,5907.911434805307
0.416,1.0347168568120855,5900.159268727002
0.42,1.001012445521295,5892.99848174143
0.424,0.9713599094489065,5897.77747643252
0.428,0.9484660196261003,5895.493995261889
0.432,0.9337448956235073,5896.119542417283
0.436,0.927160392345676,5899.937485532173
0.44,0.9274381489424836,5908.058008650156
0.444,0.9325204851479791,5906.828775411223
0.448,0.940093373322032,5900.29130084272
0.452,0.9480445906182848,5893.637364942682
0.456,0.9547758075450079,5891.5605068297455
0.46,0.9593615738039116,5898.146054076199
0.464,0.9615901060213573,5905.713288492142
0.468,0.9619220613925634,5903.111415612516
0.472,0.9613901746017056,5907.574541379867
0.476,0.9614334195513672,5897.960978561902
0.48,0.9636008396264673,5898.312485155539
0.484,0.9690464434233108,5897.850779620691
0.488,0.9778668797806368,5904.183787363575
0.492,0.9885534401292023,5898.709557127999
0.496,0.9979348035567588,5897.23484706586
0.5,1.0018335537400271,5906.460278095974
0.504,0.9963100778904335,5900.486959479308
0.508,0.979016305828787,5901.1645746643
0.512,0.9500354899326586,5898.05865502639
0.516,0.9118037718928009,5891.909499909434
0.52,0.868245828377787,5903.013205254866
0.524,0.8237202315427687,5896.048849954273
0.528,0.7823421176205966,5896.790723573974
0.532,0.7477765291719888,5906.266291509092
0.536,0.7231561481575248,5903.550495453473
0.54,0.7107701412206751,5898.846284999584
0.544,0.7115358023097148,5897.730921916332
0.548,0.7246058188239262,5902.25973721089
0.552,0.7474739346073324,5902.350690369161
0.556,0.7766517194600239,5898.666593112803
0.56,0.8086505723155473,5903.487316479179
0.5640000000000001,0.8408346536979506,5901.610123437175
0.5680000000000001,0.8717640951267871,5899.444091034719
0.5720000000000001,0.900865538019894,5900.064046585987
0.5760000000000001,0.9275925400009448,5907.994995575635
0.58,0.9505601408063795,5902.666096694391
0.584,0.9672208889484593,5897.778423701174
0.588,0.974370993476271,5907.235548967742
0.592,0.9693397628358168,5899.724853098867
0.596,0.9514077505356728,5899.284492885524
0.6,0.9228784768106149,5898.949413210349
0.604,0.8892540803144536,5901.013434973576
0.608,0.8582022252073078,5897.719126779603
0.612,0.8375043330397031,5903.185937575823
0.616,0.8327484212531132,5896.237783993761
0.62,0.8457526273291466,5900.18800643784
0.624,0.8743264634585654,5892.231081725447
0.628,0.9132683302153196,5896.423046638026
0.632,0.9560061370198123,5907.055992012071
0.636,0.9962454924378219,5902.075971458788
0.64,1.029196857464971,5894.407182431567
0.644,1.0521678431373311,5902.90860148722
0.648,1.0645037251379335,5902.00818925786
0.652,1.067085725655169,5906.407388973451
0.656,1.061748174338812,5895.287254537067
0.66,1.0508715749909203,5900.059403125105
0.664,1.0371097197837336,5900.547665677957
0.668,1.0230529202209162,5898.148564613356
0.672,1.0107978259296075,5903.129980098855
0.676,1.0016440176886974,5891.834054306978
0.68,0.9961373216599776,5898.102273825083
0.684,0.9944152170652609,5897.822810933414
0.6880000000000001,0.9965311718865363,5897.866319899459
0.6920000000000001,1.0024023918898683,5903.170192408382
0.6960000000000001,1.0113285640447738,5902.520349100922
0.7000000000000001,1.0214656038107275,5902.037772041596
0.704,1.0298192393501957,5902.856966907216
0.708,1.033036460080835,5899.886182375956
0.712,1.0287057873911094,5892.20010610232
0.716,1.0164624763070287,5892.812844809037
0.72,0.9982578880443035,5884.426565564556
0.724,0.9776390181576994,5892.03787976541
0.728,0.9584120036824938,5898.199022215563
0.732,0.9432923605190332,5901.291296949255
0.736,0.933050169960558,5899.16798820258
0.74,0.9264176552845055,5899.203411505436
0.744,0.9207739895349273,5901.4361234982825
0.748,0.9133926206875617,5897.500698824902
0.752,0.9028378523170134,5899.944993732344
0.756,0.889969233706207,5900.377234147536
0.76,0.8780612359205807,5899.810233307365
0.764,0.8718713759168476,5896.340664192391
0.768,0.8759789266815465,5904.831297091077
0.772,0.8930439969861896,5894.083987060994
0.776,0.9226078038691707,5895.635827429578
0.78,0.9607973326015095,5895.8135532157285
0.784,1.0010346878653393,5902.049261035745
0.788,1.035637887995226,5897.010211084222
0.792,1.0579556020400651,5900.066850685992
0.796,1.064395250430164,5900.065947365562
0.8,1.0555609792673908,5901.090014971147
0.804,1.0359684552145578,5902.556023987898
0.808,1.0124628398043651,5891.661179692158
0.812,0.9921127468639862,5912.791539486704
0.8160000000000001,0.9804585851702072,5896.823307257889
0.8200000000000001,0.9805439915632996,5903.648778696218
0.8240000000000001,0.9926698398214668,5900.840763393844
0.8280000000000001,1.0146538868103863,5896.247903079725
0.8320000000000001,1.0424389234654887,5900.357245730599
0.836,1.0709270747501203,5905.969606407738
0.84,1.0948886179609068,5900.506033032414
0.844,1.10978257924019,5901.105788272282
0.848,1.1123909727910355,5899.815915239635
0.852,1.1012750989789786,5903.0002437656685
0.856,1.0770862058449124,5903.325576829775
0.86,1.042654464341952,5906.460610426342
0.864,1.002687582282541,5903.41568096225
0.868,0.9629862996522837,5897.784773789372
0.872,0.9292856006444472,5902.6288174611645
0.876,0.9060258328786857,5905.127130045378
0.88,0.8954518403484856,5901.521167529759
0.884,0.8973457144335856,5901.544062990191
0.888,0.9094155145894964,5890.582359345748
0.892,0.9280674238878938,5902.740839100649
0.896,0.949196412026097,5903.660185661363
0.9,0.9687754814890863,5899.070697532258
0.904,0.983278490795734,5900.68253515387
0.908,0.9901503179042836,5899.816568458063
0.912,0.9884632020417461,5897.792352896598
0.916,0.979576468135619,5909.30047400779
0.92,0.9673514147019266,5903.997467472197
0.924,0.9575571436851893,5885.014744480248
0.928,0.956451275608615,5898.108958751852
0.932,0.9688561051847551,5901.218844893076
0.936,0.9962924853708277,5898.590076203198
0.94,1.03587053448872,5903.095296483455
0.944,1.08049889680216,5894.160297027047
0.948,1.1204852595020065,5898.721005637926
0.952,1.146027037798755,5897.710251288108
0.956,1.1497894849707049,5898.54503787227
0.96,1.1288371916705213,5901.8666763028905
0.964,1.085463094257511,5893.220477488359
0.968,1.0267592414818971,5900.128325127868
0.972,0.9630447438045773,5903.754434053763
0.976,0.9055323977633,5893.760714498318
0.98,0.8638314266541854,5903.341749213113
0.984,0.8439412374056516,5907.195827573862
0.988,0.8472337818352957,5892.528930334623
0.992,0.8706032335072901,5897.324226567026
0.996,0.9076121794416706,5896.788273584823
1.0,0.9502163471226469,5900.942860049863
1.004,0.9905729504727298,5891.989992970061
1.008,1.0225206947775654,5901.458750009225
1.012,1.0425006174491176,5895.400004314307
1.016,1.0498790090096812,5902.87225488926
1.02,1.0467444519231972,5900.418749459778
1.024,1.0372452609910026,5894.195122120844
1.028,1.0265093469264426,5896.521313198942
1.032,1.0192909640981165,5898.146486083124
1.036,1.0186960118189214,5906.743904346984
1.04,1.0254575328332751,5897.168045941276
1.044,1.0381158998247284,5908.965282429304
1.048,1.054093359270707,5904.469712876619
1.052,1.0711723279593597,5896.542014124156
1.056,1.0885920669334272,5899.984686451683
1.06,1.107161472354838,5897.984549001319
1.064,1.1283867576879005,5896.5283899227215
1.068,1.1531895094749436,5890.70851651685
1.072,1.1809240906749496,5898.256523221695
1.076,1.2090882176003976,5896.773006851532
1.08,1.2337068546843375,5905.342621293089
1.084,1.2501490149086814,5894.736831717892
1.088,1.2541123860675185,5896.931308383511
1.092,1.242561522984079,5910.063334089301
1.096,1.2144564339854957,5902.702620651875
1.1,1.171123191196763,5904.1056084923575
1.104,1.1161281308704245,5896.89301816352
1.108,1.0546264806470236,5894.875559883
1.112,0.992389329647629,5901.502189309083
1.116,0.9349155317517638,5893.969088488807
1.12,0.8869925090608696,5894.206924907412
1.124,0.8527308350910966,5898.241970934991
1.128,0.8356975147450416,5899.228314684076
1.132,0.8386643900781371,5893.271054925375
1.136,0.8627884662388579,5903.82747668979
1.14,0.906516493054629,5898.676251611132
1.144,0.9648123301469986,5891.785695966478
1.148,1.0292656378185623,5907.369513697076
1.152,1.0893087866466897,5895.317793480134
1.156,1.1343176324385325,5897.774403603281
1.16,1.1559850937248397,5893.138222458102
1.164,1.1502088858572168,5910.212949748162
1.168,1.1179247289649081,5894.546203959404
1.172,1.0647498910973459,5896.002202164103
1.176,0.9997225342978537,5899.09985988487
1.18,0.933602939279056,5897.542905278436
1.184,0.8771161122390889,5903.21062828956
1.188,0.8393341695214299,5891.824077884386
1.192,0.8263050786077153,5895.658113278543
1.196,0.8400570752470711,5899.330180206129
1.2,0.8781654111251108,5901.239090960844
1.204,0.9340866837086991,5899.151172814517
1.208,0.9983664727460133,5904.648951298868
1.212,1.0605620190373546,5900.462749769161
1.216,1.1114108573742487,5895.047486665134
1.22,1.1446351457259385,5899.372796131843
1.224,1.1578796745255406,5890.4199562557005
1.228,1.1525494588250345,5897.910858934992
1.232,1.1326594953917342,5897.593041314826
1.236,1.1031792257501876,5894.996648807055
1.24,1.0685690863702921,5893.59397867062
1.244,1.0320610272220279,5903.871401243413
1.248,0.9957961545082956,5901.8914875358405
1.252,0.9615118119401334,5901.128782365647
1.256,0.9312781734818109,5903.310106589308
1.26,0.9078276601450896,5905.9794996688015
1.264,0.894259252107719,5904.193101701488
1.268,0.893247454987007,5907.389838830638
1.272,0.9061385071702315,5897.072295029428
1.276,0.9323140031137581,5897.908449946144
1.28,0.9690072306364887,5899.403593657236
1.284,1.0115591699308029,5903.351857741964
1.288,1.0540157994632995,5901.633066621133
1.292,1.0899805827521636,5900.476203235864
1.296,1.1136499967787974,5900.576096963885
1.3,1.1209062633980524,5897.159516478614
1.304,1.110262228410693,5900.410442305908
1.308,1.0834277766033422,5893.271866617355
1.312,1.0452955384714187,5899.497194349388
1.316,1.003212244552469,5899.448832763018
1.32,0.9655566425088213,5894.231006046195
1.324,0.9398829890546363,5899.078969013995
1.328,0.9311004349133976,5900.391365722274
1.332,0.9402258674591342,5906.7466077165855
1.336,0.9641255768506047,5902.230308968612
1.34,0.9963823453396317,5902.901336602278
1.344,1.0290789383169492,5898.874097369259
1.348,1.0549880253278885,5897.665510150192
1.352,1.0695000658874254,5903.395602699317
1.356,1.0716523728968577,5900.610248299918
1.36,1.0638671291254829,5903.890336580259
1.364,1.0504867767940158,5897.79824379656
1.368,1.0357859903192175,5890.605349850059
1.372,1.022459967208147,5893.106385255159
1.376,1.0112975524092078,5899.148690050575
1.38,1.001970327452493,5890.956641267794
1.384,0.9941801130746919,5908.742424776102
1.388,0.9883196564458,5902.999731123702
1.392,0.9853045694327102,5897.042550203974
1.396,0.9858602890888846,5907.837562288117
1.4,0.9898354510575168,5900.198670414513
1.404,0.9959637310892169,5902.788428121109
1.408,1.002136873528018,5899.969500066283
1.412,1.0059842281209814,5896.841254919743
1.416,1.0055287637576733,5897.068692731273
1.42,0.9998144952868433,5896.662194966232
1.424,0.9894567576929331,5903.212347242052
1.428,0.9769461982382768,5899.207824527538
1.432,0.9663841070004093,5904.802040291114
1.436,0.9624231334711362,5895.002425494666
1.44,0.9686167959412068,5900.323133462243
1.444,0.9858424556152486,5894.231344693751
1.448,1.0115520853080693,5901.680642266484
1.452,1.0402342834992198,5901.716388383267
1.456,1.0649105314282605,5904.108572567442
1.46,1.0790931366307837,5911.525704962089
1.464,1.0785673615261278,5899.26207251747
1.468,1.0625259095447213,5907.042540647182
1.472,1.033800704971186,5902.426444669762
1.476,0.9981630431143182,5903.792480471649
1.48,0.9629096188741632,5902.152055496674
1.484,0.9351226167570593,5898.153474735821
1.488,0.9200184216379307,5898.877733326701
1.492,0.9197555250240766,5888.905549344954
1.496,0.9329939308796611,5894.698261567713
1.5,0.95531734497941,5901.366339473297
1.504,0.9803660596080259,5907.4252591288
1.508,1.0013288141004475,5904.267566729344
1.512,1.0123993207183102,5906.573512119746
1.516,1.0098850435824527,5891.258535092587
1.52,0.9927859319803789,5905.395919216074
1.524,0.9627931134168475,5903.34147611207
1.528,0.9237752776207466,5905.135416967731
1.532,0.8809015298885151,5902.183679985111
1.536,0.8395871512001315,5899.708918143078
1.54,0.8044892327938619,5902.302082774541
1.544,0.7788191702628001,5904.4872608230135
1.548,0.7641503959785404,5895.043912746937
1.552,0.7606523516330417,5892.753588086039
1.556,0.767494037364436,5911.904456711048
1.56,0.7832007576678617,5889.67943957518
1.564,0.805893341495725,5896.846376450083
1.568,0.833414467465788,5902.956411292774
1.572,0.8633689062329187,5892.87762164909
1.576,0.893161319523406,5900.305224133108
1.58,0.9201672738254899,5890.7881627704855
1.584,0.9420959893155564,5898.789113637695
1.588,0.9574007501913646,5905.471980946106
1.592,0.9654729171573928,5897.698396383545
1.596,0.9665036046226353,5898.623454466138
1.6,0.9612036270006498,5895.879628377867
1.604,0.9507023877905721,5906.192138731329
1.608,0.9367345237729128,5907.770484164698
1.612,0.9219010402028832,5906.040438783311
1.616,0.9096937873436011,5894.175850298556
1.62,0.9041219543703697,5902.657824119739
1.624,0.9089631178162071,5893.833604579525
1.628,0.9267820901559316,5898.932741355196
1.632,0.9579809784380013,5900.787649830716
1.636,1.0002589522484735,5902.534439718375
1.64,1.048823941371917,5913.85248096966
1.644,1.097410945116129,5905.609351638278
1.648,1.1397716088749956,5899.924806714084
1.652,1.1711021393031633,5905.483621739215
1.656,1.1889720751240678,5902.7194789009145
1.66,1.1935317738785431,5898.01426908844
1.664,1.186966102459256,5909.333998344654
1.668,1.1723677641708539,5900.857329297641
1.672,1.1524463603552095,5902.5680939275335
1.676,1.1286164929179552,5907.400051690818
1.68,1.1008633069861586,5907.450832846853
1.684,1.0684108325974337,5904.655621833453
1.688,1.0308411705565086,5907.187449310665
1.692,0.9891454076721071,5905.460860302967
1.696,0.9462653248977165,5901.771093807954
1.7,0.9068903528841903,5895.828624700783
1.704,0.8765134508744997,5902.076381749169
1.708,0.8599974564348845,5906.441807437931
1.712,0.8600784135700072,5898.961346466616
1.716,0.8762310119514718,5896.766654753638
1.72,0.9042114976624707,5900.011261817964
1.724,0.9365316867229565,5901.141370820779
1.728,0.9640353352939364,5907.91324424286
1.732,0.9784046684560822,5900.184198573854
1.736,0.9748445542593619,5902.047966698688
1.74,0.9538165708975883,5896.798047769662
1.744,0.9209695848772946,5887.439042346225
1.748,0.8852565562444712,5896.308581608662
1.752,0.8560556066572216,5901.897850390844
1.756,0.840434330497088,5898.396259079726
1.76,0.8414868299876317,5897.36505220589
1.764,0.8581631897089013,5895.417326911457
1.768,0.8864115358230606,5889.727472119255
1.772,0.9209690615669488,5909.455235006565
1.776,0.9569847141750565,5897.060921699765
1.78,0.9908960461607689,5904.912168046398
1.784,1.0204476558218898,5898.605402764348
1.788,1.0441737400488567,5891.665884575113
1.792,1.0608702473270752,5899.79356027868
1.796,1.0694438211021173,5899.819382543416
1.8,1.06914710482299,5897.555690773978
1.804,1.0599290879564747,5888.040194278013
1.808,1.0426718770784011,5903.31816935614
1.812,1.0192825273476789,5897.97425435906
1.816,0.9926646306533139,5908.530827402728
1.82,0.9664984134151001,5897.014425910596
1.824,0.9447209826792727,5896.189168540546
1.828,0.9307208517929993,5901.877888147201
1.832,0.9264493001347158,5899.915266962003
1.836,0.9317749930159718,5898.139129397446
1.84,0.9443936617244645,5895.219322463581
1.844,0.960414784506822,5890.238633636668
1.848,0.9754305898729978,5904.911258094746
1.852,0.9856270405194514,5903.064247807653
1.856,0.988509659504743,5908.529202332486
