时间(s),电压(V),幅值(高频80K)
0.0,0.8540770837379643,5902.326979598094
0.004,0.905445060362877,5904.704904629109
0.008,0.9495752253135928,5903.810722989615
0.012,0.9805680045046168,5895.565782163278
0.016,0.9953488708398271,5898.32858406387
0.02,0.9938087585464757,5892.755808848079
0.024,0.9782341447052721,5900.80449054275
0.028,0.952519774974543,5904.760485104188
0.032,0.9214588876878137,5897.489263797147
0.036,0.8901703703736467,5898.973380624514
0.04,0.8636813248143428,5895.150255502747
0.044,0.846684746574698,5900.190457334208
0.048,0.8433399506611551,5895.374626188888
0.052,0.8568399397983273,5894.345786963843
0.056,0.888647029764857,5896.419815219656
0.06,0.9377255031112924,5896.994173631625
0.064,1.0003090487795046,5903.565649972727
0.068,1.0704548354800127,5900.20499175231
0.072,1.1411310876712017,5905.167549529797
0.076,1.2053499698561017,5908.903054851158
0.08,1.257048601475301,5908.085907404056
0.084,1.291734152127852,5901.781603972698
0.088,1.30697947990911,5901.206299671049
0.092,1.3027053682831216,5903.249599283393
0.096,1.2811150964315683,5891.586943020561
0.1,1.2462631689954662,5888.853298836432
0.104,1.2033668130277428,5907.389678348642
0.108,1.1579827634132192,5907.49611563855
0.112,1.1151436486438795,5894.356504056816
0.116,1.0785743458274086,5896.1375745139785
0.12,1.0501744760610638,5896.0600030838805
0.124,1.0299514745418752,5894.344901226427
0.128,1.0164405516874309,5899.689975828072
0.132,1.0074341069332784,5906.90106582008
0.136,1.0007524160548427,5903.013309028072
0.14,0.9948801457421741,5893.979909421374
0.144,0.9894027147050869,5904.28370598869
0.148,0.9851348153953544,5906.438488279325
0.152,0.9837426563343682,5903.388052977316
0.156,0.9868023678480443,5901.674317066008
0.16,0.9946573932046019,5902.897456392426
0.164,1.0057603987548975,5895.911170929306
0.168,1.0169976749347607,5897.241649602434
0.172,1.0248822850287067,5903.681778936812
0.176,1.0269840418713638,5896.8488203525085
0.18,1.0229029223799178,5897.707579464756
0.184,1.014400001244163,5896.720324476467
0.188,1.0047010308494142,5897.376650561895
0.192,0.9973222469609886,5901.017858345796
0.196,0.994960481352728,5912.088725043717
0.2,0.9989187627372615,5903.451850300656
0.204,1.0091747215756997,5905.376512706173
0.208,1.0248114234171362,5898.875221752594
0.212,1.0444469988094514,5897.238902054272
0.216,1.066486749352542,5907.9259819999725
0.22,1.08918837916273,5903.488373610686
0.224,1.1105689175656053,5887.957092925996
0.228,1.1282270698982584,5898.102696070162
0.232,1.139273594371634,5892.332193266086
0.236,1.1406116785778981,5897.638597006301
0.24,1.129653867093717,5891.501004991495
0.244,1.10528021999082,5897.407154641318
0.248,1.068645751580664,5904.214729218518
0.252,1.0234739174146408,5904.915398964626
0.256,0.9756920695773937,5906.740011134715
0.26,0.9324995361504389,5892.029016088568
0.264,0.9010507167474272,5889.2819873066055
0.268,0.8869271010394354,5904.601773550542
0.272,0.8926544079936665,5905.59714270324
0.276,0.916719300902816,5894.443909335285
0.28,0.9536130042529295,5898.76155889537
0.284,0.9951622404180419,5896.132964498456
0.288,1.03285876592815,5898.899683409705
0.292,1.0603699904766204,5903.60603018994
0.296,1.075273251899651,5899.459749413151
0.3,1.079431316334801,5898.247147298464
0.304,1.0780178874420192,5895.244631341026
0.308,1.0775947757720523,5907.515808407786
0.312,1.0837690942143725,5907.904940078926
0.316,1.0990412457000038,5909.024745015673
0.32,1.1215458349411378,5890.714767397537
0.324,1.145257550744255,5905.271890150892
0.328,1.1617417371094623,5906.38377157673
0.332,1.1628843983553299,5901.339210353297
0.336,1.1436306880159168,5896.852715898604
0.34,1.1038235452193421,5897.929966938537
0.344,1.0486483162296636,5903.45581028676
0.348,0.9876500789916619,5902.345292694489
0.352,0.932610668919655,5903.236256941511
0.356,0.8947648483266021,5899.3787339044775
0.36,0.8819768685248185,5900.039962712033
0.364,0.8965998118776868,5898.303396804228
0.368,0.9347003733872096,5897.655641265037
0.372,0.9870235025278968,5896.106944335145
0.376,1.0415013537830682,5897.081619748452
0.38,1.0864980137371343,5892.432658430335
0.384,1.1136563270035347,5909.726904790641
0.388,1.119407876414928,5904.739743691782
0.392,1.1048638002112054,5899.369876581786
0.396,1.0745319117038135,5896.860707761408
0.4,1.0346289601554133,5897.624528190913
0.404,0.9915420692720999,5892.288019106974
0.408,0.9505794780528889,5901.596681178385
0.412,0.9149844751796077,5898.119359216102
0.416,0.8853680338509039,5892.574696496278
0.42,0.8599211698598402,5897.022543736989
0.424,0.8356090815272501,5895.419820677998
0.428,0.8100246394215631,5898.765301522866
0.432,0.7831106819661868,5900.294369064519
0.436,0.7579285832892516,5897.822950645702
0.44,0.7400386022403231,5899.167132519617
0.444,0.735626030373898,5895.919634411845
0.448,0.7490507427774885,5900.707893987733
0.452,0.7808145787370617,5906.328528275787
0.456,0.8268303685045304,5896.311455676389
0.46,0.8793346281697799,5900.62319969891
0.464,0.9290743865818885,5894.216163306898
0.468,0.967874901985144,5891.079100018317
0.472,0.9906204129861728,5901.771041734026
0.476,0.9960695882222529,5903.644187706199
0.48,0.9865050628338787,5899.660375747823
0.484,0.9666377650307965,5899.699154783201
0.488,0.9423103173098184,5909.614426054846
0.492,0.9194067892494195,5902.437850636341
0.496,0.9030781398844976,5898.780382751063
0.5,0.8971379999188559,5899.921804791265
0.504,0.9034988628555389,5895.155517606347
0.508,0.9217633467475639,5895.363966328987
0.512,0.9492434802215671,5897.788054402296
0.516,0.9815638076832668,5903.525882855336
0.52,1.013744212641915,5904.088301728313
0.524,1.0414464456980728,5898.0645882870185
0.528,1.0619641948819296,5898.147462969736
0.532,1.074590349510563,5908.641101800302
0.536,1.080273477218511,5895.844405966741
0.54,1.0808640707086288,5890.926008687754
0.544,1.0784271756258361,5905.965807612569
0.548,1.0748755207277747,5901.791520592203
0.552,1.0717948120481688,5893.375081295916
0.556,1.0701973449041713,5899.215613731005
0.56,1.0701435203419134,5902.097885892594
0.5640000000000001,1.070450363357084,5895.407513660833
0.5680000000000001,1.0687896514701414,5903.014282913842
0.5720000000000001,1.062309018817229,5905.208543790858
0.5760000000000001,1.0486301622383452,5901.15601068714
0.58,1.0269000537538908,5912.549561405369
0.584,0.9985779048898268,5892.5269314979205
0.588,0.9677163197288495,5897.691054849983
0.592,0.9405328423651357,5904.697114184724
0.596,0.9241603739745173,5893.419732849982
0.6,0.9247465142311461,5905.335649622998
0.604,0.9454587009024977,5904.823074338634
0.608,0.9851528323894819,5893.602309108948
0.612,1.0382615671967244,5893.770312424917
0.616,1.0959612559261838,5894.645413276526
0.62,1.1482107212422121,5898.395646135709
0.624,1.1860313831906846,5900.139086491657
0.628,1.2034024394003349,5903.579225612296
0.632,1.198307866446901,5905.002589748292
0.636,1.1727434975639957,5896.392198201666
0.64,1.1317842344322773,5909.174212917566
0.644,1.082046500004422,5898.343111454136
0.648,1.0300493686752539,5902.460317698496
0.652,0.9810303256615136,5900.793001617379
0.656,0.9385894871903775,5891.799321746892
0.66,0.9051293391907591,5904.360451301828
0.664,0.8826480524170686,5908.06246290437
0.668,0.8732656090358517,5905.60081573387
0.672,0.8790030127300085,5905.736024139178
0.676,0.9007666571650248,5899.874670482449
0.68,0.9370337384424903,5914.295441945498
0.684,0.9830501137959315,5901.314696711298
0.6880000000000001,1.0311794204909004,5899.495525398921
0.6920000000000001,1.0724675103316559,5893.213761714143
0.6960000000000001,1.0988722165245897,5900.196844579537
0.7000000000000001,1.105306056894782,5900.121079808417
0.704,1.090784607014012,5898.373074823411
0.708,1.0584304546401795,5889.06482052301
0.712,1.014532339181545,5897.602499389512
0.716,0.9670647336781008,5899.70315634416
0.72,0.9240716646912381,5899.138968432694
0.724,0.8922574546945514,5900.698532958731
0.728,0.8760405206264498,5892.738374137212
0.732,0.877188321951243,5903.713378089292
0.736,0.8949869965435125,5894.122885221242
0.74,0.9267613657540329,5898.864690627727
0.744,0.9685017691486868,5900.785940375148
0.748,1.0154017223366314,5896.647878454424
0.752,1.0622299373616408,5903.64202449799
0.756,1.1035917352987497,5893.259625011252
0.76,1.13423890093693,5908.3069916349
0.764,1.149600120142767,5902.641822348638
0.768,1.1465586904513316,5906.328487097669
0.772,1.1242636636490002,5900.623542786616
0.776,1.084618610582432,5897.1962076375685
0.78,1.0321784865590866,5900.661391199868
0.784,0.9734385345408626,5902.094288641751
0.788,0.915736180875237,5906.147918020769
0.792,0.8660637978147812,5900.493154150157
0.796,0.8300191896978996,5897.314674245683
0.8,0.8110287620615553,5900.6187015344285
0.804,0.8099569859089674,5906.740038100247
0.808,0.825229242072149,5901.493225794677
0.812,0.8535209095103574,5893.63414320171
0.8160000000000001,0.8908435074794965,5900.086829027434
0.8200000000000001,0.9336064955004807,5905.50399389673
0.8240000000000001,0.9791597125180851,5900.854130896923
0.8280000000000001,1.0255532285853002,5895.353131391587
0.8320000000000001,1.0707283463953206,5894.699273795281
0.836,1.1117758102240547,5895.684495703375
0.84,1.1448930512846358,5902.271542980328
0.844,1.1661970143141818,5902.373514573726
0.848,1.1729842551164358,5905.260832041345
0.852,1.164777801142197,5899.231364672116
0.856,1.143646945998886,5903.77842064259
0.86,1.1136803186142317,5889.750590506463
0.864,1.0799097248672438,5897.322991148758
0.868,1.047185835465469,5899.792756992509
0.872,1.0193902911916686,5904.002058464939
0.876,0.9990732740577434,5896.964092783508
0.88,0.9873701063443818,5899.77965179577
0.884,0.9840103120713781,5898.661012337262
0.888,0.9873818040022612,5900.20896566219
0.892,0.9948041378294551,5905.127178328268
0.896,1.0031811937458035,5899.649934492714
0.9,1.0099726065730814,5910.688365848678
0.904,1.0141193229674161,5898.117654386059
0.908,1.016453302535326,5902.166723723963
0.912,1.0193417645964689,5900.357580625849
0.916,1.0257120556421468,5883.855403594789
0.92,1.0378775274141634,5903.383311239659
0.924,1.0565892198864772,5893.736938370117
0.928,1.08056955020694,5899.171880718072
0.932,1.10661046559766,5888.932240639542
0.936,1.1301958726526544,5904.160795675609
0.94,1.1464752324127216,5898.980157732175
0.944,1.1512629594735062,5892.944171394957
0.948,1.1417221429076074,5899.276752007358
0.952,1.1166289723118845,5894.163460375699
0.956,1.0764310208561758,5895.1333219307135
0.96,1.0233856346440382,5898.123453233731
0.964,0.961805953585828,5895.512103847541
0.968,0.8981031623668392,5901.243444562995
0.972,0.8402226624635943,5897.163306993044
0.976,0.7963319762559602,5893.718519661447
0.98,0.7730452634607314,5904.021237903882
0.984,0.7737672175921085,5904.193675706722
0.988,0.7977341695843558,5903.14432858287
0.992,0.8400746204248998,5904.275719200138
0.996,0.8928778209538973,5901.430179306206
1.0,0.9469706871085926,5896.932832296587
1.004,0.9939018855353472,5901.663289592963
1.008,1.027563200377755,5904.922854898537
1.012,1.0450145377031808,5901.157681392457
1.016,1.0464040353763087,5895.735937291665
1.02,1.034213406406568,5909.7326122101895
1.024,1.0122343677984722,5896.475634548704
1.028,0.9846769299679412,5903.515394166643
1.032,0.9556570904128582,5900.781178912756
1.036,0.9290237905341546,5908.011972003329
1.04,0.9082346805872566,5897.169314493004
1.044,0.8960435116572862,5898.059810257956
1.048,0.8940846975557996,5905.372047823726
1.052,0.9026673818976946,5898.970762445963
1.056,0.9209727592885094,5898.014904723629
1.06,0.94751574857752,5900.496398007692
1.064,0.980520092724078,5899.845841777128
1.068,1.0179645367886572,5899.802990524099
1.072,1.0573670018844585,5901.409480658862
1.076,1.0955935142699584,5900.265745715691
1.08,1.1289653232881938,5910.819940196139
1.084,1.153777577349795,5898.46997003769
1.088,1.1671520621461104,5902.599556423841
1.092,1.1679427835674694,5902.159634466669
1.096,1.1572588241414437,5908.332856245602
1.1,1.138266467416097,5901.288483581821
1.104,1.1153454302086268,5904.795380370974
1.108,1.0930676254816996,5903.890420939921
1.112,1.0754465163486278,5892.966780640396
1.116,1.0655354606078755,5899.240552249037
1.12,1.0651505112046833,5890.939262200996
1.124,1.0745098096195453,5901.251786934883
1.128,1.0918367192592906,5898.824585268338
1.132,1.113237448404695,5892.285494587901
1.136,1.1332136133948585,5901.804947364813
1.14,1.1459023764748644,5902.76311232956
1.144,1.1466944170714666,5900.576952244293
1.148,1.1335967067042807,5901.306920125942
1.152,1.1078081626262257,5893.1345348497125
1.156,1.0733590124053818,5911.122102731983
1.16,1.036025060543955,5901.949848984393
1.164,1.0018754635631077,5909.523088635351
1.168,0.9758140661317396,5895.31666727073
1.172,0.960470666741021,5903.594147984315
1.176,0.9557527545295219,5897.819544388235
1.18,0.9591575753174101,5901.678977305881
1.184,0.966657113322978,5904.382286868774
1.188,0.9738387902782168,5899.275657850515
1.192,0.9770372169202837,5901.35548349164
1.196,0.9742386568073558,5911.028219138036
1.2,0.965522885498056,5904.596702833759
1.204,0.9528817291231382,5900.949860264006
1.208,0.939504099621667,5906.474229465218
1.212,0.9288892178259268,5895.440026313807
1.216,0.9242115669697933,5903.392666261104
1.22,0.9281359901685738,5910.2458658230935
1.224,0.9428991529406189,5907.594010770432
1.228,0.9702073327442525,5898.57484966177
1.232,1.0106186442768712,5901.384045521858
1.236,1.0625572750833956,5904.59759205415
1.24,1.1215432993490675,5900.408834205745
1.244,1.1802304901571825,5896.427200052121
1.248,1.2294707365220616,5903.712551552369
1.252,1.260199221094857,5908.13800948625
1.256,1.2656801468608283,5902.670839424372
1.26,1.2435630372512745,5907.775392973641
1.264,1.1971885214989264,5897.093116778504
1.268,1.1356234188194803,5903.9261397923365
1.272,1.072095849793612,5910.443911465504
1.276,1.0209656082551917,5909.267951494527
1.28,0.9939992456210622,5900.685427909983
1.284,0.9971512127777515,5890.194562267227
1.288,1.0289557519387271,5900.464999825186
1.292,1.081023310315606,5885.482508937743
1.296,1.140363337360799,5882.215872578759
1.3,1.1927485988433075,5898.785086551133
1.304,1.2262356807083792,5899.3795733037205
1.308,1.2340439449553977,5898.93294611215
1.312,1.2160739006493249,5900.5621204371055
1.316,1.1785561350520481,5900.602185445384
1.32,1.131866109386453,5903.149121949022
1.324,1.0872358232140702,5901.958361608689
1.328,1.0535035095375382,5891.046180019056
1.332,1.0349573137482009,5896.230580457118
1.336,1.0308643715045758,5894.268487477629
1.34,1.0366446089761334,5898.101382653991
1.344,1.0460622728749431,5903.926497155266
1.348,1.0534915388188368,5895.758329968578
1.352,1.0553992734634279,5902.427367064426
1.356,1.0506185521273284,5909.634708861854
1.36,1.039564564833138,5898.583947130513
1.364,1.023034438072154,5902.628458515691
1.368,1.0013906766449905,5907.256152799305
1.372,0.9746257590133609,5912.489705087053
1.376,0.9432120345773352,5897.713141018625
1.38,0.9091412253431043,5900.987308951935
1.384,0.8764395398574274,5896.352884069876
1.388,0.8507351252065259,5898.178772821727
1.392,0.8379676073333119,5887.727445239359
1.396,0.8427663661788328,5895.283346324456
1.4,0.867140752560823,5900.143476339574
1.404,0.9098975930366303,5903.972335881248
1.408,0.9668215678724446,5898.489513309246
1.412,1.031383359161796,5899.15132675926
1.416,1.095723225380645,5892.572997845559
1.42,1.1517917586916242,5888.689820493722
1.424,1.1925823894535421,5904.199859264513
1.428,1.213298478779233,5896.225400398503
1.432,1.2122148332554077,5908.334698157384
1.436,1.1910308423933649,5901.302384384654
1.44,1.1546226816938026,5899.833303880815
1.444,1.110207936072333,5901.270354746401
1.448,1.0660251176946782,5906.422273571264
1.452,1.0297241457489825,5899.1428923389285
1.456,1.006765321789378,5900.787366672325
1.46,0.9992052807387868,5896.110516086491
1.464,1.0052571485390214,5905.372449629484
1.468,1.0198686677385733,5901.4038577219
1.472,1.0362034686153394,5908.005805734325
1.476,1.0474719903206589,5902.481599176288
1.48,1.0484176437008685,5896.633874788302
1.484,1.0361210943542372,5897.447044706703
1.488,1.0102785600128017,5900.378952410125
1.492,0.9732169354528741,5899.911081536694
1.496,0.9296424191955934,5905.9199775024745
1.5,0.8859336585425588,5898.622809543202
1.504,0.8489225855862266,5897.465836740416
1.508,0.8243903132256182,5907.847689167131
1.512,0.8157059478325035,5901.587846843952
1.516,0.8230449069727038,5894.853285960718
1.52,0.8434377505942589,5896.666871006038
1.524,0.8716168504918006,5896.335207199238
1.528,0.9013878606819701,5903.650909056938
1.532,0.9271369801953885,5902.80484110204
1.536,0.9450902864060865,5910.073894153725
1.54,0.9540139514821354,5901.682749148683
1.544,0.9551535379626,5897.482537572704
1.548,0.9514129633749023,5897.800665709388
1.552,0.9460813454134706,5902.8224376919225
1.556,0.9416486503669412,5896.882808414426
1.56,0.9392021441527951,5901.036569835597
1.564,0.9385799300895656,5902.136380385026
1.568,0.9390846323715136,5895.275268351244
1.572,0.9403382865014043,5889.981655798958
1.576,0.9428576263097359,5905.08855264013
1.58,0.9480857308287179,5898.354520464368
1.584,0.9578512717765435,5898.247809574381
1.588,0.9734757461004796,5905.10404553927
1.592,0.994917733337236,5907.256981087059
1.596,1.0203434285990438,5906.90576796747
1.6,1.0463351890792858,5904.606044807935
1.604,1.0686665967684486,5905.932269379628
1.608,1.0833256068248585,5898.834606803574
1.612,1.087411090945185,5894.666669630879
1.616,1.0796712679308962,5901.489903440485
1.62,1.0606334141508449,5894.707660821578
1.624,1.0323774838894424,5902.922366407863
1.628,0.9980766002923009,5899.525375659035
1.632,0.9615028539180589,5893.298838717507
1.636,0.9266845778974931,5903.402993918822
1.64,0.8977214632479972,5896.753475652639
1.644,0.8785301460651138,5892.650282802845
1.648,0.8722519079535117,5911.857755489463
1.652,0.8803256366618086,5896.303829709846
1.656,0.9016212349617034,5901.078655994724
1.66,0.9321841587249049,5897.898932911716
1.664,0.9658998423391575,5899.065514857882
1.668,0.9959219535426467,5899.322107779894
1.672,1.0163365637249264,5901.5189491832825
1.676,1.0234771439520018,5899.38434519146
1.68,1.01656295196853,5903.811107231462
1.684,0.9976805065865438,5900.603007791879
1.688,0.9713056378009428,5904.863296636356
1.692,0.9435265621450136,5908.617059115503
1.696,0.9210356906618243,5903.420229276665
1.7,0.9099418116727651,5889.061190292891
1.704,0.9145154708828868,5896.616720833822
1.708,0.9360734125773299,5906.822556843072
1.712,0.9722789858527272,5899.722956677522
1.716,1.017123424559083,5898.213578742404
1.72,1.0617611142729646,5895.847722865249
1.724,1.096224684541424,5904.083995688424
1.728,1.1117778180964486,5890.747014825147
1.732,1.1032765577140389,5902.0218092060495
1.736,1.0706769239071428,5898.271270838922
1.74,1.0190655022375967,5903.181003372656
1.744,0.9572336020608727,5894.464747128515
1.748,0.8954107305020113,5898.631260373354
1.752,0.8429475303266681,5901.66436971622
1.756,0.8065399680970157,5900.557006496184
1.76,0.7892960442106418,5899.627130697711
1.764,0.7907134023907968,5904.554315839666
1.768,0.807434674324252,5895.093211491033
1.772,0.8344646924245124,5890.874601820199
1.776,0.8664400876949646,5901.094569551837
1.78,0.898607130428592,5900.166697115136
1.784,0.9273703020195228,5898.261656582797
1.788,0.9504855848887029,5897.574131336227
1.792,0.9670376562436825,5900.835150590484
1.796,0.9772675292914534,5899.65325746063
1.8,0.9822477476419434,5902.152679897633
1.804,0.9834203077511282,5893.602679415702
1.808,0.982102382774076,5893.460432126412
1.812,0.9791729196127864,5899.445375922229
1.816,0.9751607306369111,5907.695174472759
1.82,0.9707249501908308,5904.412249582399
1.824,0.9671284570799106,5906.501019320008
1.828,0.966116103280558,5885.431453350647
1.832,0.9689372362528169,5901.712802660146
1.836,0.9749597528345485,5904.496366121052
1.84,0.9808473082784466,5912.104826484551
1.844,0.9811182007275621,5895.519561246348
1.848,0.9701169645119533,5899.544072811499
1.852,0.9445508262769768,5898.104073952877
1.856,0.9053588471045411,5901.823806813332
