时间(s),电压(V),幅值(高频80K)
0.0,1.2931278697593227,5899.171929579209
0.004,1.2155248110459393,5900.405633156456
0.008,1.139159426821498,5900.188284902295
0.012,1.066035057796083,5898.655755827751
0.016,0.9980564998182792,5901.646520979501
0.02,0.9370422020552013,5904.518977985241
0.024,0.8849449378471418,5893.287771187739
0.028,0.8442403092449848,5901.177594398769
0.032,0.8180615115711831,5900.548775304514
0.036,0.8096486608363375,5906.783687871627
0.04,0.8211709799887823,5894.852946777699
0.044,0.8524857870805702,5909.823908229085
0.048,0.9004444729245937,5899.924755628168
0.052,0.9590170800918367,5902.40532331362
0.056,1.0201811689057814,5907.43621161364
0.06,1.0754149025070867,5910.674422284521
0.064,1.1175936902311223,5902.647439869584
0.068,1.1428802926540456,5892.987369491415
0.072,1.1519145185932598,5906.183411104247
0.076,1.1496429106454082,5897.85752202458
0.08,1.1436563658414143,5898.811737991882
0.084,1.1415936375123248,5897.743421411399
0.088,1.1485451246352765,5904.057034355536
0.092,1.1653261609577814,5899.371450391343
0.096,1.1881757337901968,5908.417319458446
0.1,1.2100102330176743,5893.956378180136
0.104,1.2228231768528552,5896.888297046887
0.108,1.2203219466571247,5906.560580592029
0.112,1.199772018429208,5898.426758430277
0.116,1.1624401386097925,5898.7955154263655
0.12,1.1127385622843207,5901.125091651187
0.124,1.0567130815834072,5893.404537660611
0.128,1.0005903032274253,5902.240459800758
0.132,0.9497730302864242,5898.641802179145
0.136,0.9082964028550575,5895.083650474787
0.14,0.8786224600458898,5898.984471542346
0.144,0.8617192458878861,5910.261161696951
0.148,0.857410792547501,5901.192040098068
0.152,0.8648918089771208,5902.945166922476
0.156,0.8831772193325585,5888.530167000436
0.16,0.9112500878688555,5901.208233653054
0.164,0.9478218652729442,5910.13707420726
0.168,0.990840543094065,5902.659210794557
0.172,1.0370601188824728,5891.198538875192
0.176,1.0820180420246293,5899.86858764778
0.18,1.1205735649980584,5902.076965898588
0.184,1.1478177856774279,5896.982975589461
0.188,1.1599720499063326,5901.840415782413
0.192,1.1550343672831793,5901.053238246732
0.196,1.1332134248351808,5898.99791454285
0.2,1.0972719389151846,5895.763646713102
0.204,1.0527119065913224,5910.782729131725
0.208,1.007469831123718,5894.857528615097
0.212,0.9707297568509042,5903.533929034895
0.216,0.9507961634279477,5905.56504945178
0.22,0.9525672173347295,5898.818892277823
0.224,0.9755674631509137,5903.479017404275
0.228,1.013415380775988,5909.287746394529
0.232,1.0551176037462053,5906.106168711602
0.236,1.0879851270365735,5902.993924971318
0.24,1.1014037676148267,5903.234561017806
0.244,1.0902495434953128,5898.486394884261
0.248,1.0566626348787074,5899.931715723904
0.252,1.0094196186894295,5906.647135596297
0.256,0.9611393553048514,5904.438314536598
0.26,0.9244840414126466,5905.597442886457
0.264,0.908817788030665,5899.119059592247
0.268,0.9183430798563187,5900.904750224382
0.272,0.9519571738620599,5895.433040797384
0.276,1.0044494018337817,5896.147963439266
0.28,1.0683450863636876,5895.9539914442375
0.284,1.1356370966828462,5898.270210639941
0.288,1.198863189178319,5901.234724189467
0.292,1.2514579586801038,5899.035080341961
0.296,1.2877649985754183,5895.735734335533
0.3,1.3032516570562571,5901.525990179579
0.304,1.295253603540822,5891.564964575461
0.308,1.264107343958482,5906.99190650016
0.312,1.2140610587155385,5895.295538288202
0.316,1.1532120761683522,5904.585830066583
0.32,1.0920848604507998,5899.553785780794
0.324,1.0411682863935425,5901.986367460172
0.328,1.008307279740406,5894.587931740574
0.332,0.9969087688350119,5895.075591297946
0.336,1.005523699634716,5908.581060708491
0.34,1.0288239917797681,5900.029804362573
0.344,1.0595241371241098,5903.967343801599
0.348,1.0905052881500081,5898.192105695425
0.352,1.1164057437078887,5892.520245846101
0.356,1.134278885372279,5895.768873546351
0.36,1.1434005974533374,5902.8066697848335
0.364,1.1446371667634276,5902.219977262509
0.368,1.1398042900172156,5900.291912912526
0.372,1.1312450226361281,5900.0632008306
0.376,1.1216087914945532,5892.911846834135
0.38,1.1136354047486272,5902.003021414525
0.384,1.1097246996933585,5891.737278100677
0.388,1.1112659956123325,5899.110303427483
0.392,1.1179866060289536,5905.459386356059
0.396,1.127705094666202,5900.728181389341
0.4,1.1367460627558947,5894.657557092912
0.404,1.1409906573339992,5904.909322175688
0.408,1.1372414785053877,5904.175392931116
0.412,1.1243945514242686,5905.633462974167
0.416,1.1039329218540923,5905.6504318323405
0.42,1.0795066152005224,5902.627695306954
0.424,1.0557587373950266,5908.078192205754
0.428,1.0369112291334581,5890.021689899951
0.432,1.0256999985936253,5897.838402093076
0.436,1.0229744570827894,5903.051594368437
0.44,1.027885462312791,5898.456537694166
0.444,1.0383827703727357,5891.596883018048
0.448,1.051781145143653,5900.3771765561205
0.452,1.0652787475938936,5895.371437383676
0.456,1.0764045150157082,5905.6546249447165
0.46,1.0834166902560984,5894.004471994541
0.464,1.085660497841889,5897.695868117781
0.468,1.0838022601589776,5891.283853152704
0.472,1.0797605088863247,5905.9641714381305
0.476,1.0761887984970826,5899.434098643276
0.48,1.075572557639134,5905.3888292899455
0.484,1.0792475148156189,5901.009980912454
0.488,1.0867375958067143,5904.033073725071
0.492,1.0956923551656486,5898.92752104444
0.496,1.1024913763023954,5893.578365265787
0.5,1.1033859461664266,5896.426586149861
0.504,1.0958613870650444,5890.683085063429
0.508,1.0797384048699838,5898.116331866513
0.512,1.0575431906109647,5899.21991187794
0.516,1.0339523866783586,5898.19708699867
0.52,1.0144825295291546,5899.720917983551
0.524,1.003841024258,5897.882194440272
0.528,1.0044767386265356,5900.4116862194505
0.532,1.0158508169705607,5911.268277375187
0.536,1.0347029424104703,5906.708044740841
0.54,1.0561779339647148,5901.87771207216
0.544,1.0753280344446665,5887.305073751629
0.548,1.0883957580645867,5905.032812723832
0.552,1.0934693413349472,5893.404787006033
0.556,1.0904911909458492,5906.952292777673
0.56,1.0809119650095422,5901.151270809947
0.5640000000000001,1.0672942978039432,5911.755917443365
0.5680000000000001,1.052964691824746,5895.276375951904
0.5720000000000001,1.0416453070675538,5902.0958266794405
0.5760000000000001,1.0369921727317353,5906.754313115572
0.58,1.0420573442550336,5901.7676405638485
0.584,1.0587621503825864,5898.088005259485
0.588,1.087462823573773,5895.79480942151
0.592,1.1266537432591295,5898.30992067549
0.596,1.172856259493865,5897.411135209673
0.6,1.220768966801915,5892.208121894176
0.604,1.2637489768535473,5897.721247044018
0.608,1.2946510946911896,5894.401958305614
0.612,1.3069966897132883,5906.584922715615
0.616,1.2963455772125207,5907.21423002933
0.62,1.2615769090701199,5904.7650838417285
0.624,1.2056399959718045,5905.105437796011
0.628,1.1353667801248886,5889.982739116092
0.632,1.060203507198521,5895.653709891281
0.636,0.9901393623248848,5894.812685495263
0.64,0.9334913172008482,5897.799766391403
0.644,0.8952906628520514,5901.340993742484
0.648,0.8767126253296392,5894.509861852942
0.652,0.875540530269136,5903.077466440142
0.656,0.8873621534591591,5900.602023038685
0.66,0.9070803040372738,5905.291469382887
0.664,0.930296310456732,5901.339687854797
0.668,0.9542154041784051,5893.114794836147
0.672,0.9779013319575743,5905.00687497426
0.676,1.0018844982699149,5899.383384576042
0.68,1.0273250634429942,5907.064502838248
0.684,1.0551302695625597,5897.139332316026
0.6880000000000001,1.0854189367396276,5902.797353661597
0.6920000000000001,1.1174395367262169,5898.492247698602
0.6960000000000001,1.1497405632283986,5898.509397304994
0.7000000000000001,1.1803512524545874,5899.826868208094
0.704,1.2069380047111613,5909.273434908349
0.708,1.2270817557494316,5904.461795296517
0.712,1.2387601535277202,5902.880734929427
0.716,1.2408857200147758,5899.407570083881
0.72,1.233607498498644,5897.203583204687
0.724,1.2182065106383355,5894.348087986549
0.728,1.1967142676632059,5899.036173120651
0.732,1.1715628038088806,5903.680855475868
0.736,1.14544406745658,5896.201612859385
0.74,1.1212618687218425,5895.225767388616
0.744,1.1019005224600626,5900.572188265539
0.748,1.0896507938471176,5912.561148363815
0.752,1.0854405843722843,5907.161144527268
0.756,1.0882723622457096,5894.888017825548
0.76,1.0952320837244736,5904.18640354851
0.764,1.1021284483415528,5894.004309454256
0.768,1.1045182744797872,5901.490040371258
0.772,1.098777870723409,5894.413890904752
0.776,1.0829724359942656,5897.840427195143
0.78,1.0573986085754457,5905.833022890703
0.784,1.0246888690161304,5901.844898406896
0.788,0.9893245291069515,5902.286310940085
0.792,0.9565385285842085,5903.089096173797
0.796,0.9309673374799433,5897.779695556504
0.8,0.9157091644429958,5898.605115874543
0.804,0.9122688561403952,5894.728403817369
0.808,0.9212486911979967,5894.840903095744
0.812,0.9430641372186939,5912.29696494686
0.8160000000000001,0.9779300306450496,5898.165580959731
0.8200000000000001,1.0249516409905526,5902.231831367627
0.8240000000000001,1.080914669123499,5894.320053567271
0.8280000000000001,1.139690740797115,5898.256754202994
0.8320000000000001,1.1928381808251383,5904.367495653153
0.836,1.2313051256879703,5899.957729428737
0.84,1.2476315798633706,5892.64307245698
0.844,1.237922963509174,5894.593812358478
0.848,1.2030262220075243,5899.545310154809
0.852,1.1486081231794787,5893.06192554834
0.856,1.084136280372946,5890.234763613153
0.86,1.0210490622019126,5901.2402704299175
0.864,0.9705802626787534,5901.697437992597
0.868,0.9417227347967537,5896.348778603501
0.872,0.9397221606218613,5888.93047022642
0.876,0.9653466493644007,5907.5918380727
0.88,1.014979511813211,5894.750288412885
0.884,1.081384260299808,5886.00664907653
0.888,1.1549182092062993,5891.137808849557
0.892,1.2250252362385443,5902.067309338885
0.896,1.2818628011960538,5895.546331404501
0.9,1.3178457817070592,5899.016106319828
0.904,1.3288293902627668,5894.570377207537
0.908,1.3146904231362282,5901.527214485275
0.912,1.2791677478925128,5904.222959370819
0.916,1.2289551479754264,5886.690677178259
0.92,1.1722057313705212,5905.72736393539
0.924,1.1167886455126095,5897.112390289118
0.928,1.0687775133818203,5906.563280949897
0.932,1.0316266549840722,5902.750710274044
0.936,1.0062022187559125,5896.714544430037
0.94,0.9914176530058548,5904.535406478791
0.944,0.985016811185509,5903.846579121221
0.948,0.9842043259619427,5895.994451336717
0.952,0.9861160787478518,5898.5464562730685
0.956,0.9882340865273789,5900.248633055534
0.96,0.988735902094907,5892.346382738648
0.964,0.9866514905645948,5896.697166909786
0.968,0.9817498776225693,5899.868390015557
0.972,0.974251403606254,5905.912085112541
0.976,0.9646072578281406,5905.89162602693
0.98,0.9535502953804625,5898.326493859063
0.984,0.9423642887216698,5897.531052317863
0.988,0.9330468835639716,5901.878089444942
0.992,0.9280382316922906,5903.9280080422
0.996,0.9294870503708405,5903.169459901179
1.0,0.9383769000301702,5909.595321545504
1.004,0.9539769555174399,5901.610052296847
1.008,0.9739342690905115,5897.007798648783
1.012,0.9949780309185629,5903.918571319386
1.016,1.0138754074100973,5895.117452571083
1.02,1.028200800857434,5896.0578278910025
1.024,1.0367070359197117,5894.141997659212
1.028,1.0393974866002675,5898.826162873636
1.032,1.0375003272955603,5902.573639844263
1.036,1.0333787586990837,5895.341054022964
1.04,1.030215486584293,5902.544862293005
1.044,1.031342739126368,5905.039848686432
1.048,1.0393139079979132,5903.412401545465
1.052,1.0550013988228255,5892.018897251862
1.056,1.0770558566667436,5894.409593434882
1.06,1.1020022622034569,5903.872097596262
1.064,1.1250542710215763,5904.518156925651
1.068,1.14142024000704,5896.631097188171
1.072,1.1476536985137817,5906.454191769836
1.076,1.1426263319192582,5896.919741890765
1.08,1.1278802501853797,5894.378666662396
1.084,1.1072889124322483,5901.842463326095
1.088,1.086105761873824,5896.715087389464
1.092,1.0696385196257816,5894.071924818695
1.096,1.0619003956129127,5901.368757888448
1.1,1.0645835945451392,5891.027401446138
1.104,1.076603616715397,5913.431951322611
1.108,1.094351875686606,5900.425110208786
1.112,1.1126555503638216,5900.00316150448
1.116,1.126233732397482,5897.951200386774
1.12,1.1312416818456474,5898.189284613283
1.124,1.1264344629511982,5905.024077775574
1.128,1.113565575614722,5908.608588032266
1.132,1.0968322681255418,5894.400506003802
1.136,1.0814790980185578,5904.2158062039225
1.14,1.0719982315517151,5899.226402657998
1.144,1.070561067191113,5899.020038334425
1.148,1.0762491411166313,5910.493685436071
1.152,1.0853216028835724,5894.847792531769
1.156,1.0923528244656033,5901.675253691142
1.16,1.0918509972371695,5907.95773431737
1.164,1.0799631218095107,5901.303893475656
1.168,1.0558860172087876,5897.872939898888
1.172,1.02254836635724,5898.653757904267
1.176,0.9861965623830657,5899.335202479152
1.18,0.9548606062433357,5904.684657493145
1.184,0.9361196595199393,5906.089054906784
1.188,0.9348539058988989,5895.150376696784
1.192,0.9517040943615771,5901.06100684809
1.196,0.9828159511168695,5898.388535116435
1.2,1.0210792416238648,5901.504559134093
1.204,1.058489940929351,5898.951527308117
1.208,1.088747887085273,5906.842036555949
1.212,1.109095393389874,5902.979624227584
1.216,1.120735537745262,5895.88199279405
1.22,1.1277162496816058,5899.2142001842585
1.224,1.134750389896069,5906.547057796542
1.228,1.1448922378516213,5905.496196191629
1.232,1.1580381698628943,5896.855507122296
1.236,1.1707962905560867,5898.829245391848
1.24,1.1776841983711253,5895.179017211215
1.244,1.1731858962616821,5900.554199286676
1.248,1.1539796142534238,5902.274090526702
1.252,1.1205970908794443,5901.907496944253
1.256,1.0779195420290755,5890.293019490719
1.26,1.0342570084365166,5896.106167948443
1.264,0.9992113658354916,5905.492510510089
1.268,0.9809733775453342,5900.702513027402
1.272,0.9839838709414926,5903.451063360022
1.276,1.0077869242533366,5892.91425807745
1.28,1.0473892301409178,5905.477500921059
1.284,1.0948138259383413,5895.76166402733
1.288,1.1411635063412642,5910.439772167687
1.292,1.1785065580410685,5900.594391372705
1.296,1.2011572076816428,5904.040802390802
1.3,1.2062529722011772,5904.268306509644
1.304,1.193738986211483,5899.310428461
1.308,1.1659021851654534,5896.084577543973
1.312,1.126584653373828,5892.636046027383
1.316,1.0802565469955676,5901.902311761615
1.32,1.0311915105722795,5890.519114762828
1.324,0.9829569398593164,5904.715295226256
1.328,0.9382960632033687,5901.135584332417
1.332,0.8993083281385111,5900.4653084876345
1.336,0.8677011299159205,5898.095837204949
1.34,0.8448528244250425,5901.928005098566
1.344,0.8315651682086301,5901.085597914915
1.348,0.8276689832085383,5902.243020183466
1.352,0.8318649812454618,5902.9424004910525
1.356,0.8420971597646153,5910.1926954112005
1.36,0.8563886822114072,5903.576128667786
1.364,0.8736958224600911,5902.701553377157
1.368,0.8942392153791981,5901.303229623994
1.372,0.9190428469035714,5902.183845876
1.376,0.9488931721084698,5904.877158800219
1.38,0.9833025912998218,5897.942448389108
1.384,1.020055029168432,5902.148524784756
1.388,1.0555408773394905,5901.2117880536
1.392,1.0856512356723915,5893.684318339909
1.396,1.1067918572608046,5903.903826697792
1.4,1.1166255642780862,5901.265471633007
1.404,1.1143090737523915,5897.631800109489
1.408,1.1001913711577247,5902.672672624332
1.412,1.07520175734185,5899.108353154909
1.416,1.0403526822185238,5900.546250792645
1.42,0.9967126950162257,5901.735132288412
1.424,0.9458874662129675,5895.697026722683
1.428,0.8907216188747472,5896.568277680978
1.432,0.8357900048626429,5895.514865797095
1.436,0.7873121101198186,5896.624998408025
1.44,0.752331031416311,5904.939199620665
1.444,0.7372748247008797,5899.816595898569
1.448,0.7463038555360526,5897.655269043062
1.452,0.7800213497473703,5892.217768057764
1.456,0.8350330670855252,5897.165824375405
1.46,0.9045079358832576,5903.147367776883
1.464,0.9795395432705697,5896.834659846196
1.468,1.0509186713894954,5891.900448232164
1.472,1.1108827473909673,5906.361849205667
1.476,1.1544320187250763,5901.712680399762
1.48,1.1799070116102812,5903.936379428613
1.484,1.1887342081112295,5899.87978922288
1.488,1.1845010198282213,5894.083815613842
1.492,1.1717177619156662,5894.35175561568
1.496,1.1546991763869279,5909.929271696291
1.5,1.1369030825001114,5901.006827419413
1.504,1.120806927942295,5897.558462502086
1.508,1.1081213688701457,5906.898022258533
1.512,1.1000174343952602,5904.584527997139
1.516,1.0971401802308414,5894.87061721685
1.52,1.0994019877490868,5904.234535481335
1.524,1.1057479353370985,5893.425905917619
1.528,1.1141496603534853,5900.426489886087
1.532,1.121967496169102,5893.197604345826
1.536,1.126595863048901,5895.602721224735
1.54,1.126146793097713,5904.322017439907
1.544,1.1199405034833338,5898.171795191106
1.548,1.1086772866209296,5908.773298427644
1.552,1.094228819059201,5893.427532344319
1.556,1.0790357061793334,5894.873332075782
1.56,1.0652408177499684,5894.972864491663
1.564,1.0538948008952203,5897.880215480715
1.568,1.0446476906479172,5894.793642285121
1.572,1.0361298135712198,5902.076677222342
1.576,1.0268101724424181,5900.643113507759
1.58,1.0158098090936527,5895.440280928368
1.584,1.003202529074916,5903.397221657128
1.588,0.9897143219560399,5898.736641658943
1.592,0.9761200412833998,5899.680270702209
1.596,0.9627468171261937,5900.047896862253
1.6,0.9493340768674586,5890.1059150488445
1.604,0.9352676243411128,5900.656599335328
1.608,0.9200271597644333,5897.144197786679
1.612,0.9036009491863014,5896.744397797639
1.616,0.8866845024639516,5904.997058444026
1.62,0.8706674583968347,5895.120501377663
1.624,0.8575288681736797,5907.56349322815
1.628,0.8496600505972662,5895.294929847991
1.632,0.8494522037809081,5895.460974596053
1.636,0.85851184952124,5898.910648037991
1.64,0.8766808048967202,5890.729730043951
1.644,0.9013610970418072,5902.950233156887
1.648,0.9276519633505409,5899.730298159493
1.652,0.9494837121135002,5908.148051989352
1.656,0.961501746192552,5896.765834281348
1.66,0.9610718776554065,5897.902910026287
1.664,0.9495418699016074,5909.151882456703
1.668,0.9320113148204034,5900.8716065567405
1.672,0.9154932669001747,5906.900921380102
1.676,0.9062088144568266,5906.640018338216
1.68,0.9072096019852135,5905.026980837022
1.684,0.9172867783832712,5899.700191530597
1.688,0.9315021617178154,5902.295412800918
1.692,0.9430486418319889,5907.117477968453
1.696,0.9456624504256821,5901.046294029546
1.7,0.9356188760461415,5897.789204018683
1.704,0.9126050121244837,5905.790546133381
1.708,0.8793614718731904,5899.495915941621
1.712,0.8405507586633097,5896.051215114024
1.716,0.8015335897813507,5904.352252299101
1.72,0.7675494998030902,5902.183279583549
1.724,0.7433850160946349,5893.991014435651
1.728,0.7332711383690987,5898.994840195033
1.732,0.7406745247173626,5902.987391816377
1.736,0.7677985542109933,5895.2941933420525
1.74,0.8148254271969656,5905.136855387945
1.744,0.8790989459127243,5901.439093351406
1.748,0.9545744332864426,5901.6637255424985
1.752,1.0319293450566591,5906.916593825464
1.756,1.099626394012014,5897.6836711068745
1.76,1.1459075839395627,5897.840548140472
1.764,1.1612927355085578,5899.674344493274
1.768,1.1408565498019543,5896.371250924738
1.772,1.0855551608877,5895.902863469715
1.776,1.002230419784321,5892.774386643925
1.78,0.9024205890205815,5898.67331940074
1.784,0.8004099080607999,5896.268605060807
1.788,0.7109631761174576,5906.066894243986
1.792,0.64708063717323,5907.265440704689
1.796,0.6180107655257435,5904.935493862192
1.8,0.6277173995210444,5897.473426752959
1.804,0.6740416021133377,5898.952466138939
1.808,0.7488499676859638,5905.174085152355
1.812,0.8393348043969966,5893.120794423408
1.816,0.9303074150840881,5903.092000817518
1.82,1.0070224638139258,5900.716406182116
1.824,1.0579511395132715,5893.7274037318775
1.828,1.0769338721825297,5897.941898098257
1.832,1.0642129798188644,5895.080123559172
1.836,1.0260237020973562,5901.47005535051
1.84,0.9727945997487405,5903.524204896434
1.844,0.916490698822437,5897.2948483158
1.848,0.8679432326612504,5913.071650909376
1.852,0.8349343840280923,5905.200011526623
1.856,0.8214151357090249,5901.3935780463735
