时间(s),电压(V),幅值(高频80K)
0.0,0.7438731781960656,5899.404457240657
0.004,0.8027702233260949,5898.996051191834
0.008,0.8648799430680572,5898.346048230284
0.012,0.9319878421104034,5895.442353302355
0.016,1.0037507666067236,5902.839110947047
0.02,1.0774359141750052,5895.338860621688
0.024,1.1484735004947284,5898.60841945393
0.028,1.2115535320517345,5904.211587953827
0.032,1.2616785957790813,5889.546219860998
0.036,1.2947909088562217,5897.594472380325
0.04,1.3081361808620344,5904.044991355599
0.044,1.3007690293959673,5898.1068031041295
0.048,1.2742521765763342,5896.694742710006
0.052,1.2330918440174914,5900.434061476066
0.056,1.1843807508441067,5904.6733034104345
0.06,1.136534780527859,5893.493667958127
0.064,1.097488321407427,5901.40114607969
0.068,1.0729238360924547,5898.451905708482
0.072,1.0650438304712566,5900.651177630679
0.076,1.0722061247689028,5909.421266316623
0.08,1.0895497151232751,5899.171477695008
0.084,1.1105057334775508,5907.69334881675
0.088,1.1287648941679358,5894.155945701444
0.092,1.140017406056515,5897.984815912204
0.096,1.142856697541863,5905.682692449907
0.1,1.1386449767545144,5897.380588645792
0.104,1.1305738605389328,5908.297476038357
0.108,1.1223554237506588,5897.620469576708
0.112,1.1169454916211998,5901.170541284065
0.116,1.1155924363280232,5899.81111847843
0.12,1.117444702837034,5902.9206031286
0.124,1.119887974101279,5898.655593743586
0.128,1.1195676050952013,5896.277843518421
0.132,1.1137224528520018,5907.286024493364
0.136,1.1013057446025456,5888.915757361902
0.14,1.0835547811533321,5900.816694828418
0.144,1.063953672278439,5901.7726386177865
0.148,1.0476099725108745,5888.055351877288
0.152,1.0400187212011383,5887.531866437156
0.156,1.0453459642689853,5896.495422973097
0.16,1.064763351614822,5888.299681814876
0.164,1.0956095883671342,5909.166274639994
0.168,1.1319033318637874,5898.373830872862
0.172,1.166100580914727,5902.096540760194
0.176,1.1913960175503717,5901.712707300297
0.18,1.203649185666229,5902.617764690708
0.184,1.2022226086351038,5898.573794957441
0.188,1.1894967061550732,5910.290126619639
0.192,1.1693898443458168,5898.208004132611
0.196,1.1456506880495596,5897.586192563084
0.2,1.120759027833347,5898.659548765868
0.204,1.0958727293412502,5899.512792210749
0.208,1.0716211400048996,5898.739621401973
0.212,1.0491027030513171,5894.677572830737
0.216,1.0304610191220054,5891.744242656166
0.22,1.0187665692202081,5901.693555598364
0.224,1.0173065974079898,5897.146933415264
0.228,1.0285852927553991,5906.261955419738
0.232,1.0533492200435965,5900.211278798205
0.236,1.0898756089784605,5900.826513535612
0.24,1.1337163999813216,5899.138556285849
0.244,1.1780997567615221,5903.943016097601
0.248,1.2150952217452562,5888.521049780138
0.252,1.2373237728599131,5900.929803153967
0.256,1.2396456859522313,5895.071083605091
0.26,1.2202469657924828,5888.117968918392
0.264,1.1808900188142406,5913.622416195838
0.268,1.126468239286711,5902.805440261835
0.272,1.0641574339514985,5909.642279700461
0.276,1.0023831984647913,5900.676837513131
0.28,0.9496590534540511,5902.813220532676
0.284,0.9132831893320047,5894.280675022495
0.288,0.8979930008857634,5897.326444621051
0.292,0.9048621441686112,5899.123040050783
0.296,0.9308425038589683,5899.284113517954
0.3,0.9692983686236357,5898.692225458197
0.304,1.011570688370066,5902.624141467779
0.308,1.0491383411528408,5897.515908516341
0.312,1.075635432233984,5894.259249360954
0.316,1.0880847827673172,5902.182965200815
0.32,1.0871052115634565,5906.837340198498
0.324,1.0762223705679432,5892.682840569772
0.328,1.0605882654915004,5899.795448590162
0.332,1.0454827641135593,5893.7528796234665
0.336,1.0350279812269139,5903.899610648128
0.34,1.0314846715050412,5901.714861107887
0.344,1.0352220421803933,5894.838280433094
0.348,1.0451472773919792,5904.320284748575
0.352,1.0593088875469485,5895.853566786718
0.356,1.0755234009892451,5906.058144867542
0.36,1.0919754603562568,5901.844315461324
0.364,1.1076736102102225,5890.704322635672
0.368,1.1225417943667362,5900.582104406512
0.372,1.1370331122814048,5900.642580556173
0.376,1.1514758404738135,5903.283563589495
0.38,1.1655844628194831,5892.675745692657
0.384,1.1784287457875815,5900.836876340604
0.388,1.1887872041023888,5900.042991455392
0.392,1.1955692240216198,5906.418522743926
0.396,1.1980352458146557,5901.9660327234
0.4,1.195754972303891,5898.49217222814
0.404,1.1884400479910218,5887.185936070533
0.408,1.1758731645932867,5905.014428548674
0.412,1.158066098773914,5904.204161691048
0.416,1.1355586734962242,5893.654101973362
0.42,1.1096569318216611,5897.961153132817
0.424,1.0825391672783509,5902.537364721122
0.428,1.0573000606586496,5899.718701268934
0.432,1.0378896433040334,5894.275686817668
0.436,1.0286828949656281,5894.991138993981
0.44,1.0334628599658537,5896.126809507509
0.444,1.0539996406936085,5896.402395726412
0.448,1.0888392172558368,5906.322871575156
0.452,1.1329885805848763,5907.008976559906
0.456,1.178792970941202,5897.632341087789
0.46,1.2177306407863426,5906.2819589249
0.464,1.2425114509336035,5905.170103034606
0.468,1.2488896799433384,5899.478298440347
0.472,1.236780459764097,5913.833923241304
0.476,1.210406893433966,5889.719270523414
0.48,1.1773573237159831,5907.238825899845
0.484,1.1467175370532376,5908.587129492061
0.488,1.1267760660213324,5902.646567979685
0.492,1.1229714012192977,5904.896035143367
0.496,1.1366538952662426,5896.724597101415
0.5,1.1649371413734717,5897.450528404052
0.504,1.201578241929807,5902.5571330241855
0.508,1.238593408983643,5894.268631316745
0.512,1.2681988465798901,5897.350922384176
0.516,1.28462451438269,5900.495266094657
0.52,1.2853695320908898,5896.46194124874
0.524,1.271545833114257,5896.679904598897
0.528,1.247122726710217,5902.013967846309
0.532,1.2172329903696262,5902.601440709032
0.536,1.1861866207476124,5903.130172291663
0.54,1.156133287798465,5910.096469804283
0.544,1.1270636522485713,5897.720514490135
0.548,1.098081162826432,5909.278503777346
0.552,1.069110329036774,5898.222478440749
0.556,1.0419839401153999,5901.6476092345765
0.56,1.0202922227333273,5902.710203532248
0.5640000000000001,1.0081219434368525,5902.702106923854
0.5680000000000001,1.0083720414585902,5898.786634347896
0.5720000000000001,1.0214430678394724,5901.460155161981
0.5760000000000001,1.044823427500653,5905.181478778221
0.58,1.0736762549674643,5895.118852694409
0.584,1.10218206433165,5884.448201029678
0.588,1.1251926756108799,5892.231869277422
0.592,1.1396719922924818,5900.7122025152585
0.596,1.1454326830482549,5895.441972481211
0.6,1.144883651271592,5896.0926037808
0.604,1.1418667169121712,5904.112905343074
0.608,1.140025524341423,5899.558424897749
0.612,1.1413473115081354,5904.017998738051
0.616,1.145455042080217,5902.983653451453
0.62,1.1498960546167245,5900.555791747105
0.624,1.151235748004755,5895.945682956043
0.628,1.1464856161590422,5898.420136475381
0.632,1.1343707089648185,5900.359418719239
0.636,1.11605389204891,5903.282495801283
0.64,1.095079480088923,5897.467884534172
0.644,1.0764963588421839,5903.049742880084
0.648,1.0653906918476697,5900.517729339025
0.652,1.0652907475595212,5904.421641466007
0.656,1.076956089632231,5895.771395063553
0.66,1.0979488392221985,5898.476845836136
0.664,1.1231980718060879,5895.3351297471845
0.668,1.1464846301870855,5911.766379183631
0.672,1.162398096548299,5896.683653178281
0.676,1.1680429929511422,5891.23955863698
0.68,1.1638082951483817,5899.725952907707
0.684,1.1529024297018036,5901.465241592852
0.6880000000000001,1.1399201759876987,5904.974902703464
0.6920000000000001,1.1291359835881793,5900.655757549258
0.6960000000000001,1.123276302979961,5897.06736487789
0.7000000000000001,1.1232025545843267,5898.425993735926
0.704,1.128412306036388,5896.498147663854
0.708,1.137826702155945,5890.264904139156
0.712,1.1502586136151896,5904.78820947915
0.716,1.1643135317524524,5900.841603347896
0.72,1.178000506858241,5893.770801659015
0.724,1.1886030326337118,5901.749268185462
0.728,1.1931656474391685,5897.464042206392
0.732,1.1894739284409583,5908.767846248441
0.736,1.1770250766612336,5903.142725799745
0.74,1.1574456686681986,5897.695883850871
0.744,1.1340822789274811,5892.018226732578
0.748,1.1108829569723484,5895.74207208131
0.752,1.091021955136711,5898.35138700291
0.756,1.075854632699054,5900.266810442733
0.76,1.0646284832145458,5891.694165868053
0.764,1.0549953694185221,5905.82814695289
0.768,1.044036573543527,5899.180595116266
0.772,1.0294186480290428,5897.690701436708
0.776,1.0103676095083898,5900.23267645321
0.78,0.9882151439159633,5897.312012580086
0.784,0.966321215587847,5900.196243113562
0.788,0.9493203922278107,5893.571465597214
0.792,0.9418966795513644,5900.33136902398
0.796,0.9475174282961164,5900.252314525546
0.8,0.9675740385026309,5890.966050363676
0.804,1.0011550398814626,5900.654920908258
0.808,1.0453561691136377,5905.031637057883
0.812,1.0958268334798973,5900.2019717406165
0.8160000000000001,1.1472989247363952,5900.976407603192
0.8200000000000001,1.1940633123854083,5898.156275313475
0.8240000000000001,1.2305182397905072,5906.829387014319
0.8280000000000001,1.2518766996861876,5894.766411516588
0.8320000000000001,1.2549730156058208,5902.018376995759
0.836,1.2390040190625797,5894.255595525132
0.84,1.2060132200836757,5897.566081951422
0.844,1.1609379733316143,5903.914223650299
0.848,1.1110968552832245,5901.909272188052
0.852,1.065114856448743,5897.401646700632
0.856,1.0314226958480375,5896.17015889641
0.86,1.016588478627911,5902.559510611231
0.864,1.0238633077148427,5890.339712331371
0.868,1.0524020590643068,5902.288142081235
0.872,1.0975060515137969,5898.607602746392
0.876,1.1518595824649156,5901.561371085638
0.88,1.2072837157271572,5899.732896564117
0.884,1.2563226449706462,5906.23173284528
0.888,1.2931688881577308,5898.178137469503
0.892,1.3138903775697877,5904.682770630493
0.896,1.3163150781203345,5903.436604001179
0.9,1.2999826711166174,5898.934689632428
0.904,1.2663113946220885,5898.073655964955
0.908,1.2188252062549574,5903.315738526351
0.912,1.1631559585415256,5905.544584249161
0.916,1.106581804847939,5903.869077186705
0.92,1.0570143672815344,5905.528647327933
0.924,1.0215504369494044,5906.532761798626
0.928,1.0049097371465803,5895.078646512507
0.932,1.008242883998279,5895.944278996988
0.936,1.0288206145862104,5899.744882992042
0.94,1.0608652315041611,5900.75417184925
0.944,1.0972940557408026,5904.839580872835
0.948,1.131722493458477,5907.112284955629
0.952,1.1599921504276498,5901.9959130823245
0.956,1.1807336160508852,5905.724107012386
0.96,1.1948834049979915,5895.641106281481
0.964,1.2044958877781022,5897.716633233777
0.968,1.211450983031254,5890.836149101454
0.972,1.2166074821358404,5902.063035341578
0.976,1.2196307194658895,5901.456386392071
0.98,1.2193762693493966,5903.016171358391
0.984,1.2145460081452037,5900.088781508064
0.988,1.2043429833307726,5898.353717643015
0.992,1.1889255663454188,5901.821089251609
0.996,1.169542731018593,5900.646800989738
1.0,1.1483163378328027,5899.490627726379
1.004,1.1277239560895367,5900.246476991117
1.008,1.1099432249073127,5900.271433695727
1.012,1.09633687774015,5900.243066575249
1.016,1.0873684677739128,5906.372284649633
1.02,1.0830163837968927,5897.93925004011
1.024,1.083397516577528,5897.631419203898
1.028,1.0891127917811763,5898.121185017206
1.032,1.1009680399136397,5897.774839093293
1.036,1.1191368503375745,5892.573331855397
1.04,1.1422647280458802,5896.999451384795
1.044,1.1671604105248485,5903.6779797078025
1.048,1.1894381461358392,5900.461651597203
1.052,1.2049281594180627,5903.245848443911
1.056,1.2112089612182966,5900.999209056662
1.06,1.2085250503159994,5902.4972608304215
1.064,1.1996815191887784,5890.842208097464
1.068,1.1890187625916213,5894.801946710974
1.072,1.1809609277641315,5895.394700531077
1.076,1.1787394322214062,5898.052908279171
1.08,1.183712654998932,5897.731349707802
1.084,1.1953648516311959,5905.761123149465
1.088,1.211783813101393,5898.50165164873
1.092,1.2303095907526675,5903.235604440498
1.096,1.248096659546355,5898.405537889876
1.1,1.2624837026571192,5896.568286687133
1.104,1.2712296562267067,5898.284082284935
1.108,1.2727271750811562,5896.660589365899
1.112,1.2662237888891532,5896.87675924777
1.116,1.2519836157480684,5898.411328760298
1.12,1.2312959237158614,5900.580081372205
1.124,1.2062611251430804,5892.016829837708
1.128,1.179357694467,5898.327017156439
1.132,1.1529459569837595,5898.999993862563
1.136,1.1289847965272537,5908.740370923221
1.14,1.1091326698651562,5906.347824299727
1.144,1.0951135471313191,5895.127501503985
1.148,1.08900739213712,5901.652643703041
1.152,1.093126504887366,5901.920491192414
1.156,1.1093245604961577,5908.561851343228
1.16,1.13786091003359,5894.433897947129
1.164,1.1762202506105486,5891.387892633142
1.168,1.2184702535467957,5902.539258154155
1.172,1.2557218005990596,5903.232282372882
1.176,1.2779525778534468,5898.774048176201
1.18,1.27688326685304,5897.722809894852
1.184,1.2489773603875474,5902.037439039035
1.188,1.1973528261228972,5905.217592884649
1.192,1.1317126896681318,5902.71920548776
1.196,1.06619030127449,5906.256241902618
1.2,1.0158178798478692,5901.847857432823
1.204,0.9927703228928999,5897.214673702343
1.208,1.0034815031415396,5908.881980038815
1.212,1.0472865372113076,5900.359187966422
1.216,1.1166905350010372,5896.835167989239
1.22,1.199002851490293,5894.762648135312
1.224,1.2789672664577159,5902.087610930059
1.228,1.341953473246692,5899.973282406048
1.232,1.3771038644944296,5898.562645993839
1.236,1.379690523811321,5902.260637624356
1.24,1.352048874013122,5902.773585840205
1.244,1.3028146435802468,5894.665031122278
1.248,1.244623081490044,5910.161859668166
1.252,1.1908120939720492,5906.397749604831
1.256,1.1519667679068522,5909.30989415151
1.26,1.133268408367259,5904.923899986255
1.264,1.1334342606535253,5895.301343260458
1.268,1.1455482429378454,5899.155033071954
1.272,1.1595028690069846,5906.715617230043
1.276,1.1653285921467496,5894.533303356882
1.28,1.1564204942702954,5900.085240230933
1.284,1.1316101116827582,5899.904210409258
1.288,1.0953481626671204,5900.859259594657
1.292,1.0559834986182384,5902.734183005731
1.296,1.022864005494269,5903.286529915178
1.3,1.0033253372754443,5895.280491666266
1.304,1.0005307429828938,5906.290702140642
1.308,1.012770107504016,5911.861128032401
1.312,1.0343399835113452,5898.736449264585
1.316,1.0576048882022635,5891.905402676218
1.32,1.0754750269520201,5894.207240275614
1.324,1.0834930423058904,5898.943728755813
1.328,1.0809585876257435,5905.364576555639
1.332,1.0708378302318637,5902.30393578748
1.336,1.0585152423280657,5908.238778769984
1.34,1.0497966457539396,5897.520029297884
1.344,1.0488876545481316,5898.465854240617
1.348,1.0571187018674226,5901.288273051385
1.352,1.0728623973100357,5897.258200786607
1.356,1.0925191308138622,5903.415401228743
1.36,1.1119293350014308,5897.1393429028885
1.364,1.1274676282818747,5901.44994579688
1.368,1.136488477320643,5908.505861920431
1.372,1.1373554252047333,5904.883799806518
1.376,1.129504645200477,5899.137694880904
1.38,1.113737018626024,5894.354122166242
1.384,1.0924895632169007,5900.361924692964
1.388,1.0696348792645793,5902.217009561296
1.392,1.049599226641138,5897.179670572607
1.396,1.0360815760926612,5906.770893371811
1.4,1.0310015760096416,5907.7082622891885
1.404,1.0342262597742868,5896.272131749558
1.408,1.0441463734410015,5902.677664877285
1.412,1.0586280790286433,5897.963347256559
1.416,1.0756810750567787,5891.145788359246
1.42,1.0935207645596154,5894.156896991529
1.424,1.1102716339168344,5900.551534781011
1.428,1.123835017159192,5900.145517179264
1.432,1.1322035168210738,5902.434969645852
1.436,1.1340998087207805,5905.285422384
1.44,1.1296697207168889,5896.437579807939
1.444,1.1209814391527064,5899.630699434337
1.448,1.1120000374233168,5907.877675781011
1.452,1.107673862629569,5901.358748958432
1.456,1.1121560809543223,5897.87988749803
1.46,1.1268695340157704,5894.516175087338
1.464,1.1494771779729056,5900.89005435357
1.468,1.1744396685003984,5902.769222568051
1.472,1.1949759566099878,5897.616699331749
1.476,1.205489040588266,5899.994867520489
1.48,1.2033395794902375,5907.036057003828
1.484,1.1893086717484576,5908.479353931221
1.488,1.1668278043250948,5899.091643734007
1.492,1.1405731537586483,5901.638986217086
1.496,1.1150946369811927,5903.504261437693
1.5,1.0938955686216474,5897.248699591628
1.504,1.0790411015270955,5901.632562966266
1.508,1.0711610728651684,5899.48005923446
1.512,1.069713438925108,5898.545414576384
1.516,1.073459807238874,5903.860713211155
1.52,1.081050247008782,5895.77186511007
1.524,1.091441270546781,5894.388985616121
1.528,1.1038717072011854,5903.390840320412
1.532,1.11742776785752,5904.119946546749
1.536,1.130580483098625,5897.514136594788
1.54,1.1411468552410973,5894.974003957512
1.544,1.146847264943587,5901.191612548794
1.548,1.1461848849924723,5899.070594670076
1.552,1.1390618681130678,5903.998119438016
1.556,1.1266502105363196,5898.787425217213
1.56,1.1105349706767653,5900.16010068378
1.564,1.091675821861095,5899.538257382727
1.568,1.069901147406025,5900.779276567779
1.572,1.0443602590682874,5909.30116113846
1.576,1.0148028338230375,5895.887387439202
1.58,0.9830265432458555,5892.625025439598
1.584,0.953604687408339,5910.0217170907845
1.588,0.9332484141874154,5911.661969532049
1.592,0.9288322323400183,5898.475950219497
1.596,0.9448476597795563,5903.692799434656
1.6,0.9813405813830564,5905.2410817702985
1.604,1.033092493085052,5903.302862064316
1.608,1.0902773294576276,5894.651634342134
1.612,1.140398465934757,5903.190268643527
1.616,1.1710091101422435,5896.203876983419
1.62,1.1725416479441935,5901.529686970946
1.624,1.140595130483238,5902.64197259889
1.628,1.0772034215393442,5901.032089729433
1.632,0.9907929315835863,5891.656986823459
1.636,0.894718309646508,5907.262704211692
1.64,0.8045225656874204,5902.657005675104
1.644,0.7344606931273686,5907.693347175139
1.648,0.6942402703221334,5904.481972798978
1.652,0.6870486454082446,5898.260875428092
1.656,0.7095089346478337,5917.806847066094
1.66,0.7534278159705057,5907.0386362524905
1.664,0.8085548608594038,5897.621605867316
1.668,0.865364343875435,5898.883226227705
1.672,0.9170583066108985,5908.061150865617
1.676,0.960396036908215,5906.521672643151
1.68,0.9953868450334769,5903.100422536986
1.684,1.0241837385847745,5906.975310175452
1.688,1.049624499679766,5901.716153874279
1.692,1.0738148056504335,5905.8581760897205
1.696,1.0970371877470035,5905.874475731949
1.7,1.1172217214714852,5896.271227669607
1.704,1.130224491126209,5898.9548510748655
1.708,1.1310450898867004,5900.720352905712
1.712,1.1157348111793446,5903.228444589608
1.716,1.083256614433271,5903.937277346213
1.72,1.0363563539895926,5902.013578970536
1.724,0.980909585926725,5891.736625059336
1.728,0.9240768321136563,5899.714109091512
1.732,0.872281900173825,5889.8872509782905
1.736,0.8299507138522837,5903.184078141228
1.74,0.7992803881082383,5912.179598624117
1.744,0.780727411433844,5895.988354033839
1.748,0.7737665220389632,5900.768156742854
1.752,0.7775864780865176,5903.440927621972
1.756,0.7915051463202968,5899.088860033305
1.76,0.8149920194831595,5906.409868733403
1.764,0.8473307368179591,5902.206600975313
1.768,0.8870913081504421,5904.613890899338
1.772,0.9316483715571128,5903.184710068919
1.776,0.9769759665921857,5906.7636681171125
1.78,1.0178818187199425,5906.1720240427
1.784,1.0487012774050297,5911.314928645868
1.788,1.0642808923427327,5893.293753565757
1.792,1.0609570548319012,5900.753686741376
1.796,1.0372718901426532,5899.643572781355
1.8,0.9943170018193335,5903.840275513054
1.804,0.9357030009622852,5904.835318342082
1.808,0.8671517318516121,5905.784300420826
1.812,0.7957056911019785,5912.695895560772
1.816,0.7286605008615191,5899.607486680646
1.82,0.6724728815960092,5906.509703003365
1.824,0.6319067074363507,5901.787168775038
1.828,0.6095510193705655,5904.236877790696
1.832,0.6057248662653092,5899.34826217308
1.836,0.6187331672145224,5898.465982881092
1.84,0.6453814339448813,5900.12159670561
1.844,0.6815690911460777,5905.530733141846
1.848,0.7227663349525723,5902.973740131141
1.852,0.7643128959234424,5905.05188300259
1.856,0.8016437989154522,5911.091993624375
1.86,0.8305900726436997,5902.67901840008
