时间(s),电压(V),幅值(高频80K)
0.0,1.240003241111588,5906.432306438632
0.004,1.2119764852113266,5892.735212021274
0.008,1.1878911025900911,5903.117836975475
0.012,1.170959392410844,5892.6596810150095
0.016,1.163087031659027,5901.901148370328
0.02,1.1641802395380934,5900.756010521928
0.024,1.1721831570821397,5894.533692097521
0.028,1.1840962306589669,5896.180987344359
0.032,1.1973674525521611,5895.728999205924
0.036,1.2107397342136141,5906.821417209518
0.04,1.2241539388128293,5898.386573180394
0.044,1.2380484880870302,5896.528898770539
0.048,1.2526422614720223,5898.453025382253
0.052,1.2674946019477455,5900.1585008085385
0.056,1.2813049687757563,5893.448486151158
0.06,1.2918728451592827,5897.900957558756
0.064,1.2962870322298425,5893.516222301002
0.068,1.2914905879320597,5895.039132894634
0.072,1.275205813758164,5890.673271030178
0.076,1.246894101063232,5896.494593104611
0.08,1.2082946826009422,5904.217024692231
0.084,1.1633196911358181,5901.391660679795
0.088,1.1174462956626343,5897.963339198783
0.092,1.0768881876989036,5901.566141275027
0.096,1.0477221180754999,5900.123681587104
0.1,1.0350173900501287,5900.997841387392
0.104,1.0419771404548426,5899.428199250986
0.108,1.0691155107748698,5904.360589387959
0.112,1.1136033838429555,5892.074934203912
0.116,1.1691287966960706,5906.83489583956
0.12,1.2266906664479826,5902.561778810923
0.124,1.276410883680838,5892.567837581815
0.128,1.3098673271107655,5905.751507838152
0.132,1.322110566136299,5904.969674601357
0.136,1.3127049085474407,5896.2546803172245
0.14,1.285619543589302,5902.653677881408
0.144,1.2481872968717378,5896.301040251616
0.148,1.2094654187488718,5900.974730073665
0.152,1.178301707677747,5897.086836038795
0.156,1.1614356217112305,5901.216484719639
0.16,1.1620682177237975,5906.697123652908
0.164,1.179333293375035,5901.582477929528
0.168,1.2088341783794496,5905.46182263318
0.172,1.2439825851897102,5903.311147161103
0.176,1.277628482973823,5902.346538389073
0.18,1.3035775609083924,5900.777939098748
0.184,1.3178131141895681,5893.859910737631
0.188,1.3192792126989021,5895.174174250223
0.192,1.3100258327052445,5894.076649189035
0.196,1.294609335551667,5904.951429551406
0.2,1.278854069085505,5907.040896687359
0.204,1.2682252114620316,5898.085861867811
0.208,1.2661582131912212,5899.573291556245
0.212,1.2728350038211382,5906.788367829928
0.216,1.2849508522630273,5899.118696822532
0.22,1.2967618706316701,5904.72802719848
0.224,1.3021864246902866,5898.038622028931
0.228,1.2972143979044484,5905.476814656764
0.232,1.2816206328882458,5897.588493065086
0.236,1.2591853098398582,5900.4794278127965
0.24,1.2363070176503828,5892.144725585505
0.244,1.2196803133526535,5899.300304914561
0.248,1.2140559850576613,5899.814424494677
0.252,1.2208616566323955,5894.549844374518
0.256,1.2379883721797824,5900.348649102298
0.26,1.2606806464144715,5899.258038130907
0.264,1.2831879365594872,5894.684711369438
0.268,1.300566891593656,5896.7747939434585
0.272,1.309922859906212,5898.549936786543
0.276,1.3106410599399618,5897.858813028877
0.28,1.3036960029149296,5894.8798467322895
0.284,1.2905995186470314,5892.372343179513
0.288,1.2726375426836134,5903.648269533346
0.292,1.2507128484534373,5901.326478325369
0.296,1.225635331531654,5894.102999716332
0.3,1.1984697676325202,5893.460494195791
0.304,1.1706975993838888,5908.54002898313
0.308,1.1442165896826786,5894.706975757751
0.312,1.1212708877357929,5897.715615551865
0.316,1.1042996696346854,5900.611898463932
0.32,1.0956588130220533,5899.531611445713
0.324,1.0972664016655467,5895.86830870722
0.328,1.1103160834315071,5906.377280990196
0.332,1.135190286031217,5892.492263285399
0.336,1.171550341237009,5899.913123437037
0.34,1.2183556779990552,5912.668035300686
0.344,1.2735253777227782,5894.776088056137
0.348,1.3332757623440286,5899.479824793096
0.352,1.391623388818708,5894.438139281377
0.356,1.4406996590417946,5900.64124137386
0.36,1.4721772455523325,5896.789715535053
0.364,1.4794485012704166,5893.246131882053
0.368,1.459660876467266,5899.038867155999
0.372,1.4147034843472883,5900.472328002917
0.376,1.3507747079567587,5896.949282667954
0.38,1.2768236593556284,5897.595399255609
0.384,1.2024948255609607,5894.8596452293295
0.388,1.1361452605800475,5902.069784423378
0.392,1.0833004691269932,5900.856622236252
0.396,1.0458111903858174,5888.347887544019
0.4,1.0219718430890192,5898.446560409469
0.404,1.0077329175740952,5905.494800710119
0.408,0.998719544384119,5905.724610508422
0.412,0.9922760780772546,5895.14651817496
0.416,0.9886328988046272,5906.473011810108
0.42,0.9907047337899452,5901.263935712491
0.424,1.0027014423908966,5904.0599546559215
0.428,1.028229211728902,5899.531677969862
0.432,1.0686524544723168,5899.549367079703
0.436,1.1222371517686693,5889.537498687161
0.44,1.1841937995649852,5899.578181072972
0.444,1.2473801960654671,5889.405310065277
0.448,1.3033192075075648,5892.888747442496
0.452,1.3433925043767596,5889.87237402171
0.456,1.3603142615389978,5900.577440998199
0.46,1.3499066480378854,5904.453372744951
0.464,1.3127803680195953,5916.038567092019
0.468,1.2551384703412927,5899.817188357926
0.472,1.1879568403276541,5897.662405643986
0.476,1.1243554039066905,5903.470670681838
0.48,1.0758332813121685,5908.1685052413695
0.484,1.048739407904192,5902.22284790669
0.488,1.042430963947467,5903.487633166261
0.492,1.0499173788606708,5892.295101454701
0.496,1.0607417795400647,5909.861856543012
0.5,1.0649530292604115,5901.7963271806575
0.504,1.05666550083489,5890.648996876946
0.508,1.036003156168038,5899.9680648258445
0.512,1.0089707277212423,5899.312899072617
0.516,0.9855542824838465,5905.22846125184
0.52,0.9767870841035562,5893.8996813425765
0.524,0.9916048767849789,5895.084588851423
0.528,1.034225893873163,5901.275576955481
0.532,1.1026506722601557,5898.598679306088
0.536,1.1886844565321135,5902.358376097823
0.54,1.2795565554485764,5901.725230110228
0.544,1.3607554874717018,5896.162549408287
0.548,1.4193329791288227,5907.203202313927
0.552,1.4468501913720098,5894.868732174848
0.556,1.4412923804123188,5901.673305715238
0.56,1.4075284508772241,5896.102467022703
0.5640000000000001,1.3562014422156763,5901.725724555277
0.5680000000000001,1.3012728205823396,5901.953330413806
0.5720000000000001,1.256753374256649,5902.862452929639
0.5760000000000001,1.2334002803565736,5906.42946300204
0.58,1.2362386800346288,5902.772145738981
0.584,1.263549378800414,5898.645634624228
0.588,1.3075177354686434,5896.370118136988
0.592,1.3562994050909585,5900.566741132669
0.596,1.3969775111696376,5901.291367288644
0.6,1.418736289966843,5893.437914108929
0.604,1.4155086734883102,5895.495422435469
0.608,1.3874175182228505,5900.499301283199
0.612,1.3405979554349872,5891.5334021181525
0.616,1.2854333590755456,5902.031216831124
0.62,1.2336974630598048,5899.376812229263
0.624,1.1953944012244733,5905.171987357504
0.628,1.1761669224205966,5894.543349360498
0.632,1.176006845360979,5890.216773525609
0.636,1.1896340520210777,5899.700812732245
0.64,1.2083723077638744,5900.318666420565
0.644,1.2228732766704624,5897.725792217677
0.648,1.2258399154062507,5898.539362964796
0.652,1.2139744763983074,5906.301849124707
0.656,1.188627493236012,5899.861690630693
0.66,1.1550345037179952,5898.355325669187
0.664,1.1205277655259585,5894.242697790626
0.668,1.0924466398813117,5901.681243564773
0.672,1.0764271922626312,5900.919689344784
0.676,1.0754323834308228,5900.238498770752
0.68,1.0895719348597765,5897.656203546454
0.684,1.1165540866870998,5908.086887123627
0.6880000000000001,1.152447834272134,5907.10183974285
0.6920000000000001,1.1923932875118493,5903.822468462178
0.6960000000000001,1.231104650581561,5895.113631493514
0.7000000000000001,1.2633067076770692,5905.31703194077
0.704,1.2843333269765107,5902.363964055153
0.708,1.2909493357884305,5907.010735258613
0.712,1.2822189408947546,5902.139710776631
0.716,1.2600611437114209,5901.84215442085
0.72,1.2290567881237897,5901.223782301816
0.724,1.1952500341114525,5904.150258697793
0.728,1.1642133376043258,5911.430969741902
0.732,1.139214096269399,5902.606015770808
0.736,1.1204028711511722,5899.107463926997
0.74,1.105402554627805,5902.889181153199
0.744,1.0909355517718975,5902.043844773559
0.748,1.0746761819303572,5898.81157921473
0.752,1.0565215061314401,5898.859740394494
0.756,1.0388204622468105,5898.78542658734
0.76,1.02558407228101,5900.4515414469615
0.764,1.0210835364358428,5890.615594127683
0.768,1.0283484967414611,5897.846419012664
0.772,1.0479555988748217,5903.972046214133
0.776,1.0773892809404808,5903.813985767519
0.78,1.1112621119903365,5904.365110569003
0.784,1.1425872967810393,5905.972693393709
0.788,1.164889284340322,5902.249120447203
0.792,1.1744127410485112,5899.9588853774
0.796,1.171497949452613,5895.575125464189
0.8,1.160511890959849,5903.7086097049705
0.804,1.148328741858342,5901.159523822581
0.808,1.1419351931857586,5897.325366100393
0.812,1.146090776933808,5902.336970690481
0.8160000000000001,1.1619390648506926,5899.786633604919
0.8200000000000001,1.1870121163296599,5893.997391987263
0.8240000000000001,1.2164413077024094,5893.516617352265
0.8280000000000001,1.2447486658459206,5899.281539350443
0.8320000000000001,1.267526083463908,5911.34628319414
0.836,1.2825201731020075,5903.786838141315
0.84,1.2899182235876687,5896.516339003337
0.844,1.2918575245582509,5887.897035933448
0.848,1.2913836653041069,5896.711735228367
0.852,1.2912809778074785,5903.052734792912
0.856,1.2932534323445295,5907.2229974292295
0.86,1.2977098242857779,5895.070223097375
0.864,1.3040374046917917,5896.093023153591
0.868,1.3110456737940808,5907.048033855265
0.872,1.3173324298727704,5901.729464427233
0.876,1.3214953736663,5907.1726822478
0.88,1.322239343454779,5901.352386559965
0.884,1.3185014190183495,5905.71140501952
0.888,1.3096959754216437,5902.983139186525
0.892,1.2960395228061758,5900.254282615256
0.896,1.2787866007020827,5897.424387102628
0.9,1.2602328282110344,5902.246371812303
0.904,1.243441403971098,5892.45311306276
0.908,1.2317033451510315,5902.165536770755
0.912,1.227796030566125,5893.134912872052
0.916,1.2332067461602745,5903.129683479102
0.92,1.247538620301067,5902.007117731127
0.924,1.2682664304497875,5893.704490579104
0.928,1.2909675034676757,5897.848060769668
0.932,1.310140406142463,5905.333959697294
0.936,1.3205716576964266,5902.532806420949
0.94,1.3188769518226784,5888.25299236445
0.944,1.3046106269048185,5903.7707682517
0.948,1.280463744369148,5894.936864661863
0.952,1.2514560569488205,5904.589331024259
0.956,1.2234096025347982,5905.801746044211
0.96,1.20123734250572,5903.734331733064
0.964,1.1876287726144286,5900.690401188519
0.968,1.1825283469078982,5894.655935284271
0.972,1.1834835617241533,5900.410020676772
0.976,1.1866774924399033,5901.215016138855
0.98,1.188336862998367,5896.191736076559
0.984,1.1861605943942286,5901.425471802169
0.988,1.1803582299707458,5899.90560952441
0.992,1.173857283137243,5903.12973274154
0.996,1.1714193011723013,5899.38585920376
1.0,1.1778639408681155,5898.378580890257
1.004,1.1960741527525522,5900.02174785165
1.008,1.22560196600181,5897.279051791421
1.012,1.262425658576987,5893.146102121915
1.016,1.299907206599243,5894.695053029849
1.02,1.3305635377600211,5899.487016286978
1.024,1.3480803601184392,5901.407924588442
1.028,1.3490003728710824,5899.221738844741
1.032,1.3336049669946421,5904.180127927022
1.036,1.305719211361401,5899.410728650816
1.04,1.27153765599419,5900.837932775769
1.044,1.2379674265331875,5900.215627080359
1.048,1.2111682742288634,5907.279309236041
1.052,1.1957376116282297,5906.463170150319
1.056,1.1944611408555905,5898.079647044277
1.06,1.2081868723503737,5898.559742602763
1.064,1.2355211252745637,5904.957255730807
1.068,1.272509224423268,5900.244220137455
1.072,1.3127617343201616,5897.288988994303
1.076,1.348351384359208,5904.810257350925
1.08,1.3714048128629042,5901.538425333266
1.084,1.3759662594723325,5900.777908125555
1.088,1.3595631018084684,5902.944933192946
1.092,1.3239631674446037,5893.358217256085
1.096,1.274865792340702,5898.472453628747
1.1,1.2206083717016412,5899.992945224801
1.104,1.1702398383522206,5899.328100468504
1.108,1.1314669652243945,5894.630045632034
1.112,1.109033429062649,5905.085345911651
1.116,1.1039864387981162,5897.416029861367
1.12,1.1140027135229307,5901.791143537272
1.124,1.1346072626786268,5902.974107937927
1.128,1.1608463128486406,5892.91109509471
1.132,1.1888208826137456,5906.62571330064
1.136,1.2165189988574414,5904.35583162177
1.14,1.243655457675007,5900.592038117405
1.144,1.2706748791231677,5905.178491294227
1.148,1.2975173709452252,5906.0932697586295
1.152,1.3229175643552031,5899.980112961164
1.156,1.3446785499903018,5899.349973533876
1.16,1.36065846879013,5900.851598910169
1.164,1.3696809739380347,5898.215040669947
1.168,1.3717094131663234,5904.594991730864
1.172,1.3672927033890487,5901.645194972051
1.176,1.3569104246272556,5898.716494602402
1.18,1.3409055667821275,5899.408813396106
1.184,1.3201598692088254,5900.529991591402
1.188,1.2969733317490353,5904.380003821813
1.192,1.275310736925016,5895.387755913423
1.196,1.2599239813926575,5906.032727840635
1.2,1.254610670529487,5896.714774152479
1.204,1.2604848156812485,5898.560071741615
1.208,1.2752036803185645,5901.438479130674
1.212,1.2936253035495318,5894.897450739995
1.216,1.3096939356297828,5904.034045678641
1.22,1.3188220123201093,5905.491917587544
1.224,1.3198244342413537,5897.940062584446
1.228,1.3155644954473644,5895.35631310222
1.232,1.311905781393898,5905.120839383067
1.236,1.3153014991388141,5897.986357148757
1.24,1.3300552786024122,5906.654397070182
1.244,1.3564566823845488,5902.420012883306
1.248,1.3904996288328577,5907.513339226162
1.252,1.425116451298026,5901.073239338081
1.256,1.4522893879144174,5890.7043359153295
1.26,1.465233349874542,5898.451695965052
1.264,1.459991478679473,5895.069880898406
1.268,1.4360903850339852,5897.221311288296
1.272,1.3962474521333197,5901.529908624079
1.276,1.345391533297001,5895.102567851762
1.28,1.289372333570044,5907.976250843584
1.284,1.2337347387430262,5902.66994488446
1.288,1.1828715226132003,5898.690826768757
1.292,1.1397006059433574,5900.932031630358
1.296,1.1057726375348955,5901.319352104567
1.3,1.0815625004224514,5896.8296418605005
1.304,1.0667242291172903,5893.771962737124
1.308,1.0602341072384234,5898.263524452913
1.312,1.0604968869565596,5905.091509029891
1.316,1.0655359578101982,5892.653740683116
1.32,1.073301115150005,5892.770978950655
1.324,1.0819927154415436,5909.1320949361625
1.328,1.0902354624920554,5886.407117952257
1.332,1.0970086451613525,5899.829164179985
1.336,1.101405037005466,5903.21905025445
1.34,1.1023944393928937,5894.647537471617
1.344,1.0987461964905785,5895.95406013842
1.348,1.089196593560194,5897.672816557489
1.352,1.0728550868176627,5892.231566231172
1.356,1.0497105416614736,5903.047113585662
1.36,1.0210370338825925,5900.383050348927
1.364,0.9895865795468616,5906.91524742174
1.368,0.9595389721230181,5896.959958128952
1.372,0.9361259465745512,5904.445123770616
1.376,0.9248087744795362,5894.413756369344
1.38,0.9300492473478875,5900.575615620519
1.384,0.9539865041053642,5893.417161123086
1.388,0.9954880530787669,5903.719661721022
1.392,1.049976818232984,5905.803313223982
1.396,1.1101811831212536,5903.524651954646
1.4,1.1676059220885688,5900.067803765045
1.404,1.2142308314334702,5904.728152595917
1.408,1.2438817661485242,5893.165737805905
1.412,1.2529505937754175,5907.78026952545
1.416,1.2405319006127002,5898.84568635394
1.42,1.2083007005520494,5902.8849364102025
1.424,1.1603542048041349,5894.693658176466
1.428,1.1029007446545032,5901.78660784235
1.432,1.0434904960864528,5901.158260363894
1.436,0.9896778746633043,5898.6993456326045
1.44,0.9474068329931089,5901.653789173088
1.444,0.9196796364049249,5895.824814322321
1.448,0.9060522561724356,5900.431773711083
1.452,0.9032300658624434,5895.270440653675
1.456,0.9066085060592648,5906.257960040809
1.46,0.9121760396016693,5901.989388679785
1.464,0.9180082439004392,5903.172257987147
1.468,0.9247753605994066,5893.5632989828255
1.472,0.9351291918195794,5902.775674640152
1.476,0.9522430526358845,5905.431962535854
1.48,0.978028709534804,5897.778705988167
1.484,1.0116986046802938,5905.1897369432345
1.488,1.049334076581125,5903.777048271939
1.492,1.084805868320124,5901.732133902733
1.496,1.1117789650630974,5901.101831162818
1.5,1.1259248814576808,5892.779888936822
1.504,1.126297215206498,5903.3374978180045
1.508,1.1152889138457145,5902.569291944099
1.512,1.0973589778285304,5902.457050310877
1.516,1.0772266707312395,5908.549221660692
1.52,1.0582690100826537,5895.864894223748
1.524,1.0416533360222981,5906.626714573693
1.528,1.026467005559613,5904.872027296275
1.532,1.0107216541772681,5909.27362649226
1.536,0.9927051185075689,5898.335898901907
1.54,0.9720393982307438,5899.298891086308
1.544,0.9500892434053372,5903.961908959559
1.548,0.9297808942441969,5900.307140567025
1.552,0.9150965444261758,5895.310713479748
1.556,0.9104333302553038,5911.873860031278
1.56,0.9198124426027242,5897.738410351735
1.564,0.9458159482501861,5904.463119006759
1.568,0.9882852830152196,5900.577652645863
1.572,1.0431804710158372,5902.477304564086
1.576,1.102269263738493,5916.863729846668
1.58,1.1542092924369494,5911.673369894144
1.584,1.1870651674449364,5901.236473240007
1.588,1.1915943487201845,5901.818772475627
1.592,1.1641591906026958,5909.753047794191
1.596,1.1082055254547634,5906.158476965677
1.6,1.0338040111259519,5913.841390845648
1.604,0.9553788781287768,5902.810785226967
1.608,0.8881847863538566,5915.132653229256
1.612,0.8443954864641715,5904.844999092486
1.616,0.8299106250584324,5902.098491511837
1.62,0.8429609347341868,5899.020597826771
1.624,0.8750613485935647,5906.463063475705
1.628,0.9139792383881721,5906.388488290018
1.632,0.9475849658787857,5906.604879246455
1.636,0.9671110189667814,5897.696332461914
1.64,0.9686935923966751,5905.880074839575
1.644,0.9530058609036377,5902.696212013982
1.648,0.9237098188025491,5906.531271870997
1.652,0.8857315899700126,5894.583156488434
1.656,0.8440175719671945,5904.851772783984
1.66,0.8029392618141337,5907.021287446183
1.664,0.76620952077959,5906.676061193003
1.668,0.7370561402570073,5902.637955065032
1.672,0.7183917507758026,5901.722107581478
1.676,0.7127762702191616,5911.665139588694
1.68,0.7220582724332533,5904.662598391687
1.684,0.7467129764454712,5905.195981991504
1.688,0.7850976636062867,5900.812245241311
1.692,0.8330636071478017,5899.890368820396
1.696,0.8843813537257625,5899.856979299875
1.7,0.9320754517044756,5899.138111587259
1.704,0.9702068628818321,5907.755048942998
1.708,0.9953194533981281,5903.674723471445
1.712,1.0069182858587546,5904.101543759068
1.716,1.0068597442174554,5898.241618467294
1.72,0.9980956003843531,5906.184239433816
1.724,0.9834773044055407,5903.082542207173
1.728,0.9651354341521307,5898.8495323949965
1.732,0.9445058243524856,5908.029774571967
1.736,0.922746300194311,5911.316561437638
1.74,0.9012313720924439,5911.340098338031
1.744,0.8818972314721542,5904.626451192169
1.748,0.8672814829306325,5907.227447713164
1.752,0.860169749796678,5896.727829445978
1.756,0.8628948303340034,5901.543256012991
1.76,0.876499596787553,5900.884247708974
1.764,0.9000645265431819,5900.972782734832
1.768,0.9304628553223463,5906.147025485707
1.772,0.9626783929392174,5901.150285669062
1.776,0.9906722688182173,5896.760108702702
1.78,1.008649627111284,5897.488500314087
1.784,1.0124508691058398,5903.434898266698
1.788,1.00070486531437,5902.997739611921
1.792,0.975406211361774,5903.256391991045
1.796,0.9417153237730145,5905.695135630279
1.8,0.9069419094723828,5902.878978752508
1.804,0.8788274366924507,5915.144928065616
1.808,0.8634530439578146,5905.937763949466
1.812,0.8633577706564246,5903.867220777485
1.816,0.8765685776206892,5905.839164336476
1.82,0.8970237045301618,5911.924035428582
1.824,0.9163631651494704,5905.615194293784
1.828,0.9265095733991184,5912.005896928142
1.832,0.9221091823098883,5912.540991006781
1.836,0.9019277777389454,5902.528769956132
1.84,0.8687549369807378,5916.524836318728
1.844,0.8280277954608625,5898.26422091933
1.848,0.785831013600166,5914.547803632584
1.852,0.7470087511694378,5906.217960155092
1.856,0.7140116574988659,5910.90289372721
1.86,0.686869764445839,5905.309608682067
