时间(s),电压(V),幅值(高频80K)
0.0,0.8885388957137516,5902.606678548036
0.004,0.8433115569209637,5901.611513904466
0.008,0.8028028209392926,5899.650191422205
0.012,0.7731870137780776,5904.35436679011
0.016,0.7616886700796524,5902.337772844136
0.02,0.7752162269501391,5897.948308917387
0.024,0.818169643775514,5898.4295517093215
0.028,0.8902816990297683,5900.633863079685
0.032,0.9853046228728749,5900.160576998928
0.036,1.091164636819108,5904.074545819375
0.04,1.1919337111728254,5907.860577715832
0.044,1.2713898893442435,5899.538954521536
0.048,1.3171183061673846,5905.540987228435
0.052,1.323643478090577,5914.337541031647
0.056,1.293470757469411,5890.1287072643
0.06,1.235895450045927,5899.72395499033
0.064,1.1642977969520885,5903.803522707146
0.068,1.09293715253343,5898.726606271073
0.072,1.0340774123714096,5900.205020415126
0.076,0.9959444431466262,5897.528109418058
0.08,0.981731897895976,5904.500124890573
0.084,0.9896296816712543,5896.472474083053
0.088,1.0136461854992906,5900.506467705756
0.092,1.0449485077498253,5903.489676267158
0.096,1.0735907768252528,5904.001932032113
0.1,1.0905896096601735,5903.95132413896
0.104,1.0900633242204112,5903.014266016346
0.108,1.0707543638870796,5897.10353892704
0.112,1.036214875623721,5891.166336279524
0.116,0.993452815643579,5891.975471538236
0.12,0.9505743855635739,5893.260563727772
0.124,0.9144214386214221,5897.011515407619
0.128,0.8890966290639524,5900.627439526325
0.132,0.8757049259537341,5894.443902750519
0.136,0.8730724107122373,5900.843556112205
0.14,0.8789517551475661,5901.428313039734
0.144,0.8911825498253259,5899.845551661292
0.148,0.9082869497834268,5900.08535816082
0.152,0.929178631589556,5905.841795823125
0.156,0.952177902600836,5900.918663390112
0.16,0.9740973225263445,5904.899383934493
0.164,0.9902757434748132,5900.695925667579
0.168,0.9958695631283696,5897.779826536982
0.172,0.9878472972693589,5897.160795665599
0.176,0.9666538404510834,5896.975809342087
0.18,0.9367165698716767,5898.152538188675
0.184,0.9055549738167078,5897.85889815537
0.188,0.8817685912787115,5899.497040467514
0.192,0.8724951373726303,5896.615947747392
0.196,0.881167517532893,5898.893741835302
0.2,0.906470445063915,5914.369063136658
0.204,0.9430380471631572,5906.214018839075
0.208,0.9836544728370946,5899.431649444383
0.212,1.0219556599782698,5897.897765751293
0.216,1.0543766834277575,5903.8813606991935
0.22,1.0805119515098203,5906.440766518764
0.224,1.101888524187251,5902.731351087103
0.228,1.1198974760367861,5898.618496615401
0.232,1.1339342866494102,5902.653594615324
0.236,1.140642621096753,5897.728489990072
0.24,1.1346743391453586,5908.5352739978525
0.244,1.1107299732563467,5895.596478203801
0.248,1.0660552686025335,5902.997720620579
0.252,1.0023198071036783,5903.526076365649
0.256,0.9260514494130059,5900.500829620778
0.26,0.8474369501201734,5909.49584894714
0.264,0.7779575253146245,5903.79516667796
0.268,0.7276361157889256,5898.574416912003
0.272,0.7026237832227434,5903.153838989398
0.276,0.7037480652304402,5898.604334752434
0.28,0.7265601702870289,5900.056398749051
0.284,0.7630553006231985,5898.444933526973
0.288,0.8045143773299964,5901.569346810726
0.292,0.8442885042006366,5896.538089127741
0.296,0.879347131054309,5902.141256041479
0.3,0.9100618582213582,5909.511221236798
0.304,0.9385697911128629,5900.871185480558
0.308,0.9666649153379605,5897.430255727544
0.312,0.9942432785836187,5897.768883227682
0.316,1.0189195213237867,5901.653647304082
0.32,1.0368053293389308,5901.72800289233
0.324,1.043936569850121,5896.419825257166
0.328,1.0376930686022028,5898.453837714681
0.332,1.0177643386354311,5915.616015141279
0.336,0.9865353689393939,5894.939274282495
0.34,0.948934039107606,5906.234963677395
0.344,0.9117540816038762,5895.035936101469
0.348,0.882444597897036,5897.043720969715
0.352,0.8674979112705341,5895.409295921008
0.356,0.8707794202569578,5902.813893804379
0.36,0.892255811754927,5905.663255415089
0.364,0.9275672380375144,5906.952667663134
0.368,0.9687734500575506,5899.711847661777
0.372,1.0063014787769071,5903.619804497425
0.376,1.0316130783695256,5894.892615288907
0.38,1.0396557194134723,5896.897135996656
0.384,1.0301674122026485,5908.063470195892
0.388,1.007464192483741,5897.305249748938
0.392,0.9790166116949783,5909.123194797429
0.396,0.9534159504572264,5899.044607837884
0.4,0.9382329823361728,5905.19885694184
0.404,0.9381340573064092,5901.866778325971
0.408,0.9536314378138225,5900.399266781837
0.412,0.9808840102516615,5900.333878069207
0.416,1.0128033230797833,5896.857098878844
0.42,1.041269073862512,5904.5406136453785
0.424,1.0597175888004586,5898.54419838888
0.428,1.0651063932451756,5888.927659847417
0.432,1.058485834815121,5908.752702976813
0.436,1.0440279253951261,5902.808683021404
0.44,1.0270709652328165,5901.261397401851
0.444,1.0121500054050214,5905.569068565068
0.448,1.001833014856826,5898.379802723688
0.452,0.996595035496376,5901.411930147238
0.456,0.9953990147293085,5908.940034711602
0.46,0.9964909402798282,5902.059636048136
0.464,0.9981330550942503,5899.0872338288455
0.468,0.9992441331593495,5903.752682102883
0.472,0.9998980881711869,5886.967851008012
0.476,1.00144014180304,5893.008830196709
0.48,1.0059636178554707,5902.554652650974
0.484,1.0151945578532782,5902.621492315639
0.488,1.0292083626069197,5901.249097505778
0.492,1.0455627559835332,5905.505978670809
0.496,1.0593481560209739,5906.3001222430885
0.5,1.0643979143152535,5895.8000907282885
0.504,1.0554482856752838,5896.1797538012925
0.508,1.03048245351544,5891.783530825867
0.512,0.992171841495184,5902.392652011622
0.516,0.9475711012954338,5907.5464734053285
0.52,0.9060168985354339,5901.392131207535
0.524,0.8760889187381494,5894.664025968807
0.528,0.8629370893579004,5905.430312889817
0.532,0.8670101653540245,5897.329116183627
0.536,0.8844942253077693,5897.895892974695
0.54,0.9090566777237763,5899.110516248809
0.544,0.9340978704087873,5898.475510060378
0.548,0.9546909534711014,5898.314679578944
0.552,0.9686653188407124,5898.442880354248
0.556,0.9767167349392339,5902.0932265037045
0.56,0.9817761277805,5913.009144355992
0.5640000000000001,0.9879447306140404,5902.631683466101
0.5680000000000001,0.9991846569552203,5895.904532322005
0.5720000000000001,1.0179297856426686,5905.341506458894
0.5760000000000001,1.0439641711294483,5881.8240958138895
0.58,1.0740627449935771,5902.865666639985
0.584,1.1027107656292991,5900.521599576939
0.588,1.1237504687487898,5902.550748169746
0.592,1.1323800590778665,5890.584041888859
0.596,1.126816540953804,5914.681853517997
0.6,1.1090963699728933,5899.65002041444
0.604,1.0847511805691312,5907.899096481651
0.608,1.0613917306164158,5895.139625980237
0.612,1.0465717875429967,5903.914523342151
0.616,1.045584138972786,5900.658678933636
0.62,1.0598831052173274,5903.219398704514
0.624,1.086602061247476,5902.638868515272
0.628,1.1192935308831462,5895.315145056688
0.632,1.1497015414417846,5894.205308616366
0.636,1.170116634059906,5905.058806446115
0.64,1.175658303979992,5915.079154820466
0.644,1.1657168902472452,5898.529393543327
0.648,1.1439269987808134,5899.115222627806
0.652,1.116567367032616,5904.689273274244
0.656,1.089984555309695,5898.6240957269
0.66,1.068106544909866,5892.950722590073
0.664,1.051129000956131,5903.464126725586
0.668,1.0360109687185117,5902.328629999249
0.672,1.0185901749495103,5910.190462056867
0.676,0.9962737058583446,5903.690682930372
0.68,0.969927478302522,5905.070725530123
0.684,0.9440157234964321,5901.06619125071
0.6880000000000001,0.9249484784720434,5904.268066862576
0.6920000000000001,0.9184671203521552,5891.394068391323
0.6960000000000001,0.927292222429049,5901.171153149686
0.7000000000000001,0.9500126527566042,5900.630759793757
0.704,0.9815307591532125,5906.478070635485
0.708,1.0146879142237446,5890.087535659635
0.712,1.042273942137639,5899.36453639779
0.716,1.058631447620198,5899.570531558607
0.72,1.060452669726034,5898.206906048173
0.724,1.0468409036227988,5909.385886482215
0.728,1.0189950223267303,5904.869893009867
0.732,0.9798931879963615,5904.4900710926
0.736,0.9341241142263852,5895.949795515798
0.74,0.8876738670977936,5902.135976034492
0.744,0.8473130289808202,5901.281394736249
0.748,0.819452955764136,5902.801475107654
0.752,0.8087799842857996,5894.239978018729
0.756,0.8172145586061368,5894.933685901401
0.76,0.8435930790878201,5898.00022346345
0.764,0.8841457636948757,5898.680509842523
0.768,0.933588725109542,5905.192988234468
0.772,0.9864571032573581,5894.755689205138
0.776,1.0381449606668351,5897.594297768549
0.78,1.0851882077398094,5897.12291319842
0.784,1.1247953609322714,5894.47315893139
0.788,1.154210141536204,5908.647392612962
0.792,1.1706378200710421,5901.0554620582825
0.796,1.1720027176469474,5900.665108676893
0.8,1.1581271502232162,5893.624545361064
0.804,1.1316077563011837,5894.299567008598
0.808,1.0978856667801766,5907.595377509906
0.812,1.0644247663053008,5902.723501221539
0.8160000000000001,1.0391842620899123,5901.705189532773
0.8200000000000001,1.028730752485281,5907.968891090452
0.8240000000000001,1.036514564441972,5904.123065081617
0.8280000000000001,1.0618986056828281,5899.111981158855
0.8320000000000001,1.1002663174445595,5910.478323406738
0.836,1.1440808797377793,5900.547098677972
0.84,1.1844791703334943,5894.854456560606
0.844,1.2129654590079408,5895.492201430432
0.848,1.2228477326492437,5904.940838293616
0.852,1.2101789835831769,5898.425503644867
0.856,1.174185513144237,5896.937089781857
0.86,1.1173410256282703,5907.771409429816
0.864,1.0451907901310216,5902.635947668184
0.868,0.9658603811664814,5905.771343611206
0.872,0.889141421126247,5908.656253452707
0.876,0.8251655977913849,5902.7073218658525
0.88,0.7828256526094447,5890.999568181828
0.884,0.7681850384039429,5905.676413200088
0.888,0.783170757022456,5896.264523395337
0.892,0.8249279096485639,5906.65894891468
0.896,0.8862221008030001,5896.039865182833
0.9,0.956996242288236,5906.597358085119
0.904,1.0266506226394405,5903.853556094167
0.908,1.0861949220848321,5897.440125892719
0.912,1.1295064173318508,5909.010154486853
0.916,1.153520464996776,5907.595360493092
0.92,1.1578271462755716,5900.628016694646
0.924,1.1443120617211446,5893.265142575119
0.928,1.117054512681703,5902.878052919817
0.932,1.0821602447532788,5891.622624515404
0.936,1.0471026747447052,5892.518688758762
0.94,1.0194808475531085,5901.691332883972
0.944,1.0054495816804394,5900.544089049761
0.948,1.008198630910578,5893.469203738609
0.952,1.0268903153184052,5894.483442691836
0.956,1.0564941339523175,5903.575385848468
0.96,1.0887943818121115,5903.201356846942
0.964,1.1144105905307895,5899.415410048696
0.968,1.125237905751356,5898.02135483819
0.972,1.1165938913677023,5897.32975273488
0.976,1.0885359492255495,5902.06391411728
0.98,1.0460549685627902,5904.54280736529
0.984,0.998031597405113,5896.609840917306
0.988,0.9550666059726548,5890.689340822374
0.992,0.9266850462372915,5903.925684662191
0.996,0.9188215281188256,5898.446783094465
1.0,0.9325395926219541,5901.00535324521
1.004,0.9643965542396186,5899.000346444648
1.008,1.0080246568212818,5907.632408749224
1.012,1.0559880536569874,5900.569928301209
1.016,1.1011488427413763,5900.8265956096375
1.02,1.1373720475552036,5896.001631049773
1.024,1.1598860333971273,5893.782469093176
1.028,1.1657054225907344,5895.269959927112
1.032,1.154239976743111,5899.274216403103
1.036,1.1277629925353867,5907.510932792227
1.04,1.0911821865767668,5903.474134875829
1.044,1.0508474274245063,5904.999886309386
1.048,1.0127672861145098,5893.212830743145
1.052,0.9810660099496225,5899.091714293803
1.056,0.9574309137437903,5898.844929479075
1.06,0.9417188101244244,5905.075573820274
1.064,0.9331789227869504,5894.621963456477
1.068,0.9313951896798511,5901.588013405452
1.072,0.936312042422397,5903.875670701479
1.076,0.9473845380712002,5903.625084335206
1.08,0.9625097171455946,5900.37478582534
1.084,0.977584228596167,5896.407412044291
1.088,0.9872229193862647,5903.614011201398
1.092,0.986547588872552,5905.195368641735
1.096,0.9733402678620879,5898.423300365993
1.1,0.9495697624169563,5902.449204240122
1.104,0.9214911144229132,5901.95254398018
1.108,0.8980882071280566,5910.755751572215
1.112,0.8883117226757979,5892.042511722497
1.116,0.8980780336479126,5901.607729739751
1.12,0.9281464550484815,5904.510808592636
1.124,0.9736875578336166,5895.725006434678
1.128,1.0256704219273745,5891.265089313704
1.132,1.0734537936089599,5896.957166322899
1.136,1.1075690206844628,5904.186461378068
1.14,1.1217950467466544,5901.78979215966
1.144,1.1140564565506723,5900.548903686608
1.148,1.0861390701081435,5901.360042399241
1.152,1.0426006431098465,5894.498702839317
1.156,0.9894910481538877,5905.277439970375
1.16,0.933420524652936,5910.123403179966
1.164,0.8811059760429136,5902.709315535487
1.168,0.8390913180820607,5906.654303561162
1.172,0.81322521937539,5905.209709742352
1.176,0.8077367053535386,5897.819330502417
1.18,0.8241506156871066,5896.320052217658
1.184,0.8605499705302136,5891.963698250132
1.188,0.9116442713214076,5899.94184692967
1.192,0.9697585027550717,5911.141006614259
1.196,1.0264288327049764,5904.228046708567
1.2,1.0740492409350817,5900.148133820852
1.204,1.1070977507964495,5898.889899383475
1.208,1.1227662087612258,5887.3048223510905
1.212,1.121053947898715,5909.613113325657
1.216,1.1044368514815441,5893.448222018483
1.22,1.0772061546194316,5904.584274904561
1.224,1.0446046884023361,5898.530265571701
1.228,1.0119341083284517,5902.517088835704
1.232,0.9837967796263678,5907.212690205081
1.236,0.9635831410646478,5902.235985848613
1.24,0.9532439183375467,5887.096454313546
1.244,0.953290995986398,5905.062671341476
1.248,0.9629074201168645,5897.675079086375
1.252,0.9801148487571318,5905.020424015066
1.256,1.0020877817867322,5895.193509736737
1.26,1.0257018228626764,5896.723357800902
1.264,1.0481855430394724,5898.184582891697
1.268,1.0675390732487493,5897.864787491861
1.272,1.082468688317778,5905.591315313805
1.276,1.091951926874234,5899.326889346054
1.28,1.0948618982397829,5896.070496624216
1.284,1.0900460646459387,5895.451394299567
1.288,1.0768916417074965,5899.901581273002
1.292,1.0559780713664386,5889.872917807325
1.296,1.0292451358972372,5899.524807901266
1.3,0.9994146309053156,5898.041871309507
1.304,0.9690390413276464,5897.135508747287
1.308,0.9399482863809682,5908.034006526745
1.312,0.9135619913460064,5898.603138419861
1.316,0.8917327108310462,5898.557139908769
1.32,0.8772388085106496,5902.168064932158
1.324,0.8732926474843307,5905.136691317657
1.328,0.8822308371610162,5905.354405471229
1.332,0.9041736112604848,5901.558225532582
1.336,0.9364066460774684,5906.800584888504
1.34,0.9737282957769184,5899.955690472958
1.344,1.0095285214152594,5905.28023507628
1.348,1.0371816363270976,5899.96956647969
1.352,1.051330639843994,5897.691375029743
1.356,1.0487290890902468,5904.1302884173865
1.36,1.028566063665814,5899.6668233031305
1.364,0.9925126205177135,5898.562241070591
1.368,0.9447214472778108,5893.209633481448
1.372,0.8916139090207041,5904.673326953141
1.376,0.8409903063491253,5893.350537567888
1.38,0.8002780641057191,5891.073772117047
1.384,0.7744399844349246,5900.877816087253
1.388,0.7645779483174049,5905.22303395959
1.392,0.7681112271126673,5906.483613588754
1.396,0.7806169503025556,5904.452375677622
1.4,0.7984471896653845,5902.506585610277
1.404,0.8206794146886747,5899.277479302848
1.408,0.8492419158968688,5902.787149396017
1.412,0.8871119502694949,5902.85215032248
1.416,0.9356667214784165,5899.1194356724745
1.42,0.9927842041704465,5893.73474156953
1.424,1.0528102620132656,5906.820090059514
1.428,1.1083764306073598,5905.208968006215
1.432,1.1529985797943612,5891.34056101419
1.436,1.1830273920592909,5905.619634035375
1.44,1.1980157971235248,5903.862646380914
1.444,1.1995736501953354,5902.809711912899
1.448,1.1896661229017693,5911.703111872224
1.452,1.169536965147388,5910.2149863444165
1.456,1.1398975172133907,5897.75535745418
1.46,1.1021045929847526,5897.388735240938
1.464,1.0593542532661342,5904.215419076625
1.468,1.016886502348187,5899.158376185799
1.472,0.9808456282549713,5902.490152098302
1.476,0.95632458955087,5901.039327686846
1.48,0.9456322671206276,5905.448737100716
1.484,0.9476685874730061,5903.894031405872
1.488,0.9586769290515658,5901.96171324941
1.492,0.9739803818398802,5901.796387493071
1.496,0.9898886872655024,5895.862268286724
1.5,1.0049166948229455,5902.673978747373
1.504,1.0198231309388999,5902.053991644347
1.508,1.0366004458330207,5904.827337212711
1.512,1.0570378984761137,5903.362540697686
1.516,1.08156605529006,5903.292449459043
1.52,1.1088417277941542,5899.767495112148
1.524,1.1361537772712254,5890.633771644109
1.528,1.1603737561650624,5892.277714946494
1.532,1.1789749619675072,5899.119597178461
1.536,1.19065898077576,5905.986931426962
1.54,1.1953105375309974,5894.021718457754
1.544,1.193319820368886,5901.238637777977
1.548,1.184701852115496,5901.279714441698
1.552,1.1686408180686898,5898.0686151339305
1.556,1.1438480179018207,5901.826402480469
1.56,1.1095862652693502,5900.241484258464
1.564,1.0667975542340091,5905.1596268806325
1.568,1.0187207527528441,5902.232175244988
1.572,0.9706276580940911,5905.883045882689
1.576,0.9286709109809002,5893.4418785612825
1.58,0.8982087630113232,5890.654843053767
1.584,0.8821966438525656,5907.408269365707
1.588,0.8801664317394516,5900.732272016795
1.592,0.8880370648336517,5899.40319993612
1.596,0.8987843104701212,5894.40817071737
1.6,0.9039261837117487,5894.601612763266
1.604,0.8956633394889199,5900.806281885584
1.608,0.8692377804912633,5900.07340430143
1.612,0.82479150186385,5894.337612363453
1.616,0.7679446711505602,5895.96702166888
1.62,0.7086189660755414,5901.553744182923
1.624,0.6583222607673148,5900.476608523329
1.628,0.6268798522324941,5897.744051921952
1.632,0.6198812008096244,5891.835274974537
1.636,0.6376711699628428,5903.001721940239
1.64,0.6759388864073559,5904.165910457287
1.644,0.7273768915164726,5902.803145840782
1.648,0.7836909630634328,5902.1198066117095
1.652,0.8373632705112309,5899.215578123991
1.656,0.8828540940104566,5891.340769803078
1.66,0.9171920294955389,5900.644976234898
1.664,0.9400374405175329,5892.760660320751
1.668,0.9533168391974078,5898.181069793767
1.672,0.9605071899045116,5904.100295783826
1.676,0.9657016744939758,5900.397915759902
1.68,0.9726870857463322,5908.187590851619
1.684,0.9842418633985237,5902.633850107438
1.688,1.001704007917241,5900.47687601015
1.692,1.0247879170933,5903.323167383503
1.696,1.0517409536992655,5894.434842934859
1.7,1.0799777628075735,5911.07059544258
1.704,1.1071030228566991,5891.882016494073
1.708,1.1318921806447766,5902.155144501235
1.712,1.1546919263363515,5898.733312378395
1.716,1.1769788415520277,5902.873930324507
1.72,1.2002768003801998,5906.513425799177
1.724,1.2249146370118038,5906.884388708465
1.728,1.2490555572837185,5899.56281573486
1.732,1.2682796814317643,5901.366814759841
1.736,1.2759905135206515,5893.8390178122645
1.74,1.2648804277571661,5894.239773361956
1.744,1.229324135748443,5901.981244843335
1.748,1.1679955058306264,5905.668445383036
1.752,1.0856968911960576,5908.074218013431
1.756,0.9935835500446734,5908.264287737225
1.76,0.9074782664345338,5896.711175935894
1.764,0.8445603125328194,5904.234168431846
1.768,0.8192492882610297,5903.200545774975
1.772,0.8394323495375884,5903.739069058075
1.776,0.9041059454680597,5904.846388188744
1.78,1.0030108869334882,5900.711038606849
1.784,1.1182337529480528,5903.6332398182485
1.788,1.227376802121623,5903.89257164297
1.792,1.3077685594616135,5898.499975683709
1.796,1.3410237782438044,5902.735283390748
1.8,1.316993997387658,5896.572849300967
1.804,1.2360720247739425,5897.466137882466
1.808,1.1091707900719903,5900.288886649004
1.812,0.9553664286085467,5904.810334547164
1.816,0.7978611335128903,5902.861245591401
1.82,0.6593367722933784,5902.596682920757
1.824,0.5578098712956413,5908.241335387989
1.828,0.5037906778244869,5896.869411212269
1.832,0.49909773712345695,5900.626361700179
1.836,0.537298313076069,5896.582747944957
1.84,0.6055074961106537,5898.465970497275
1.844,0.6871632305929101,5904.894468579486
1.848,0.7653186093540731,5899.569880638108
1.852,0.8258606740230986,5892.221443272624
1.856,0.8599553817336757,5909.114464938745
