时间(s),电压(V),幅值(高频80K)
0.0,0.7562099072259247,5904.332332454795
0.004,0.9185765424846454,5898.81955387228
0.008,1.063417881517742,5896.024521251536
0.012,1.1761922101350255,5901.299539834465
0.016,1.2475036821535677,5893.887972333287
0.02,1.2743123744551736,5900.114667001347
0.024,1.2601255910238147,5901.714452337389
0.028,1.2141485653690758,5902.433789936778
0.032,1.1494142977302846,5902.440098245208
0.036,1.0802234972696563,5900.8254349569725
0.04,1.019548250171813,5899.861052197887
0.044,0.977051741844117,5896.5711678363205
0.048,0.9580666038513912,5902.276957445982
0.052,0.9635264748588491,5892.934280468538
0.056,0.99067647581953,5899.490379067294
0.06,1.034348941515383,5897.211594122792
0.064,1.0884646517508867,5895.25245461301
0.068,1.1472201972806468,5900.207178985527
0.072,1.2054754656207851,5900.501371427191
0.076,1.2583446904512388,5894.159956705411
0.08,1.3006252910656744,5897.25671038382
0.084,1.3269157311063415,5890.621163839534
0.088,1.3327924316763278,5899.685225824607
0.092,1.3165780330758954,5902.105185825228
0.096,1.2807125717716936,5895.105858177942
0.1,1.231867446488965,5893.987720688755
0.104,1.1795388664005146,5910.713651262989
0.108,1.1335685398550726,5896.264012881069
0.112,1.1015261448849651,5903.433218115719
0.116,1.0869099847879906,5898.156335690883
0.12,1.08871771629553,5889.424868610457
0.124,1.1023790904596469,5895.28524249224
0.128,1.121572653984495,5906.51980005947
0.132,1.1402218823553807,5891.762805854688
0.136,1.1540519457608311,5903.553796719293
0.14,1.1613720954108537,5905.004019287283
0.144,1.1630310810424327,5899.958911232175
0.148,1.1617025515802044,5896.922040161498
0.152,1.1607938708500798,5900.181809814391
0.156,1.1633100488854125,5887.043254203927
0.16,1.1709607962790938,5904.111075951493
0.164,1.183698965707238,5902.804072570601
0.168,1.1997148532003565,5892.089175622358
0.172,1.2157483715892123,5903.7402319057965
0.176,1.2275561058790498,5903.408930464959
0.18,1.2305075653092452,5894.853337526595
0.184,1.2204166704896007,5892.820120755117
0.188,1.1946479628287296,5901.0050564679095
0.192,1.1532845679346941,5906.16909055269
0.196,1.0999246686530555,5898.261319828955
0.2,1.0416866945247176,5893.472487406296
0.204,0.9882321834743897,5901.644619070037
0.208,0.9498778020934379,5895.842578762642
0.212,0.935117096637584,5901.196692228533
0.216,0.9482022887652252,5910.330108998512
0.22,0.9876842031478489,5903.052982764417
0.224,1.046591620677883,5899.936169263432
0.228,1.114245119976412,5902.643058589061
0.232,1.1790339235366496,5899.463025692337
0.236,1.2312372117275234,5897.370738062747
0.24,1.2651042242416044,5901.072465833492
0.244,1.2796922981126186,5910.267632618052
0.248,1.278302823541788,5891.058960278597
0.252,1.266783986175069,5910.5172325667445
0.256,1.2514030960757787,5891.292969149574
0.26,1.2371273579766218,5895.756883383175
0.264,1.2268063002532155,5896.607845327091
0.268,1.2211961919945153,5889.934469163755
0.272,1.2194472179151286,5903.477888340194
0.276,1.2197037457061035,5897.287881892757
0.28,1.2196633008297586,5897.7360522578765
0.284,1.2171130442183276,5899.713901618285
0.288,1.2105124619999446,5903.985767054477
0.292,1.19958880746815,5899.13541125708
0.296,1.1857448396534844,5899.636246452728
0.3,1.1720133898704994,5889.397189491918
0.304,1.1624043455080078,5902.5592944652935
0.308,1.1607007670701306,5888.810533425238
0.312,1.169009318654246,5898.65113626247
0.316,1.1866483046170444,5902.991024039286
0.32,1.2100789835309684,5898.169919011398
0.324,1.2342040698367547,5901.700988723203
0.328,1.254491637608258,5899.018475179461
0.332,1.268701953005959,5900.721283436748
0.336,1.2772005234438824,5895.521309448313
0.34,1.2818397709563591,5890.608740475343
0.344,1.2843306996425177,5901.046236330978
0.348,1.2851638573854058,5900.35051181338
0.352,1.283545516544735,5900.207829414292
0.356,1.2781402516804832,5894.863679459062
0.36,1.2681259180468365,5901.282569761939
0.364,1.254123061988464,5899.992766640553
0.368,1.238682226630388,5893.13592402237
0.372,1.2260922840034885,5901.180810127975
0.376,1.2214295886724504,5903.554919108569
0.38,1.2290721513374259,5899.071213121394
0.384,1.2511930226257237,5902.142066616433
0.388,1.2867937757246573,5902.68567593765
0.392,1.3315952817792267,5900.653568416034
0.396,1.3787736828811816,5913.836236982483
0.4,1.4203685519879141,5902.938400686038
0.404,1.4491362735899895,5896.5373247617945
0.408,1.4604066578506363,5908.242013606307
0.412,1.4532531218019504,5913.241484914935
0.416,1.4304760102549163,5903.332449037029
0.42,1.3975253499276539,5897.5520405847
0.424,1.3609695343982178,5903.138496928284
0.428,1.3270944631435384,5898.271231530446
0.432,1.300923524765368,5896.7488530675655
0.436,1.2856950612955336,5891.45946796724
0.44,1.2826639453499489,5899.268428577581
0.444,1.2910088375481785,5895.538722672281
0.448,1.30774299767862,5893.940400866497
0.452,1.327826416940247,5895.095252795133
0.456,1.3448521757827205,5906.797739684515
0.46,1.3524451000767905,5894.191758797489
0.464,1.3459941563612132,5898.684540594507
0.468,1.3239882244937657,5897.895212221369
0.472,1.288333759011427,5906.783460494208
0.476,1.243512344397767,5903.10405794499
0.48,1.1949925279007136,5902.92307607397
0.484,1.147654239548432,5903.778827176473
0.488,1.104911028091186,5904.41619769598
0.492,1.068747561882525,5900.607843287753
0.496,1.0403450545677526,5901.949491247887
0.5,1.0207057740474326,5905.202566575817
0.504,1.0108140190198072,5900.620143393688
0.508,1.0112494710282063,5900.104312010715
0.512,1.0215743430695903,5903.32801524946
0.516,1.0399888515625715,5898.232368483512
0.52,1.0635457254220957,5894.449105407329
0.524,1.0888169255761069,5900.032479628046
0.528,1.1126753141963688,5910.0981314043465
0.532,1.1329163910474793,5894.373331689137
0.536,1.1486174578344848,5897.897106503102
0.54,1.1602181823018316,5901.200200213827
0.544,1.169291702662648,5893.022536277879
0.548,1.177980435429884,5897.829614461288
0.552,1.188210862954666,5896.411109669482
0.556,1.2010074450583712,5900.403523305534
0.56,1.2162432268253394,5901.213717585012
0.5640000000000001,1.2328834244379294,5902.150618565282
0.5680000000000001,1.2494542127914259,5889.566703007354
0.5720000000000001,1.264407278474262,5901.20718096367
0.5760000000000001,1.276227960968138,5895.803630826801
0.58,1.2833557140859215,5886.113290028087
0.584,1.2841496100291843,5899.645629552231
0.588,1.2771498569117796,5897.891975819663
0.592,1.2616785056098165,5895.544345310411
0.596,1.2385199406717748,5903.034825329549
0.6,1.2102846589995038,5900.845989134742
0.604,1.1811901744215478,5900.961972845141
0.608,1.156281896530183,5893.677743308008
0.612,1.140378082286131,5902.133757844847
0.616,1.1371136099295938,5892.679453051083
0.62,1.1483556010489608,5900.484423114006
0.624,1.1740475782855258,5902.050773663427
0.628,1.2123193185826462,5896.886922054286
0.632,1.2596215957914942,5904.055441756623
0.636,1.310809587785673,5904.098752984822
0.64,1.359376297571882,5910.102878241723
0.644,1.3981218668307345,5895.614455849845
0.648,1.4203076654681395,5900.587988752073
0.652,1.4210063482059363,5898.221848064222
0.656,1.3982339657713092,5897.253185899332
0.66,1.3535958509791337,5911.915518189329
0.664,1.2923692603809476,5896.70839811433
0.668,1.22298099394937,5905.058551448665
0.672,1.1557928406349185,5896.354077107005
0.676,1.1012050627248924,5896.469309411
0.68,1.067392581352127,5905.963887546801
0.684,1.0583184079287729,5898.009950797998
0.6880000000000001,1.0727476163535792,5897.18603591106
0.6920000000000001,1.1046744581756374,5900.275309379798
0.6960000000000001,1.1450278435342451,5903.756081413647
0.7000000000000001,1.184049794627092,5898.048808413256
0.704,1.213572532307709,5895.228080268108
0.708,1.2285984590640149,5909.424949782645
0.712,1.227947724810617,5902.406492796994
0.716,1.2139980177067802,5904.78189699263
0.72,1.1916298150045586,5909.895704377545
0.724,1.1666132901623332,5904.743111717668
0.728,1.143918894725364,5910.068050938493
0.732,1.126568904567527,5896.621511664435
0.736,1.1154337792974611,5901.378148966611
0.74,1.1099001854268582,5895.862808505968
0.744,1.1089033942278743,5889.856073591915
0.748,1.1116699554941454,5900.216680261045
0.752,1.117741503815864,5891.275234687132
0.756,1.1263620470763804,5900.182870892685
0.76,1.135805858048549,5903.326427198254
0.764,1.1433044672833887,5901.531695796531
0.768,1.145774456878007,5904.008636559958
0.772,1.1409174033543787,5901.314188339419
0.776,1.1280099751802124,5901.55728674646
0.78,1.107995937161764,5900.647071160351
0.784,1.0829920553911183,5901.13311819454
0.788,1.0556096393509349,5897.074473712413
0.792,1.0284494596629932,5898.439435633946
0.796,1.0038949681825562,5895.531221502004
0.8,0.9841306087296211,5897.749626618359
0.804,0.9712516225865728,5901.126823726708
0.808,0.9673176380448788,5891.489426954283
0.812,0.9741607591220278,5902.139936086252
0.8160000000000001,0.9928133675741163,5906.648000088246
0.8200000000000001,1.0226791419148353,5906.109330263227
0.8240000000000001,1.06088210872048,5903.669543682316
0.8280000000000001,1.1023192421239794,5894.5498889186265
0.8320000000000001,1.1406771017005184,5900.4092012730425
0.836,1.1701454547599157,5904.777262963893
0.84,1.1870789490750844,5898.782556834547
0.844,1.1908085849639358,5896.021447608128
0.848,1.183295648903017,5898.533046979098
0.852,1.1679725291199199,5899.81273114883
0.856,1.1484222581190342,5903.746418316782
0.86,1.1273951931493271,5897.91882487434
0.864,1.1063346822636444,5901.478116923644
0.868,1.0853876964755453,5904.810667765079
0.872,1.0638389944561224,5909.81987974117
0.876,1.040861033518448,5899.046145663485
0.88,1.0163508887640098,5893.177605296137
0.884,0.9915456853574405,5897.434326716523
0.888,0.9691651393082255,5902.825920140025
0.892,0.9529858369856375,5894.774335882044
0.896,0.9469349739963229,5905.233784414494
0.9,0.9539710410181427,5900.147996961585
0.904,0.9751341728237972,5904.657795879039
0.908,1.0090851429246674,5902.765757496969
0.912,1.052207185827693,5904.80446332591
0.916,1.0991110008358003,5902.38882195988
0.92,1.1433355260997957,5890.437505992833
0.924,1.1781478302253339,5907.8854429548
0.928,1.1974754842170907,5912.549090893438
0.932,1.1970144647160048,5894.774039988395
0.936,1.175355535378089,5904.9212964747485
0.94,1.1347015688622846,5900.666897666842
0.944,1.0807679627644158,5892.513777809155
0.948,1.0218757757316153,5897.4808742402565
0.952,0.9676588126389533,5908.183807785752
0.956,0.9277889727370149,5893.8395415298855
0.96,0.9107642863894004,5894.065369153922
0.964,0.9225436705755468,5894.427326879563
0.968,0.9649671037737015,5901.588837190245
0.972,1.0343753505361217,5905.039075414995
0.976,1.121202441481997,5900.937495000958
0.98,1.2111610869875535,5901.493393608472
0.984,1.2879989717286173,5894.6540149760185
0.988,1.3370982194015713,5900.609220986462
0.992,1.3488648655425133,5900.812773903271
0.996,1.3210043350806129,5892.092666475869
1.0,1.2591725073183795,5899.007861385145
1.004,1.175892110455427,5903.075866489116
1.008,1.0879550767862312,5892.112207230671
1.012,1.0128159606706963,5887.014448186436
1.016,0.9647570672111098,5900.704485168477
1.02,0.9518143509374801,5901.137429646186
1.024,0.974359854801194,5901.083657008273
1.028,1.0256827043580268,5894.363652717655
1.032,1.0941613056786368,5886.700658692655
1.036,1.1661603151745519,5898.049776387365
1.04,1.2288006624435053,5903.623037794093
1.044,1.2720483800094213,5898.650759013544
1.048,1.2899076883281,5900.639950278563
1.052,1.2807538071878752,5898.619196794538
1.056,1.2469476700095883,5908.240675791741
1.06,1.1938974901807702,5905.805242633759
1.064,1.1287922609530083,5900.762243921302
1.068,1.0593173700595335,5903.648538594368
1.072,0.9926542506102435,5902.776221626655
1.076,0.934934524366054,5898.788754154512
1.08,0.891117574580095,5897.705941948448
1.084,0.8650643111103465,5890.031719276789
1.088,0.859511237716779,5889.71072446331
1.092,0.8757856210563516,5905.539947587748
1.096,0.9133443994358702,5904.477809106078
1.1,0.9693684221963375,5900.733427131813
1.104,1.0386261410797688,5893.369442324231
1.108,1.11374725733334,5907.501169735868
1.112,1.1860093751895089,5895.8487086469495
1.116,1.2466511908123734,5908.121172573867
1.12,1.2884807319122868,5908.137027382457
1.124,1.3072802886038786,5903.514950528544
1.128,1.3024835123479972,5907.265870736407
1.132,1.2768784616560704,5894.876814474173
1.136,1.2355086252179142,5901.216300214625
1.14,1.1843156781154038,5902.002445158655
1.144,1.1291991541142508,5898.580908615536
1.148,1.0758602669646122,5892.587102543649
1.152,1.0301478602968965,5891.906095400588
1.156,0.9981584504240799,5905.398452008036
1.16,0.9855239965056443,5897.359513508302
1.164,0.9960037142606721,5910.270674991353
1.168,1.030066585464693,5900.752697673519
1.172,1.0841926658357268,5904.3974453612345
1.176,1.1512400786015353,5897.08338280208
1.18,1.2217644170531081,5896.340795852319
1.184,1.28587428806474,5903.702135766229
1.188,1.3351168963605755,5899.8541337121
1.192,1.3639508740678132,5907.055944202869
1.196,1.3705068988963325,5912.6667180709965
1.2,1.356521053794245,5902.476053339121
1.204,1.326507233563518,5900.294637049511
1.208,1.2863981177941264,5898.057086197687
1.212,1.2420658127003372,5898.51473112992
1.216,1.1982503982040098,5892.414034316429
1.22,1.158254034266927,5906.033826216982
1.224,1.1243038378947474,5899.391659708004
1.228,1.0981197578665685,5893.016315935227
1.232,1.0812225890039366,5900.489000199698
1.236,1.0747603390930354,5898.933250157553
1.24,1.078911248676216,5906.02596074386
1.244,1.0921864844012008,5905.672309193406
1.248,1.1111111031786904,5902.426379850212
1.252,1.1306338644404563,5905.734272058176
1.256,1.1452318651557039,5892.541896467015
1.26,1.1503125598479391,5898.588270014478
1.264,1.1434030245166946,5906.165464212308
1.268,1.1247605327199763,5893.991039658939
1.272,1.097320646059144,5897.612092436951
1.276,1.0661606637375114,5898.482460130038
1.28,1.0377368773868283,5906.207478804613
1.284,1.0190278920566962,5895.744934015107
1.288,1.0165565843775077,5905.36072720112
1.292,1.0352590270291864,5889.75882520449
1.296,1.077317961329234,5903.209854654701
1.3,1.1412281130146018,5895.348893729757
1.304,1.2214101540606561,5905.806245618421
1.308,1.3086468160887479,5896.638651232558
1.312,1.3914567552062536,5900.889506474176
1.316,1.458208118163853,5904.318506258322
1.32,1.4994424923082879,5905.161593079384
1.324,1.5097858205955124,5892.7296195922245
1.328,1.4889988302825539,5894.326934432318
1.332,1.4419577064231317,5900.870607777816
1.336,1.37756942135005,5896.9100548978
1.34,1.3069072357804303,5905.693831611713
1.344,1.2411165697915503,5900.273683873271
1.348,1.1896245382244977,5894.749812468348
1.352,1.1588888600322025,5900.082876689977
1.356,1.1516661417992797,5891.723037769808
1.36,1.1667484671747905,5895.646955868348
1.364,1.1991787498352435,5906.188028722672
1.368,1.240970094199144,5889.3189553731645
1.372,1.2823555875439416,5898.31864428395
1.376,1.313579119349771,5902.399938155592
1.38,1.3270487312451598,5898.173370475913
1.384,1.3193059478639015,5898.235214739165
1.388,1.2920467667282305,5900.689542237039
1.392,1.2516588173896388,5905.239961990197
1.396,1.2073286361048992,5894.513493149198
1.4,1.16839322403776,5904.696235120265
1.404,1.1419417132104013,5898.449687699971
1.408,1.1315255418694736,5905.098383453195
1.412,1.1372711897639847,5901.748338397932
1.416,1.1570396852153448,5900.5809337266255
1.42,1.1878926180562341,5901.3227247162695
1.424,1.2271303722641222,5892.282370900759
1.428,1.272495583273362,5897.49877732151
1.432,1.3216276482575344,5901.5257784876085
1.436,1.3712661242280455,5904.220853553295
1.44,1.4167949357360696,5898.377443966282
1.444,1.4524824074891876,5903.83836647967
1.448,1.472411598921695,5903.53660531449
1.452,1.4718263742166935,5909.898176482995
1.456,1.4485194459342017,5900.116078073263
1.46,1.403896296335769,5902.787811970091
1.464,1.3433663952125685,5897.090765929108
1.468,1.2757687989959476,5905.845483197822
1.472,1.2117722611276636,5900.348255517949
1.476,1.1615803764818464,5897.709793305969
1.48,1.1325618184883977,5899.10424426409
1.484,1.1274575572479337,5903.87803281787
1.488,1.143668593723727,5903.457402760166
1.492,1.173851608069809,5890.657349714527
1.496,1.2076703257018029,5898.754210613686
1.5,1.2342306986506686,5898.807972441973
1.504,1.2445943668441461,5893.9757479923965
1.508,1.233755457425769,5905.912011542468
1.512,1.201547063332458,5911.277758598456
1.516,1.1522184906761364,5902.321329409604
1.52,1.0928852289853475,5905.203114848573
1.524,1.0314544834148465,5900.965130452348
1.528,0.9747360253867475,5908.665617189395
1.532,0.9272612295002651,5899.780674848182
1.536,0.8910002975587784,5902.154897164344
1.54,0.865837057888164,5903.453581388094
1.544,0.85044410190724,5900.415146325473
1.548,0.8431539760815425,5905.961163353611
1.552,0.8425109822262473,5898.1793588080445
1.556,0.8473265115523835,5913.006473364256
1.56,0.8562306463777195,5894.69695662363
1.564,0.8669712100480338,5903.56925930264
1.568,0.8759915626092033,5902.418578561131
1.572,0.8788543785631064,5898.270625166441
1.576,0.8716775504830253,5902.106321688013
1.58,0.8530816311579525,5910.262668234846
1.584,0.8256686432047651,5896.142352275722
1.588,0.796108844210552,5892.575346603143
1.592,0.7734887626490312,5902.99245103799
1.596,0.7663658525866845,5906.223226177753
1.6,0.7796110564479882,5896.142260468049
1.604,0.8123238651150024,5899.9320298102175
1.608,0.8577610982236592,5900.510332511823
1.612,0.9054144598815864,5903.822027835213
1.616,0.9444419780262848,5895.641943696669
1.62,0.9670890518760549,5900.304243378721
1.624,0.970802595877585,5896.08354711191
1.628,0.9583500861670797,5892.92540441728
1.632,0.9361162314177057,5899.982074854369
1.636,0.9114982656491075,5900.897292305426
1.64,0.8905673107772936,5905.4439286563575
1.644,0.8767949818645744,5908.268205959079
1.648,0.8709924437089536,5905.835218637128
1.652,0.8721065315200736,5905.229964984179
1.656,0.8783270011996395,5902.638084223419
1.66,0.8879955102911461,5902.9037631249685
1.664,0.8999660496966585,5906.237555356825
1.668,0.9133537553991927,5909.068376261595
1.672,0.9269853744469554,5896.149759000565
1.676,0.9390548698237634,5898.865149158825
1.68,0.947268619197407,5903.646359395459
1.684,0.9493744342065118,5896.558264215664
1.688,0.9438135162702584,5892.742442147285
1.692,0.9303282663650355,5913.514468016079
1.696,0.9104350862037572,5905.516849919593
1.7,0.8876179554987783,5911.584350406836
1.704,0.8669931800918863,5902.4094982718425
1.708,0.8541872547956396,5901.596598801322
1.712,0.8534564501969919,5894.387940543123
1.716,0.8656549404880396,5905.35058985907
1.72,0.8870876206084001,5909.041803901875
1.724,0.910086542460631,5907.640232959534
1.728,0.9253734214731176,5902.409129343238
1.732,0.9253889850021066,5898.757532334005
1.736,0.9072550564201847,5905.224247365703
1.74,0.8741541398623228,5893.108446252894
1.744,0.8346156768888248,5903.5017603919305
1.748,0.8000979687579569,5904.223454916497
1.752,0.7818567734793695,5908.261549701302
1.756,0.7881304965605714,5899.173750506155
1.76,0.8222781051655293,5897.50420518521
1.764,0.8820612627036455,5897.573369412236
1.768,0.9600167513606629,5898.268472701076
1.772,1.0447645605543547,5903.40138530311
1.776,1.1230006141222495,5907.997122793008
1.78,1.1818279412241057,5905.195909005386
1.784,1.2110716099932213,5903.856157169058
1.788,1.2052811161245927,5903.038673505171
1.792,1.1651080887015932,5901.322850041383
1.796,1.0976504510785983,5899.386857095582
1.8,1.0154027841189062,5900.541530003578
1.804,0.9338082942301793,5897.954945628677
1.808,0.86791833139012,5904.920896520728
1.812,0.829007020405105,5894.445265972381
1.816,0.8220024777657162,5902.3182092103225
1.82,0.8444030614976646,5907.080403577481
1.824,0.8870604172389004,5903.589006892323
1.828,0.9367423656310817,5905.9246755634085
1.832,0.9797527227511119,5897.713872137815
1.836,1.0054224016258166,5916.156338937293
1.84,1.0083441672024738,5897.199962642219
1.844,0.9887848852677134,5896.739935317524
1.848,0.9514202280177515,5896.576843096329
1.852,0.903042082609964,5910.000860489658
1.856,0.8501001926624454,5907.852159098998
1.86,0.7969227658334066,5908.427868240562
