时间(s),电压(V),幅值(高频80K)
0.0,0.6027738281515858,5894.957217056735
0.004,0.8598772869103023,5892.542981004402
0.008,1.0907884515174713,5899.718414709967
0.012,1.2749850691085254,5898.358430162476
0.016,1.4001992221967448,5902.235559886762
0.02,1.463586815792976,5906.296280718502
0.024,1.4712507646436248,5896.852368885754
0.028,1.436596798198282,5892.911217874577
0.032,1.3777240504468382,5905.748856059055
0.036,1.3139954364611284,5902.348381950476
0.04,1.2623274769229025,5900.072213063441
0.044,1.2341300122925976,5908.087991451197
0.048,1.2336970517091064,5898.679373388593
0.052,1.2583003365339032,5900.895938136247
0.056,1.2997675570957397,5912.221239852477
0.06,1.347104858703506,5898.056339809541
0.064,1.3895132978019333,5904.998620828128
0.068,1.4189244576647215,5892.363534771341
0.072,1.431291072029005,5897.98789075536
0.076,1.4264795262092664,5898.418582516787
0.08,1.4073226999996074,5902.412593030144
0.084,1.3786058218559356,5899.741943333722
0.088,1.3463251935335636,5894.322596968188
0.092,1.3169668203997977,5908.272711570052
0.096,1.2964300154659207,5904.351372177685
0.1,1.2886651563262381,5892.525008376577
0.104,1.2945805972583415,5895.737761474075
0.108,1.3117858325992744,5893.44332834469
0.112,1.33530579339587,5907.277951094943
0.116,1.3589406793937295,5901.253244602518
0.12,1.376777954561767,5899.865229836442
0.124,1.3844711430996475,5903.482717087438
0.128,1.3800431723572684,5893.035361977412
0.132,1.3640272758008125,5902.071989372625
0.136,1.3388883285535578,5904.168109704966
0.14,1.3079945492103464,5899.732409478891
0.144,1.2746780497749464,5890.740696727827
0.148,1.2418006024756678,5904.427122030672
0.152,1.2118367391807925,5894.569214727386
0.156,1.1871870640283522,5891.19869669156
0.16,1.1703743413356125,5906.011463235478
0.164,1.163845684420919,5905.012695378499
0.168,1.1692745977554158,5899.647706147641
0.172,1.1865452677179082,5905.236928795375
0.176,1.2129055268862716,5903.766678286797
0.18,1.2428786740673587,5903.039760545953
0.184,1.269263669798191,5896.303345665918
0.188,1.285029210866497,5899.012772672053
0.192,1.2854582665566512,5899.804503163549
0.196,1.2697709756664641,5895.630503030391
0.2,1.241618197259049,5896.034399907732
0.204,1.2081723975081053,5905.517560518845
0.208,1.1779993385500402,5900.3367101383365
0.212,1.1583967570595415,5892.620521544729
0.216,1.1531951855089786,5898.801406382893
0.22,1.16187789580796,5890.155221017981
0.224,1.180289019439733,5900.5138328120565
0.228,1.2024728014726376,5901.677353864442
0.232,1.222761801377908,5903.862060154513
0.236,1.237336762936317,5904.254609312248
0.24,1.2449329460042182,5897.707935768312
0.244,1.246780792338704,5900.614393803413
0.248,1.246028119883874,5893.072116440275
0.252,1.2468487250234994,5903.984171721988
0.256,1.2533532093543371,5896.619958655788
0.26,1.2684014220611488,5905.28966732765
0.264,1.292505304323616,5899.285666077637
0.268,1.3231347742339568,5904.182190423302
0.272,1.3547705910740122,5895.212976137488
0.276,1.379890728875898,5899.35195979824
0.28,1.3907404136119257,5900.784740224321
0.284,1.3813998051850802,5901.989396688793
0.288,1.3495477952167794,5899.535552951725
0.292,1.2974219509453027,5905.015475931154
0.296,1.2316446507788992,5904.806964002288
0.3,1.161827713362493,5899.536175071515
0.304,1.0982523456253828,5900.664713047789
0.308,1.0493079204029394,5904.057283377779
0.312,1.0195030132379126,5900.456874694702
0.316,1.0086634252229512,5898.838021960891
0.32,1.0125441109309665,5891.623354129226
0.324,1.0246231088668045,5905.1285818694105
0.328,1.03839179911762,5903.029945807456
0.332,1.0492430821088463,5900.018561831676
0.336,1.0553491468460636,5901.564854622162
0.34,1.0575507146479908,5899.070188382477
0.344,1.0586969128319454,5896.242282839713
0.348,1.0627879529603457,5900.389135282204
0.352,1.0739787095360251,5899.667611520566
0.356,1.0954379508000178,5903.9157742064535
0.36,1.1282867813606812,5910.400459307891
0.364,1.1710526285519747,5900.628258027083
0.368,1.2199638797570929,5901.496339264396
0.372,1.2700060559451514,5893.905604379695
0.376,1.316307632671073,5899.650901042731
0.38,1.355384257839206,5900.076674039933
0.384,1.3859434110029123,5900.777546599585
0.388,1.409075257373866,5900.175938495414
0.392,1.4276949244881718,5899.003590272533
0.396,1.445271090433016,5895.3173349968565
0.4,1.4642539890872976,5897.845585429722
0.404,1.4849157043456498,5899.750147387063
0.408,1.5051753886482024,5896.853490552554
0.412,1.5214362435913649,5898.276945383089
0.416,1.5299630768467756,5889.4903453766165
0.42,1.5282191534598337,5898.152446267606
0.424,1.515732563972403,5896.231374888984
0.428,1.4942363422504497,5899.00736836148
0.432,1.4670607356185892,5906.982772158094
0.436,1.438105549339522,5904.006001945968
0.44,1.4109327925430695,5901.797654669047
0.444,1.3883284607786963,5897.419377197568
0.448,1.3722328205646492,5895.212721867792
0.452,1.363656694830665,5901.673353234309
0.456,1.3623265732338141,5888.079910561898
0.46,1.3661823735121281,5902.992028540068
0.464,1.3711591638938208,5901.2954800445
0.468,1.3717029336989872,5907.397090666234
0.472,1.3621558849587456,5906.1681560922025
0.476,1.3386251965405749,5899.309203727259
0.48,1.30055779028751,5910.253436439561
0.484,1.2512909718893261,5892.752875547373
0.488,1.1972917580947535,5898.919402358419
0.492,1.14634851683254,5893.080553733175
0.496,1.1053880485781016,5907.270568146572
0.5,1.078695440764353,5903.833528211992
0.504,1.0670714605180969,5900.0066218421
0.508,1.0680515624705524,5897.023428285505
0.512,1.0769771901794696,5898.082720571702
0.516,1.0885290800652339,5892.274203154071
0.52,1.0982646202886182,5900.133526978732
0.524,1.103752128493082,5896.757690460755
0.528,1.1050780794571406,5905.031248845878
0.532,1.1047302876978176,5902.911731206461
0.536,1.1069731850817914,5895.275178260416
0.54,1.1167953915654567,5893.168126882736
0.544,1.138506108046478,5909.906196775904
0.548,1.1742412409171985,5897.059290379356
0.552,1.2228536339788918,5902.3559791840935
0.556,1.2796092417283726,5911.534016625966
0.56,1.3368000283453672,5911.271509401998
0.5640000000000001,1.3851012118901662,5886.8821322115655
0.5680000000000001,1.4153812664385264,5896.791789065803
0.5720000000000001,1.4206237448616967,5898.668988755967
0.5760000000000001,1.3975998955564433,5902.261019324656
0.58,1.3479763080501692,5910.025311453696
0.584,1.2786086226112856,5903.447436406837
0.588,1.2008386047769624,5903.5487136822485
0.592,1.1287684343836726,5898.05318947153
0.596,1.076751439554335,5902.787828847324
0.6,1.0565862161301054,5897.603521348429
0.604,1.0750196917696186,5899.443199670089
0.608,1.132125311550466,5901.475534949642
0.612,1.2209474447248894,5904.767439195372
0.616,1.328547166372024,5892.934150029212
0.62,1.4382793121711281,5900.156421738589
0.624,1.5328093307696944,5903.059685970803
0.628,1.5971727528020558,5901.434344555507
0.632,1.6212200048699368,5905.279113884542
0.636,1.6010415526148964,5885.237655368875
0.64,1.5393066938803317,5899.012699746986
0.644,1.4447482459043974,5892.726755394305
0.648,1.3311196934911846,5891.262172660407
0.652,1.215726614250158,5890.626207513486
0.656,1.1172790731997588,5899.18995204694
0.66,1.0528065359181107,5893.246935123113
0.664,1.0339897310264692,5888.385357505138
0.668,1.064073426136565,5910.796903201242
0.672,1.1367251226068258,5898.689624303411
0.676,1.2374771200383865,5904.46514677848
0.68,1.3472489799724168,5898.040578920391
0.684,1.4466961195170769,5902.992140346673
0.6880000000000001,1.5201188634258327,5901.71416444418
0.6920000000000001,1.558121407514408,5898.809788894464
0.6960000000000001,1.5586879268547944,5902.927754742427
0.7000000000000001,1.526683624185413,5887.164559202832
0.704,1.4720586386340861,5901.019009530395
0.708,1.4072648654024171,5887.994316617327
0.712,1.344541052217525,5892.7931277734015
0.716,1.2936974743311211,5900.8445531369325
0.72,1.2607815320590836,5903.252024040868
0.724,1.2476444103700037,5895.519135617024
0.728,1.2522181331337618,5906.283078423993
0.732,1.2693418334691107,5896.80738980484
0.736,1.2920358069335085,5897.427146758076
0.74,1.3130155545058906,5906.660633604224
0.744,1.3260573374351,5903.730672785146
0.748,1.3268278558774573,5900.558324177071
0.752,1.313076698903328,5902.90693473973
0.756,1.2844581168091445,5902.331060145571
0.76,1.2423821136085296,5908.886227343438
0.764,1.1900941114986212,5903.049287260547
0.768,1.1328332588052252,5896.695800958341
0.772,1.0776886661068308,5901.171688878618
0.776,1.0328214868361707,5898.899503580442
0.78,1.006035828588246,5893.302373581874
0.784,1.0030632149807215,5896.678051611588
0.788,1.0260990376984525,5896.445654548693
0.792,1.0730156984639856,5901.342329872698
0.796,1.1374690252866397,5901.789040763613
0.8,1.2099581307582472,5903.313024234069
0.804,1.2797042338355749,5907.901633580226
0.808,1.3369324901711497,5904.677290337439
0.812,1.374942123296051,5891.8133949718085
0.8160000000000001,1.3913775908460082,5901.069838339812
0.8200000000000001,1.3883397087716427,5899.844414852053
0.8240000000000001,1.3713288658770426,5904.116837033913
0.8280000000000001,1.3473840613462504,5899.6412500082215
0.8320000000000001,1.3230102882147587,5899.552589880537
0.836,1.3025178185653037,5892.812805337845
0.84,1.287260598359199,5900.8678688570535
0.844,1.275924838562289,5903.975878069215
0.848,1.2655688072515254,5902.491867409134
0.852,1.2528878521263587,5899.24279376341
0.856,1.2353499272277435,5896.697101097554
0.86,1.2121132193319042,5901.157973383308
0.864,1.1846332258352814,5901.561129913946
0.868,1.1566866131933184,5888.834650404968
0.872,1.133572250158855,5896.931769276056
0.876,1.120611104435384,5898.056063619701
0.88,1.1214488643793785,5898.038807530718
0.884,1.1367593693670208,5901.394672257122
0.888,1.1637668281690936,5902.411144435876
0.892,1.1967172727150537,5892.552300531597
0.896,1.228137684105469,5902.352389670136
0.9,1.2505165066517,5911.168868711192
0.904,1.2580032477625858,5894.072006032361
0.908,1.2477948641216248,5896.437977567682
0.912,1.2209154611214488,5900.843156948614
0.916,1.1821166185934622,5894.9752315486285
0.92,1.138786877298025,5897.638428863665
0.924,1.0991024392606197,5899.62746998583
0.928,1.0699667060798699,5899.595375245071
0.932,1.0553478878354567,5897.450263803127
0.936,1.055467049680633,5900.637152417899
0.94,1.0670729638840897,5901.276347417545
0.944,1.0847673930118706,5903.364799178785
0.948,1.1029744243223099,5901.1029430862245
0.952,1.1178430022654464,5897.267708802708
0.956,1.1283658738092817,5895.61835344213
0.96,1.1363274985554677,5903.880837755993
0.964,1.1451909092187138,5902.112104313717
0.968,1.1584540567234374,5897.330809462665
0.972,1.1781531031549668,5902.231804883073
0.976,1.2040367424084684,5893.6003869063325
0.98,1.2336110246052527,5898.123315864533
0.984,1.2629162353572747,5900.913378655499
0.988,1.2876760379908023,5898.884075126075
0.992,1.3044251155880622,5898.509849061257
0.996,1.3113181525940778,5906.393807188241
1.0,1.3084394319156074,5908.401378324712
1.004,1.2975700469147136,5899.094652380757
1.008,1.2815678360074196,5901.694662861591
1.012,1.2636698958662227,5901.724361766143
1.016,1.2470052895557169,5898.801422075328
1.02,1.2344372708588496,5899.658514303224
1.024,1.2286497106163714,5905.901290448586
1.028,1.232222097131598,5902.0175678742135
1.032,1.247398728633963,5896.93405465399
1.036,1.2754367080587259,5907.399528403299
1.04,1.3157151228851993,5898.947386404178
1.044,1.364976747609413,5891.093434925833
1.048,1.41706098602297,5907.417359221384
1.052,1.4633822669145715,5903.984565193755
1.056,1.4942921444346877,5896.008725648471
1.06,1.5012262915702956,5911.741430764751
1.064,1.4791228078276728,5907.414561105069
1.068,1.4282733998654038,5901.412186964389
1.072,1.3548557880303362,5896.882093716287
1.076,1.26985374708151,5898.628246154079
1.08,1.1866078428526938,5904.042181095157
1.084,1.1176472213872846,5904.2967769324005
1.088,1.0716704564831387,5896.073390631061
1.092,1.0515667621372213,5894.025303948138
1.096,1.0541461696122196,5898.34668656872
1.1,1.0716847566098866,5900.6403046380265
1.104,1.0946528894162946,5903.27827036933
1.108,1.114581240712066,5899.864515563274
1.112,1.126178866497112,5907.73790303672
1.116,1.1282387074212987,5904.337710426668
1.12,1.12324477876371,5893.904853735279
1.124,1.1159755424778093,5893.805750316284
1.128,1.1117572724263114,5899.684964010424
1.132,1.1150769898073116,5905.616038164273
1.136,1.128900573106498,5904.929400725247
1.14,1.154565616818687,5900.257775593234
1.144,1.1919018954244738,5900.278379002527
1.148,1.2393197188164415,5900.320369668281
1.152,1.2938269871154524,5901.668898906788
1.156,1.351150454150989,5894.604802396654
1.16,1.406211467628578,5906.331095127115
1.164,1.454004964461484,5903.240801281444
1.168,1.4905512878196474,5900.349818793351
1.172,1.5134085256129297,5906.443951767672
1.176,1.5215046835133565,5894.764889264454
1.18,1.5145855344206585,5897.377850138206
1.184,1.4929018020692075,5896.210352043208
1.188,1.457561942145759,5889.119985539864
1.192,1.4113988294291153,5900.657740581676
1.196,1.359708792383509,5890.609497686789
1.2,1.3101685014531483,5900.043105589381
1.204,1.2716052669126838,5903.458069349573
1.208,1.2518333307190301,5900.449683443628
1.212,1.2552082273251004,5908.195912499101
1.216,1.2807591667103897,5897.567953556044
1.22,1.3216897158219663,5903.700206542594
1.224,1.3666560646062684,5899.160898453301
1.228,1.4026065836296988,5908.225882645821
1.232,1.41833550756123,5908.662077676043
1.236,1.407565332918633,5895.200659687322
1.24,1.3705351349901382,5907.56029999004
1.244,1.31371971060485,5904.715467377564
1.248,1.2480795892254213,5897.458682069731
1.252,1.1866195459817082,5903.859008149114
1.256,1.141836531929833,5904.045089661433
1.26,1.1232720570434447,5896.877214791617
1.264,1.1353468253127916,5900.385436802422
1.268,1.175936579405507,5906.965076887504
1.272,1.2363105346342549,5903.492186707961
1.276,1.3027798875568604,5906.956074460039
1.28,1.359792273733025,5895.266510495934
1.284,1.393625675180943,5899.955673448914
1.288,1.3955955666280666,5906.194882590277
1.292,1.3638651969314484,5901.970478094639
1.296,1.3034293437303384,5896.433846752727
1.3,1.224437579817466,5891.99621931726
1.304,1.1394998758789012,5902.026570286537
1.308,1.0607869026036956,5898.248749750965
1.312,0.9976000085035791,5907.231386645727
1.316,0.9548219848309761,5899.124142965638
1.32,0.932440952832908,5904.223524158961
1.324,0.9261756269241007,5907.08754187782
1.328,0.9290453007481149,5904.4471514141605
1.332,0.9335325406780396,5899.728416329699
1.336,0.9338454325968804,5909.611747451021
1.34,0.9276976010311802,5910.187560950321
1.344,0.9170152852835595,5907.331144468951
1.348,0.9072068648608602,5899.252512361527
1.352,0.9051602633345907,5913.157295888997
1.356,0.9167205192024004,5904.379859916497
1.36,0.9446425827846484,5902.297019741009
1.364,0.9877400440732628,5903.535631038242
1.368,1.0413675968914864,5906.644479164224
1.372,1.0988565846403384,5894.690819056876
1.376,1.1532859749730935,5897.423770754555
1.38,1.199000775813127,5899.954044214392
1.384,1.23250138293784,5899.07758855318
1.388,1.2526403496486571,5897.357334536311
1.392,1.2603244836587093,5908.056332349503
1.396,1.2579716684820061,5908.013627529393
1.4,1.2488559803190165,5905.900350772489
1.404,1.236396802977109,5900.36382390028
1.408,1.2234942831702609,5905.607152633109
1.412,1.2120731915343548,5903.386288513452
1.416,1.2029761871290727,5893.989488305828
1.42,1.1962684156069725,5899.1799898904055
1.424,1.1918806557098713,5907.674992807672
1.428,1.1903140625203252,5902.209034885815
1.432,1.1929858466461005,5906.703423846368
1.436,1.2018901854518513,5903.401676943891
1.44,1.2185620485362487,5904.399871678614
1.444,1.2426812735955166,5900.375924378453
1.448,1.2709031772455324,5907.448692401742
1.452,1.296580964913259,5899.170201542069
1.456,1.3108590601619157,5902.80505781382
1.46,1.3050937386386385,5912.646235698158
1.464,1.2738518157521306,5911.974563023529
1.468,1.2172918395823003,5904.615319591345
1.472,1.1419302303308663,5898.61655708098
1.476,1.0595152015724087,5908.32674263798
1.48,0.9844334769909789,5906.605996399305
1.484,0.9303751668810677,5910.942310572633
1.488,0.9069878286806204,5895.967764218945
1.492,0.9172727509063119,5899.807038920161
1.496,0.9565332623244551,5911.039907452
1.5,1.013462255928856,5907.709012699168
1.504,1.073266919071659,5896.972444205188
1.508,1.1218302404929366,5905.409925154923
1.512,1.1493417166026283,5896.856843197774
1.516,1.1520363143388501,5903.587507336792
1.52,1.1316415254988275,5904.500019147835
1.524,1.0932725304962831,5908.557084124075
1.528,1.0431242956384081,5907.689556657108
1.532,0.9870763268159183,5905.763513008683
1.536,0.9304782423543977,5901.766875179867
1.54,0.8785151907346718,5911.725974888086
1.544,0.8362655451713336,5899.456325569349
1.548,0.8080130459545515,5906.851036339632
1.552,0.7961297142172882,5906.756706074094
1.556,0.8002919846220695,5910.411736063368
1.56,0.8176476522609591,5896.590422920701
1.564,0.8439834247670497,5909.813720016319
1.568,0.8753432253911806,5907.071780635353
1.572,0.9092936074633244,5905.65770445327
1.576,0.9452842032546985,5909.868000155831
1.58,0.9840785350446489,5908.237680228668
1.584,1.0266150284740603,5902.439711468015
1.588,1.0727450960743214,5907.879602542112
1.592,1.120259376452937,5903.161695972629
1.596,1.1646094701929282,5912.0691113342455
1.6,1.1996652856688124,5911.111903774504
1.604,1.2195151905611132,5896.760633867419
1.608,1.2207491445375436,5906.857803881764
1.612,1.2042166775027272,5902.9248448972585
1.616,1.1752861258509586,5909.199667219858
1.62,1.1422294887270306,5903.874188160752
1.624,1.113257259343338,5905.869479895704
1.628,1.0934271992123914,5897.943924566979
1.632,1.0827242155770063,5905.035614331851
1.636,1.0760602979621023,5902.861999860843
1.64,1.0651658052741149,5911.392865805598
1.644,1.0417169250352125,5894.710842190727
1.648,1.0006784270066829,5910.510362890872
1.652,0.942705570698721,5905.049497843223
1.656,0.8746337147523221,5902.028304312744
1.66,0.8077303770508063,5904.622135124383
1.664,0.7543299933638555,5908.270560398691
1.668,0.7241966452754925,5909.698559202043
1.672,0.7220079503521275,5899.5969846422495
1.676,0.7467097323009088,5907.928641765847
1.68,0.792578288433857,5900.0010305270935
1.684,0.8512031624004929,5904.265852575139
1.688,0.9135560726622903,5900.462739256065
1.692,0.9716633940192927,5913.1874226862
1.696,1.0197504938389967,5905.960771657806
1.7,1.0548610437825494,5904.103155739636
1.704,1.0769443222613317,5908.636964384657
1.708,1.0883803785876212,5909.621451450858
1.712,1.092941636693848,5907.00188199772
1.716,1.094346940734871,5907.87415835169
1.72,1.0948452460127829,5908.854282222742
1.724,1.0944246771771715,5907.915488814277
1.728,1.0910328504457112,5907.258407848325
1.732,1.081700679785538,5906.865709319038
1.736,1.063998482948521,5903.627410975737
1.74,1.0370896658177364,5906.5134821769
1.744,1.001879248144923,5909.574357462256
1.748,0.960257637766916,5909.204533341021
1.752,0.9139392938348989,5906.542059837193
1.756,0.8636383362201268,5912.306106064966
1.76,0.8091609850896279,5898.703723312759
1.764,0.7504463783471652,5901.481554470335
1.768,0.6889589000336318,5903.989280600361
1.772,0.628563019562251,5904.713154344942
1.776,0.5752493323045634,5915.741468939658
1.78,0.5356411578289405,5910.979419912413
1.784,0.5148300158892355,5909.514070256092
1.788,0.5144853531072365,5906.268368478613
1.792,0.5321075905576601,5904.191646182188
1.796,0.5617674154364263,5903.90356879449
1.8,0.5960145175256413,5904.527817214273
1.804,0.6281658492597378,5904.029144114744
1.808,0.6540703428569603,5894.669161355403
1.812,0.6727362540966892,5907.435259538803
1.816,0.685752764237513,5909.166039845609
1.82,0.6959302323434851,5906.88381675487
1.824,0.7058105070798887,5898.222834837197
1.828,0.7166609160117008,5912.740955185231
1.832,0.7282909393445245,5905.749758991938
1.836,0.7395618849870232,5911.943153884234
1.84,0.7490636963005554,5910.059897921027
1.844,0.7554536760008301,5902.770496882546
1.848,0.7573827339078766,5904.800189223784
1.852,0.7533731934537852,5906.340135724794
1.856,0.7420760798523272,5907.143508201613
1.86,0.7230082104503521,5907.194461491265
