时间(s),电压(V),幅值(高频80K)
0.0,0.7772780373337171,5896.877929417175
0.004,0.8626250367297369,5900.775199807574
0.008,0.9441431346715891,5893.441236109416
0.012,1.0181917071591244,5903.17758572445
0.016,1.0819860441000848,5899.538792553019
0.02,1.1334859245382802,5904.432313547345
0.024,1.1712756466582037,5903.724604389374
0.028,1.1946469757475815,5898.61217357042
0.032,1.2038208319383608,5903.274412777417
0.036,1.2001226739295445,5900.519073945133
0.04,1.1860278542072242,5901.789777502981
0.044,1.1650817083820662,5898.462493022521
0.048,1.141624864602129,5900.771119626818
0.052,1.1201862307429593,5891.192560092727
0.056,1.1045480870354807,5900.523664454735
0.06,1.0967453757471732,5907.501135459896
0.064,1.0963834688419056,5897.242479470851
0.068,1.1005776686982922,5905.525415939452
0.072,1.1046460745142057,5897.428282258221
0.076,1.1034793047150586,5893.4826583341655
0.08,1.0932557846402369,5900.142792525652
0.084,1.0729512866278004,5900.611988742136
0.088,1.0450476333007528,5912.531003759525
0.092,1.015064057073373,5902.518779791027
0.096,0.9900002521907213,5896.262934232366
0.1,0.976297898910575,5900.825673344632
0.104,0.9781436803000936,5898.125963887913
0.108,0.9966381529240674,5900.275192536328
0.112,1.0297702365723165,5900.651032110287
0.116,1.0728008319517226,5899.488881501603
0.12,1.1188489705634868,5899.0595440011375
0.124,1.1598602261533228,5907.820077963443
0.128,1.188158300419483,5901.970877426595
0.132,1.198319545795546,5904.713187781844
0.136,1.1886358746309558,5899.712636366261
0.14,1.161467686037611,5904.01749498109
0.144,1.1223456576099387,5897.376468217235
0.148,1.078289200712072,5904.989445034203
0.152,1.0360518383555433,5898.887270351497
0.156,1.0008458399954185,5898.000030312203
0.16,0.9757443924815232,5894.792989831945
0.164,0.9616325252981438,5901.387018373068
0.168,0.9574530178327331,5907.0504114435225
0.172,0.9606075925188404,5896.952709274551
0.176,0.9675611682535002,5904.452910883495
0.18,0.9747315817822236,5902.032442945339
0.184,0.9795611399872081,5886.854422869561
0.188,0.9814178990205863,5901.7158812444
0.192,0.9819126831232101,5897.281931640345
0.196,0.9844403919401452,5897.452374688947
0.2,0.9930879984286167,5899.501398744676
0.204,1.0112461103200894,5898.9446942957065
0.208,1.040280244206327,5896.598881992538
0.212,1.0786032493380293,5901.311948538406
0.216,1.1214839945409485,5897.54560393561
0.22,1.1618186478402848,5898.234336703272
0.224,1.1917915058235675,5898.846296165511
0.228,1.2049355782190314,5896.176413137386
0.232,1.1978288283573484,5903.373343162535
0.236,1.1707996683967852,5898.286174017285
0.24,1.1275236946923417,5903.476564942998
0.244,1.0739005982584025,5898.035070158002
0.248,1.016781017712922,5898.932169596715
0.252,0.9629523527185002,5899.8959810413535
0.256,0.9184975567901792,5894.070636335605
0.26,0.8884305876175604,5900.077994609611
0.264,0.8764437733328486,5895.549111049521
0.268,0.8845996196040278,5888.100866517655
0.272,0.9128731500581723,5897.899727782469
0.276,0.9586765426772124,5902.585096277162
0.28,1.0167290412190724,5901.835560396347
0.284,1.0795809623153096,5902.724556638322
0.288,1.1387639949677857,5902.071776437183
0.292,1.1862497416494981,5904.922526459256
0.296,1.2158615352136921,5903.37979258061
0.3,1.2243829919189733,5895.923277920227
0.304,1.212160558751376,5897.204334707576
0.308,1.1830065570716461,5896.082911656815
0.312,1.14330551434665,5897.39007587823
0.316,1.1004876236059986,5904.220544829069
0.32,1.061342009188008,5897.21664735798
0.324,1.0307508082112462,5895.626584481382
0.328,1.0112010268482985,5895.782403934273
0.332,1.0030131488552512,5903.354886647058
0.336,1.0049225306487508,5889.768142176661
0.34,1.0146601706151266,5902.709089084886
0.344,1.029399389640909,5907.688100379872
0.348,1.0461261687858998,5900.974065055959
0.352,1.0620407524386557,5898.40582253664
0.356,1.0749968696892591,5889.847868957493
0.36,1.0837944256993572,5903.25664274429
0.364,1.0880810796238682,5897.858488007984
0.368,1.0878586317121954,5899.002495234205
0.372,1.082936389190654,5901.143786883972
0.376,1.072749747409404,5890.709744991738
0.38,1.0566804420787117,5901.440702015889
0.384,1.0346413588009935,5892.313371433131
0.388,1.0075171846728366,5900.768704016507
0.392,0.9771780962775555,5898.453864692997
0.396,0.946102675004993,5906.9918390403245
0.4,0.9169179770728865,5902.047393157085
0.404,0.8921610680159021,5899.562099616767
0.408,0.8742870368166558,5908.974964574364
0.412,0.8656509020055686,5900.556035447076
0.416,0.8681669696586994,5892.188226832827
0.42,0.8826694247994226,5894.587116714213
0.424,0.9083915871355458,5903.328663979597
0.428,0.9430162472962372,5900.8734379799
0.432,0.9833172062182962,5907.326843028885
0.436,1.0259522949833757,5898.250768275338
0.44,1.0679662663109868,5903.191780315213
0.444,1.1069418532694957,5901.37066501966
0.448,1.1410367523419593,5894.270019828854
0.452,1.1691331905920266,5894.100529700103
0.456,1.191122058980912,5898.4284700305
0.46,1.2081071136545938,5899.75622346375
0.464,1.2221908692467773,5906.414648393224
0.468,1.2356601868482746,5893.990652310128
0.472,1.249806760760845,5898.498286143161
0.476,1.2639808717173937,5897.045147515556
0.48,1.275463837529773,5901.975461489952
0.484,1.2803418787068648,5897.259216234368
0.488,1.2750468836960138,5904.590592939419
0.492,1.2579065284476059,5897.258549745015
0.496,1.230053190773051,5898.553343382141
0.5,1.1953281393877797,5900.745293952183
0.504,1.1592342153850521,5901.262793803619
0.508,1.1273522846179593,5899.224935386283
0.512,1.1038058488553328,5897.198480799242
0.516,1.090300499359818,5900.049603222257
0.52,1.0860125154513838,5904.539681158082
0.524,1.0882324364709806,5901.973782614193
0.528,1.0933484152119881,5900.420668598899
0.532,1.0976771354136514,5900.7727782318425
0.536,1.0978891777044435,5906.589011641102
0.54,1.0911570280565348,5893.864893432279
0.544,1.075352136149264,5904.346256256003
0.548,1.0494753864281958,5890.282666777877
0.552,1.014198230428606,5894.031582508927
0.556,0.9722057599482564,5900.728944362266
0.56,0.9280879833657151,5894.833889954427
0.5640000000000001,0.8877307221640478,5897.67312493624
0.5680000000000001,0.8573417486358587,5896.352738541555
0.5720000000000001,0.8423266221264735,5898.083729261293
0.5760000000000001,0.8462390176331727,5901.991796754812
0.58,0.8700130540713228,5899.479982230987
0.584,0.9116425110345773,5905.824959740704
0.588,0.9664155435495686,5901.983582635392
0.592,1.027729498130837,5904.439166866995
0.596,1.088351144714477,5896.4662672568775
0.6,1.141791350304862,5902.375106687128
0.604,1.183374069067006,5897.1792926369935
0.608,1.2106992294599905,5902.229282971462
0.612,1.2234832814127512,5896.421335467326
0.616,1.2230419077125687,5906.492783982734
0.62,1.2117700993070437,5908.369665987325
0.624,1.1928184986355668,5895.809567235418
0.628,1.169900664965614,5900.513816388915
0.632,1.1470166542067886,5894.727459256532
0.636,1.1279541460921307,5898.738292249349
0.64,1.115629829505168,5898.182974331194
0.644,1.111468136946239,5901.011010704095
0.648,1.1150108055674204,5905.039295770072
0.652,1.1238952031068759,5903.988815962465
0.656,1.134292779292161,5899.646489921456
0.66,1.1417963772489415,5903.880621357857
0.664,1.1425455245729634,5902.63709032606
0.668,1.1342191808837012,5904.2964237596425
0.672,1.1165797257811332,5905.133769221843
0.676,1.0914764076127605,5908.914508280162
0.68,1.062405516645498,5904.627583943009
0.684,1.033789143770961,5901.903179488175
0.6880000000000001,1.0101447537676764,5897.517692799585
0.6920000000000001,0.9953105672241851,5891.769893793799
0.6960000000000001,0.991824969591619,5911.170298590919
0.7000000000000001,1.0004602948664454,5901.633588714424
0.704,1.019909837670933,5890.35869505353
0.708,1.046756086252161,5894.301579432054
0.712,1.075933376534511,5895.399047802582
0.716,1.1017528661035283,5900.758009719025
0.72,1.1192461850728919,5900.925034399204
0.724,1.125363998684201,5894.975131010315
0.728,1.119605695516851,5895.891894617002
0.732,1.103910406002439,5900.205062837911
0.736,1.0819429173960677,5888.350632895972
0.74,1.0581088769674223,5902.347651757703
0.744,1.0366546723644343,5896.285542586924
0.748,1.021051354938608,5899.106072501248
0.752,1.0136332989923709,5895.044974659492
0.756,1.0153561895434011,5893.946330188302
0.76,1.025647999408251,5901.970188205925
0.764,1.042474047760594,5899.823694839976
0.768,1.0627032433167818,5899.101425312326
0.772,1.0826995068465117,5902.238372311381
0.776,1.0989673384088792,5897.032537539347
0.78,1.1087107128663987,5904.465482463464
0.784,1.1102572846640073,5905.384663800835
0.788,1.103368945011349,5899.808615990519
0.792,1.089403231971434,5901.101235785
0.796,1.0711417415681117,5895.263131789119
0.8,1.0521122901433413,5904.546312925167
0.804,1.035532490752682,5904.272695676956
0.808,1.023325869981091,5899.57105588842
0.812,1.0156595541600697,5897.365316038531
0.8160000000000001,1.0111464249950572,5906.135164981756
0.8200000000000001,1.0075542354470364,5905.128305007678
0.8240000000000001,1.0027521189141162,5892.388002790278
0.8280000000000001,0.9956169367379029,5909.059688410416
0.8320000000000001,0.9866184100965221,5891.178508306614
0.836,0.977855575958697,5903.884398773981
0.84,0.972477104641855,5900.33639786306
0.844,0.9736290390039746,5898.244967010512
0.848,0.9832716522070567,5895.307937341585
0.852,1.0013264999706366,5904.759463762433
0.856,1.0255435468055776,5895.620852309788
0.86,1.0521757515025125,5895.793297681563
0.864,1.0771704041526406,5905.020305555127
0.868,1.0973775232811072,5899.976890072554
0.872,1.1113379530919303,5897.70347475038
0.876,1.1194519706105237,5899.816227432109
0.88,1.1235824853385594,5893.297250471841
0.884,1.1263005656728022,5904.2596269753285
0.888,1.1300158647429035,5903.446546844695
0.892,1.136212538325917,5898.6147922117225
0.896,1.1449714935612083,5892.882469182085
0.9,1.1548849391434148,5897.981506618066
0.904,1.1633789342603051,5900.382729143734
0.908,1.1673982283195992,5896.53568219689
0.912,1.1643297957988128,5897.231292691859
0.916,1.1528987774231476,5903.075357848868
0.92,1.133686174894906,5898.217918303179
0.924,1.1090468427036633,5897.87908572116
0.928,1.0824825751260092,5904.172085430339
0.932,1.0577426927628995,5901.87788556193
0.936,1.0379747443257077,5890.078506980996
0.94,1.0251592287383873,5899.466593843304
0.944,1.019915623896611,5894.983655122502
0.948,1.0216374706310756,5897.586198555557
0.952,1.0288504068272495,5896.256220632229
0.956,1.0396902140472493,5897.46143400367
0.96,1.0524086786725848,5895.944012930559
0.964,1.065782161631645,5897.630429138927
0.968,1.0792686993829905,5901.403043184137
0.972,1.0928328714302136,5904.046835624679
0.976,1.1065303829856656,5907.236580240762
0.98,1.1200759192879053,5899.278601258483
0.984,1.1326075895845527,5902.5692947985335
0.988,1.1427647174575253,5892.39591995141
0.992,1.1490854231169085,5898.8657907327415
0.996,1.1505993397918601,5899.763687084775
1.0,1.1473623591876214,5907.031175418074
1.004,1.1406510786463737,5896.155557687343
1.008,1.132664578734909,5895.743851952691
1.012,1.125811613763971,5897.361433392037
1.016,1.1218486734624706,5901.585083224949
1.02,1.12118056697152,5901.84516646741
1.024,1.1225672634962045,5898.10671304733
1.028,1.1233644320250842,5899.313175336382
1.032,1.1202845427087764,5895.837692507979
1.036,1.1105153937838572,5904.111594411373
1.04,1.092888802832112,5895.585610969102
1.044,1.0686849316836236,5897.383751632871
1.048,1.04169400232745,5896.750592465042
1.052,1.0174237999309905,5910.729966232338
1.056,1.001712472498262,5908.448189735317
1.06,0.9992191568301693,5902.624702475194
1.064,1.0122191472228528,5894.166142800616
1.068,1.0399611624200074,5904.147697456508
1.072,1.0786998065991191,5897.835531721583
1.076,1.1224013517273521,5896.00700848837
1.08,1.1639831100072395,5896.8154913242815
1.084,1.1968062951825071,5900.594564318291
1.088,1.2160725135542816,5908.803328702795
1.092,1.2198002005436532,5890.337254149502
1.096,1.2091481860855162,5899.481656761233
1.1,1.187997268873807,5905.112805146046
1.104,1.1619085843045496,5892.184973016782
1.108,1.1367937393323693,5897.010494747678
1.112,1.1177229131030348,5902.306250336531
1.116,1.108184201878644,5904.453883519696
1.12,1.1098537904587311,5903.576857320298
1.124,1.1226919419540176,5900.564640061142
1.128,1.1450844331844872,5901.30195614005
1.132,1.1738590561515845,5897.723992131317
1.136,1.2042492585402802,5895.473407986536
1.14,1.2300852180951298,5902.440280163552
1.144,1.2445176878066262,5901.07393586463
1.148,1.2413860999381627,5898.332019196259
1.152,1.2170089856330688,5905.689757190985
1.156,1.171845026109787,5894.564498818395
1.16,1.1113187948879892,5898.953510798421
1.164,1.0452472818450222,5905.261745241518
1.168,0.9857211291344428,5888.405317518706
1.172,0.9438709047013256,5900.285565444179
1.176,0.9265166788148614,5895.946170389772
1.18,0.9339838946684168,5900.161605505002
1.184,0.9600915705858589,5897.907378986371
1.188,0.9944803294197299,5902.169438139647
1.192,1.0264188670707972,5902.333401585485
1.196,1.048548651999837,5899.9512646496805
1.2,1.0590772366895143,5904.300749467366
1.204,1.0616687756286578,5898.559101923312
1.208,1.0632760193457511,5895.815982499471
1.212,1.0709133129339499,5900.888558397791
1.216,1.0886302744802616,5898.761947668821
1.22,1.115752873264219,5909.9003736030745
1.224,1.146973377545873,5896.333110290259
1.228,1.174224543838463,5903.738907934203
1.232,1.189617516166018,5890.127064497512
1.236,1.1882979251651866,5902.612594724091
1.24,1.1701186871331395,5897.850123320745
1.244,1.139582955839461,5903.888241220676
1.248,1.1042790859467286,5901.856062864542
1.252,1.0725340215471273,5901.627069540767
1.256,1.0510619609515657,5900.473475151695
1.26,1.0432150020604674,5903.555996958927
1.264,1.0482628067719133,5895.803645062129
1.268,1.0618806588953031,5899.605350866039
1.272,1.0776693847270775,5905.212735118235
1.276,1.0891948230568689,5901.62117081156
1.28,1.091852318784644,5903.943578860713
1.284,1.083924925923855,5899.074215133944
1.288,1.066549533954795,5895.973082881983
1.292,1.0427888953952549,5893.292682781997
1.296,1.016360395850667,5893.561790616996
1.3,0.9906179786817697,5907.790493295299
1.304,0.9681236293411639,5897.179075297334
1.308,0.9507427582991792,5899.138851235306
1.312,0.939919054676692,5898.566038960355
1.316,0.9368047895478003,5895.73044343324
1.32,0.9421575402473207,5896.129952449968
1.324,0.9561117185704419,5896.317645899246
1.328,0.97793667811081,5896.010556993287
1.332,1.0057889922877319,5904.843513198808
1.336,1.0364665817386947,5896.811811890076
1.34,1.065345525233047,5895.079030822248
1.344,1.0868357216620625,5897.272002123395
1.348,1.0955584073358262,5899.866889584641
1.352,1.0879960002174758,5899.332757617223
1.356,1.0639449628774176,5898.832971852061
1.36,1.0271265561074527,5905.017580140555
1.364,0.9847431385270715,5903.201066523827
1.368,0.9461772220565207,5901.969564638845
1.372,0.9211406580888438,5900.056327563792
1.376,0.9175308544628469,5893.892772437001
1.38,0.939324550126931,5905.8211643924105
1.384,0.9850756226989001,5912.990330743695
1.388,1.0476856386548028,5903.006102150994
1.392,1.1158078513850953,5899.9398691636825
1.396,1.1766226133963809,5887.985130238087
1.4,1.2191328308486615,5899.134746998538
1.404,1.2368706119118171,5911.767824769251
1.408,1.2291292904316522,5901.025197627582
1.412,1.2004671564715623,5908.455529618001
1.416,1.1589195526287253,5895.864010578875
1.42,1.1137112991826181,5902.5832175754085
1.424,1.0731924805355717,5904.255784355515
1.428,1.0434364938892684,5895.515154626351
1.432,1.0276481311808532,5902.671754757808
1.436,1.0262849301560926,5905.879407664194
1.44,1.037616138576296,5900.838880631125
1.444,1.0584070506261405,5904.604330038137
1.448,1.0845506446123512,5898.363912087784
1.452,1.111663288600201,5900.027542269817
1.456,1.135751195289498,5902.464983915144
1.46,1.1539616193366153,5905.649692947214
1.464,1.16523536233539,5895.4322774493685
1.468,1.1705574580240956,5895.791780112534
1.472,1.1725994088922889,5906.953301968917
1.476,1.1748186986427536,5894.774451909612
1.48,1.1803309514509766,5902.526786743719
1.484,1.1909175770207625,5901.852403540491
1.488,1.2063883807887856,5904.649956189343
1.492,1.2243711864818396,5907.988264773276
1.496,1.240583733900859,5903.13146435644
1.5,1.2496592480019753,5894.2738231827625
1.504,1.246468576806108,5906.876712202428
1.508,1.2276414791913703,5903.901278917942
1.512,1.192843737502859,5895.817584207093
1.516,1.145405432820708,5901.95963909552
1.52,1.0920468466922844,5896.0497713426585
1.524,1.0416638220238947,5898.601281514427
1.528,1.0034048674253517,5902.2055621569525
1.532,0.9845206585724665,5896.409042769752
1.536,0.9885785359814737,5895.132514898177
1.54,1.014542316018896,5902.055753845742
1.544,1.0569444332807136,5908.265133455744
1.548,1.107051037520126,5896.076766150623
1.552,1.1546745385777863,5893.934506156732
1.556,1.1901699540122146,5895.214269409213
1.56,1.2061728446782232,5903.475331880263
1.564,1.1987757601349762,5895.693374572888
1.568,1.1680074787615193,5898.743390475108
1.572,1.1176191732064336,5912.84551682036
1.576,1.054314948641817,5910.335573993434
1.58,0.9866619551337789,5904.709306188294
1.584,0.9238914751193589,5894.255996015246
1.588,0.8746797673811052,5893.582704073297
1.592,0.8459227929173507,5897.953853576009
1.596,0.8415848146335357,5901.1797947420455
1.6,0.8618597068590821,5905.316516263151
1.604,0.9030000366289491,5895.64143399946
1.608,0.9580832022765723,5905.057999407868
1.612,1.0186339283535473,5898.4825352856005
1.616,1.076575678949312,5903.625737930179
1.62,1.1257675027026028,5903.796813886701
1.624,1.16261132355696,5899.066882380028
1.628,1.1857560549944557,5903.49832604806
1.632,1.195371480055329,5894.666526781445
1.636,1.1925111738577734,5901.861629965105
1.64,1.1787972913244067,5891.808825613456
1.644,1.1563310861837428,5906.478732587456
1.648,1.1275927833458383,5902.843710163063
1.652,1.0952086184301664,5888.586855442269
1.656,1.0616988318292202,5903.688146418333
1.66,1.0294015317071923,5901.12213673364
1.664,1.0005669457410782,5895.656296509863
1.668,0.9773714594066156,5899.0592189155095
1.672,0.9616265247161357,5909.743460569015
1.676,0.9542299267633113,5907.163152106626
1.68,0.954635674038727,5897.69318527655
1.684,0.960639960302383,5907.633342502332
1.688,0.9686725139896488,5899.60606262496
1.692,0.974634901078664,5896.993470732211
1.696,0.9751109412074512,5895.556467154865
1.7,0.9685227087527005,5892.675514874909
1.704,0.9557117728221441,5904.633915912133
1.708,0.9396150200281327,5902.83756126637
1.712,0.9240867327773071,5899.950364937649
1.716,0.9123056815937973,5899.180525214263
1.72,0.9054252824675997,5890.987786941447
1.724,0.9020685862761298,5899.385575948545
1.728,0.8989366317824968,5898.822184136071
1.732,0.8922950666415859,5897.161254164242
1.736,0.8796672773601112,5899.897346100725
1.74,0.8609851392376434,5888.290569505747
1.744,0.8387896904073306,5901.184996922382
1.748,0.8175478155081056,5902.841689599138
1.752,0.8024383893649416,5905.091355706292
1.756,0.7979978018895122,5901.51540959627
1.76,0.8069223389716833,5898.55464820272
1.764,0.8292374041100039,5915.576123272167
1.768,0.8620300822514444,5904.464874276101
1.772,0.8999410065989747,5897.970303775469
1.776,0.9364550326965269,5897.129450828782
1.78,0.9656725596564899,5897.743070785852
1.784,0.9839083972142285,5897.552917889992
1.788,0.9904452653161874,5899.088705382893
1.792,0.9871470746700782,5896.451181877621
1.796,0.9772099008523562,5897.82552005385
1.8,0.963724727636043,5908.202757133963
1.804,0.94869207772024,5895.20897295206
1.808,0.9327706419541386,5901.329824327648
1.812,0.915682410292983,5903.847540350992
1.816,0.8970095195606267,5901.520184104344
1.82,0.8770434562344189,5901.16085618902
1.824,0.8573192436215772,5902.869252077428
1.828,0.8405458695506617,5899.579193376407
1.832,0.8298900207259219,5896.835520647597
1.836,0.8278893552860134,5897.163119238127
1.84,0.8354489177885354,5904.486096354089
1.844,0.8512785755380268,5908.045088797098
1.848,0.8718816728636157,5915.335047070622
1.852,0.8920546055669248,5908.092479618781
1.856,0.9058649900916076,5890.466595211186
1.86,0.9080635867778033,5898.232594103428
