时间(s),电压(V),幅值(高频80K)
0.0,1.6803371413556067,5898.415582753385
0.004,1.539335377720041,5894.212999767647
0.008,1.412827722772876,5890.375006500607
0.012,1.3125463928513703,5894.314608978492
0.016,1.245387784529538,5894.997012559908
0.02,1.2126202807772373,5899.381944836244
0.024,1.2104184271296587,5905.063244639474
0.028,1.2313444443566852,5901.207368765942
0.032,1.2661690561969001,5896.762416761929
0.036,1.3055118405408517,5897.68467750423
0.04,1.3410877134672154,5904.84455754106
0.044,1.366617685842099,5901.029218072827
0.048,1.3785096771260317,5901.245569846396
0.052,1.37626685680007,5893.703260200619
0.056,1.3624411224790272,5905.211202055028
0.06,1.3419954302629873,5892.667844532579
0.064,1.3211424324789172,5899.4118064848935
0.068,1.3059103091801147,5904.945984387887
0.072,1.3007464953062151,5894.844606503127
0.076,1.3074731451692547,5907.922003308016
0.08,1.324921573236517,5894.1827646211095
0.084,1.3494712988340374,5901.382847076028
0.088,1.3763456128318388,5901.022026636625
0.092,1.4010576752685822,5890.78869513304
0.096,1.4203307463543378,5901.308875197957
0.1,1.4322962017349377,5899.415695053181
0.104,1.4363426982809955,5910.609862970986
0.108,1.4330458445462224,5896.490485232771
0.112,1.4241436814661965,5897.445040203264
0.116,1.4121845539526179,5895.387342639944
0.12,1.399744118083803,5905.585748350061
0.124,1.3886434095043974,5899.470196091298
0.128,1.379682797137054,5903.152003017924
0.132,1.3729207646664652,5907.717038338002
0.136,1.3680666328218754,5900.455969541668
0.14,1.3645970558184188,5897.262490917785
0.144,1.3615764645620312,5902.702815906528
0.148,1.357436548310437,5897.862622842224
0.152,1.3500063800216664,5893.057839992107
0.156,1.3369747911727652,5900.528290916543
0.16,1.316760321795795,5901.517959294221
0.164,1.2894856005511874,5905.712111262857
0.168,1.2575383097688049,5901.094241967019
0.172,1.2252673527063658,5908.749825740515
0.176,1.1977982313901065,5901.561362301809
0.18,1.1794910278677135,5901.348658869333
0.184,1.172751334026376,5895.622427294434
0.188,1.1776193608475567,5904.038484243797
0.192,1.1921483169560245,5899.703579253063
0.196,1.2133353574478933,5901.895881289848
0.2,1.2382284786579862,5888.394439481908
0.204,1.2647247388532845,5902.880730141481
0.208,1.291680284249828,5901.217797780352
0.212,1.3183809941114288,5900.7651852151885
0.216,1.3438655333179872,5899.788454048868
0.22,1.3666256278532996,5900.042502066817
0.224,1.384828809372734,5895.061921485311
0.228,1.3968135878244474,5895.306365363657
0.232,1.4015143728683206,5900.116670395291
0.236,1.3986667844905531,5900.588080436921
0.24,1.3888891203146099,5890.366871655216
0.244,1.3737928578852094,5893.281656437106
0.248,1.3560885785671577,5898.491961486074
0.252,1.3394245984550288,5895.526415875537
0.256,1.3276923394676636,5893.890545631516
0.26,1.3238196189374065,5895.229132795492
0.264,1.328465467507128,5896.312293454334
0.268,1.339249334487936,5901.236798198589
0.272,1.351020409502213,5903.015225183885
0.276,1.3572678948981098,5903.591993561717
0.28,1.3523194466315898,5894.437340752316
0.284,1.3336391220532915,5902.353060020952
0.288,1.3033861689354482,5902.63303909706
0.292,1.268522470965936,5893.2214714092
0.296,1.2392225685641922,5898.213581553716
0.3,1.2260021153908425,5899.16346830139
0.304,1.236507602625863,5892.239823603529
0.308,1.2730416342951894,5900.779865003055
0.312,1.331621221115939,5902.849718153952
0.316,1.402828087193935,5900.109112212332
0.32,1.474092418767425,5898.260946896529
0.324,1.5325994125692468,5898.274914486409
0.328,1.5679593292493583,5900.420397652405
0.332,1.574110032877145,5893.790274367623
0.336,1.5503003865151461,5901.60401133413
0.34,1.5011644860138607,5907.185801713661
0.344,1.435898514359911,5903.961283203672
0.348,1.3665969095839638,5893.328603176197
0.352,1.3059376864736687,5898.201209616575
0.356,1.2645574203585608,5904.006242579608
0.36,1.2486307666740544,5904.426601700782
0.364,1.2583446595648284,5901.901669311326
0.368,1.287912428988986,5892.922065400794
0.372,1.327323088842861,5906.064331704991
0.376,1.3653398458939967,5901.921835475207
0.38,1.3927506056784655,5910.631386651827
0.384,1.4047861241478286,5892.776475507137
0.388,1.4019417669946574,5891.2256006841935
0.392,1.389013913417957,5906.093486104565
0.396,1.3728047551563891,5905.144570189593
0.4,1.359421611762972,5898.35376016025
0.404,1.3521851693035958,5891.004510055464
0.408,1.3508429163134548,5908.440428533848
0.412,1.3522149020363412,5899.870816019305
0.416,1.3518184723666447,5905.7542788651135
0.42,1.3457208106534082,5896.099092223008
0.424,1.3319832873749209,5898.982092251567
0.428,1.3113702173553292,5902.039619263593
0.432,1.2872329256676616,5899.914048570526
0.436,1.2646628895483574,5912.5862602760335
0.44,1.249211635408144,5898.082465792219
0.444,1.2455889253718921,5903.274456849546
0.448,1.2566660089695958,5897.48021439606
0.452,1.282912030090705,5907.362689864702
0.456,1.3222364461880827,5894.4602583015685
0.46,1.3701795558111591,5907.109794905157
0.464,1.4204513449735077,5909.860041077193
0.468,1.4658465160958818,5900.930269574132
0.472,1.499487058469428,5908.855878802295
0.476,1.516198406057121,5907.823759032805
0.48,1.5136809938052775,5902.640311477697
0.484,1.4930853612759278,5894.019550808455
0.488,1.4587369445850937,5906.300644832908
0.492,1.4170587978397504,5903.119884118978
0.496,1.3750160389411135,5902.806583858952
0.5,1.3384981968472045,5904.700288120929
0.504,1.3109949405580688,5900.7706616607975
0.508,1.2928514682925687,5905.662118155488
0.512,1.2813601411652435,5899.578392368752
0.516,1.2718016150855187,5902.955479987983
0.52,1.2591763254337833,5897.045390964867
0.524,1.2399856266305453,5896.884629835316
0.528,1.2133877673323505,5899.751096546653
0.532,1.1813995612814217,5894.996096382291
0.536,1.148237692808791,5890.662279498249
0.54,1.1191388395851867,5905.265885875403
0.544,1.0990468415116967,5906.044988329137
0.548,1.0915056612763678,5902.317861469925
0.552,1.0980076899683249,5895.795153405132
0.556,1.117924283743292,5902.838324751348
0.56,1.1490026326984784,5901.726798140805
0.5640000000000001,1.1882510459580273,5900.786018236689
0.5680000000000001,1.2328493546716717,5897.193735768098
0.5720000000000001,1.280638719810434,5898.148808848287
0.5760000000000001,1.3299521077679697,5895.466217883928
0.58,1.3789635853153814,5904.464559691867
0.584,1.4250223183477957,5892.168117318166
0.588,1.4644126894257476,5902.379373936457
0.592,1.492766215561876,5894.525278573465
0.596,1.5060931137269424,5902.402052762675
0.6,1.502129863739777,5903.063957875129
0.604,1.4814645437022604,5899.138216749158
0.608,1.4478544786151888,5894.031191405122
0.612,1.407409886187309,5900.702466487604
0.616,1.3668187609071927,5898.693417613434
0.62,1.3312915938376262,5896.932039481972
0.624,1.303131512181355,5907.803547506382
0.628,1.2816059174540562,5901.204455089749
0.632,1.264155914544783,5903.7689670577365
0.636,1.2482812644404042,5905.706162046927
0.64,1.2331352493684535,5900.750061809516
0.644,1.2201141738590118,5895.802966213154
0.648,1.2122891696865536,5905.508636425456
0.652,1.213062043875548,5902.383219276887
0.656,1.2247265953505049,5896.70113968393
0.66,1.2475720515146211,5900.279361778968
0.664,1.2797760472775792,5896.688856783747
0.668,1.3178510438178725,5894.46646056172
0.672,1.3572128152092502,5904.800239415947
0.676,1.3926686323523705,5899.173552309107
0.68,1.4189935745534932,5896.92749452648
0.684,1.4318450284311262,5904.498348682459
0.6880000000000001,1.4289398314088708,5895.759805424998
0.6920000000000001,1.411023241774513,5891.654281637353
0.6960000000000001,1.3820957685028836,5890.6976812686
0.7000000000000001,1.3486758179904528,5890.986768003314
0.704,1.3183043600055666,5895.924460140718
0.708,1.2977798130709206,5902.367621350999
0.712,1.2916440615988387,5900.24008155718
0.716,1.3012936319908832,5900.502100236108
0.72,1.3248803798401207,5898.902945899714
0.724,1.3579414747297098,5903.068993655058
0.728,1.3945163618209142,5900.919362913123
0.732,1.4284557371232227,5898.292748646578
0.736,1.4546695304394182,5901.519213324877
0.74,1.4700790409793438,5907.867509705892
0.744,1.4740397564647785,5895.701560134459
0.748,1.4680971789215869,5903.272725493691
0.752,1.4551436855463753,5904.667931817641
0.756,1.4382567852177357,5892.960245828137
0.76,1.419631494110576,5898.585876941667
0.764,1.4000290008194007,5897.093025360997
0.768,1.3789925954259326,5900.674389041477
0.772,1.3557253219415442,5902.221344092645
0.776,1.3301650079422311,5908.065641186492
0.78,1.3037059000837714,5907.682706289901
0.784,1.2792466354921983,5892.172646104962
0.788,1.2605542205854054,5907.841154152883
0.792,1.2511522978424194,5898.3701964252
0.796,1.2530987184157738,5898.700885801156
0.8,1.266098866476716,5895.327341728886
0.804,1.2873060943110528,5908.416632086045
0.808,1.3118994600842566,5891.46616122901
0.812,1.3342417295268234,5902.064723871647
0.8160000000000001,1.3492511262546858,5903.44855433231
0.8200000000000001,1.3536235376759813,5902.643843433419
0.8240000000000001,1.3466274626204782,5905.786450831755
0.8280000000000001,1.3302507916383923,5902.405745098068
0.8320000000000001,1.3085738726801233,5905.030474770192
0.836,1.2864883021632358,5895.376793518794
0.84,1.2681671832968502,5894.795510479172
0.844,1.2558143583961776,5905.594414368292
0.848,1.2491345128351197,5897.48285373657
0.852,1.245741772474999,5905.959470087494
0.856,1.2423971724104772,5901.955245542004
0.86,1.2366062445995984,5894.210820477417
0.864,1.2279112152608618,5898.106647170118
0.868,1.2183485620215055,5907.3345085896335
0.872,1.2119341852200547,5901.381218354689
0.876,1.2134203744201828,5892.826411366311
0.88,1.226791859279046,5897.217305486582
0.884,1.2540411051922125,5894.921588217965
0.888,1.2946249294103114,5899.205801214907
0.892,1.3456225312942025,5893.813805845833
0.896,1.40226626490643,5905.686467726484
0.9,1.4585387540365016,5908.739684924141
0.904,1.5078351255128504,5912.08639280523
0.908,1.5438680434191157,5905.504491898419
0.912,1.5618344573980125,5895.164783507995
0.916,1.5595438602419303,5896.6860665598215
0.92,1.5380388944428078,5903.863851007543
0.924,1.5013730314858709,5902.540491433195
0.928,1.4555718048219166,5903.87567505326
0.932,1.4071782526352934,5897.903544534338
0.936,1.361934982207454,5907.53125820707
0.94,1.323985052685109,5891.222676038086
0.944,1.295647828913201,5904.390300674165
0.948,1.2776279785708011,5900.758867853169
0.952,1.2694986910235724,5900.926668888514
0.956,1.270283094601293,5897.482058727142
0.96,1.2788838411351728,5894.3916907188495
0.964,1.2941436527605723,5897.644516971277
0.968,1.3145591050047376,5908.769232948464
0.972,1.337954028571843,5901.5623190003935
0.976,1.361473749192618,5901.244945009148
0.98,1.38201742776594,5903.682828575927
0.984,1.3969116076692507,5898.317599750367
0.988,1.4045030989399132,5893.0818738496855
0.992,1.4044349707805046,5911.40650325035
0.996,1.3975277650521136,5897.151594752125
1.0,1.3853472435989107,5904.335562080996
1.004,1.3696906808308356,5894.6021282798165
1.008,1.3522767476943383,5905.756065693454
1.012,1.334773304280148,5896.507050489275
1.016,1.3190233026475402,5894.784535092347
1.02,1.307166528603734,5895.745780204927
1.024,1.30143471033878,5900.409705268184
1.028,1.3036368875707893,5894.66823539178
1.032,1.3145778820390384,5898.42252766023
1.036,1.3337274129489312,5902.444218479815
1.04,1.3593281527473524,5900.041148435176
1.044,1.3888679776559716,5893.610407153282
1.048,1.4196329557939742,5900.303889001935
1.052,1.4490758809249942,5898.0422138981085
1.056,1.4749529592455723,5903.1112248732215
1.06,1.4953731973288011,5905.654645499619
1.064,1.5088855244856818,5900.895225711056
1.068,1.5145589249519236,5905.049388149957
1.072,1.5119288433683256,5901.351304547889
1.076,1.5008263941375564,5902.057326323112
1.08,1.4813310896396255,5900.520895064528
1.084,1.4540933913939302,5895.658748070719
1.088,1.4209455501504134,5906.740303297993
1.092,1.3853229064834593,5900.012774153407
1.096,1.3519640098795687,5901.932345504936
1.1,1.3257528580443072,5895.505037551469
1.104,1.310100418829401,5903.695772664361
1.108,1.3055672415023136,5902.315566891595
1.112,1.3093785929785358,5895.99473434686
1.116,1.316130045042993,5907.182619610355
1.12,1.3194637102298687,5888.8842034016725
1.124,1.3140604183748898,5904.159803313929
1.128,1.2971789265852334,5894.739165581344
1.132,1.269232905413661,5900.866248514193
1.136,1.2333727733832966,5904.745584866774
1.14,1.194446468920196,5902.691197624352
1.144,1.1578190265505348,5899.477455904812
1.148,1.128360824909528,5903.420092451044
1.152,1.1096995376778505,5899.276183669266
1.156,1.1037376558712448,5895.945897152469
1.16,1.1104505304122232,5904.295353249165
1.164,1.1280086455455691,5902.990960033499
1.168,1.1532371625029585,5907.0899360868125
1.172,1.1823123209728081,5903.006010235733
1.176,1.211476850709823,5894.846493612345
1.18,1.2375554352636469,5902.499511060668
1.184,1.2581722407807938,5908.594837896548
1.188,1.2717217428698295,5899.652044574611
1.192,1.2772580507529316,5900.7765051821125
1.196,1.2744805541969535,5904.1737392156165
1.2,1.2638375417645737,5899.848467612857
1.204,1.2465752211298817,5904.374449152145
1.208,1.2245811064241088,5904.908914429769
1.212,1.200092241682427,5897.175918825416
1.216,1.1754720559896108,5900.116342760539
1.22,1.1531573656583962,5907.487643790382
1.224,1.1356715295336102,5895.238785492437
1.228,1.125484349961107,5903.218981765804
1.232,1.1245632418285274,5904.31170265208
1.236,1.133659643839906,5903.850772527115
1.24,1.1515739706283608,5905.343869783779
1.244,1.1747382799440618,5898.407861756834
1.248,1.1974294216219743,5902.360987053224
1.252,1.212755763907425,5905.952184227541
1.256,1.2142518671346716,5899.948985130746
1.26,1.1976271850025049,5905.359323383592
1.264,1.1621376876998029,5899.460823519307
1.268,1.1111687167040036,5900.506029981175
1.272,1.0518251369066818,5907.0576093195605
1.276,0.9936122462935119,5885.15982200169
1.28,0.9465842199708523,5898.329379673026
1.284,0.9194157277621329,5900.068556149974
1.288,0.9176923609393981,5901.590772212632
1.292,0.9426092826632845,5899.377003035525
1.296,0.9903805649248483,5892.549747336872
1.3,1.0527463433999558,5897.785168019422
1.304,1.118709372709226,5899.025877670343
1.308,1.1770884228641352,5904.533569972426
1.312,1.2190128180389674,5894.040529647084
1.316,1.2394602313380654,5905.592373513614
1.32,1.237437871737194,5900.729168297196
1.324,1.2151226407611984,5906.073004768063
1.328,1.1767165080643578,5914.976529914946
1.332,1.1276667950951575,5896.604649691505
1.336,1.0744017133782586,5901.039914491808
1.34,1.0242460685308972,5904.445034381511
1.344,0.9850449120296568,5893.928323482352
1.348,0.9642535969589876,5908.339380186824
1.352,0.9675820167487954,5903.63687015209
1.356,0.9974807040332678,5892.389897096889
1.36,1.051868321057158,5896.113529778599
1.364,1.123622950627201,5901.624539305205
1.368,1.2013510624495511,5891.058617601253
1.372,1.271577850175216,5900.767874741827
1.376,1.3218648594409845,5906.639299575946
1.38,1.3438634556353726,5903.962389267077
1.384,1.3352623161275803,5907.66976931694
1.388,1.2999949373214021,5901.544246822976
1.392,1.2467485798494946,5903.177728561541
1.396,1.186444587700526,5903.712332137625
1.4,1.129628362626457,5903.040217285509
1.404,1.0845195399538103,5906.606015065834
1.408,1.056020319441281,5896.597065941108
1.412,1.0455739395820478,5906.308938583819
1.416,1.051599893559362,5898.809209741535
1.42,1.070263724192537,5900.413536473173
1.424,1.0963884223761866,5908.65456881592
1.428,1.1243161909184922,5902.275467440938
1.432,1.1485829096195674,5901.038766120178
1.436,1.1644028887278928,5901.812100876512
1.44,1.1680661795599745,5896.903515441279
1.444,1.1573522659602766,5905.953668850591
1.448,1.1319619989537066,5897.697407028647
1.452,1.0937951487812425,5905.111690226138
1.456,1.0468075062720157,5901.502115318103
1.46,0.9963373886032364,5901.627304136095
1.464,0.948091469982138,5896.934690606225
1.468,0.9071366000853641,5901.761487418946
1.472,0.8771654872762631,5901.167751138516
1.476,0.8601352730710775,5909.948026789561
1.48,0.8562407508467073,5909.699933984465
1.484,0.8640977244249589,5902.458420865823
1.488,0.8810090409371258,5904.154236311106
1.492,0.9032967336556299,5911.066075084889
1.496,0.9268100428237427,5899.712962833645
1.5,0.9476868251876466,5905.936889321822
1.504,0.9632451816854367,5905.949297306322
1.508,0.9727180346697025,5905.422829535571
1.512,0.977558145612697,5898.934504225833
1.516,0.9811520766452222,5904.370496179092
1.52,0.9878984324218514,5886.156249676067
1.524,1.001785278429473,5903.7642520559175
1.528,1.0248621823093402,5900.722017759798
1.532,1.0561793117346951,5909.073403659556
1.536,1.0916751839926242,5901.9058675105325
1.54,1.1251442996816323,5908.613260390008
1.544,1.1499873834219085,5900.57329941126
1.548,1.1611322379295697,5899.413830627402
1.552,1.156445181625627,5893.652110681145
1.556,1.1371956383452633,5908.415676456519
1.56,1.1075723459598654,5900.704425127443
1.564,1.0735643244709592,5894.609598796188
1.568,1.041535385333257,5900.334381245577
1.572,1.0167397112847265,5898.123258870284
1.576,1.0020879873848665,5903.61005676763
1.58,0.9975610829497659,5895.604679225443
1.584,1.0005142477930582,5895.688392452499
1.588,1.0067301003373297,5910.201807059823
1.592,1.0117530762306133,5906.464305598726
1.596,1.0119921983211062,5902.491820551246
1.6,1.005285578022128,5900.663829686324
1.604,0.9909409816507135,5902.504143887618
1.608,0.9695456859874717,5906.386204177478
1.612,0.942874421793538,5892.666905012892
1.616,0.9139505485852545,5896.190180368367
1.62,0.8869893420273424,5905.1074805305325
1.624,0.8668924694240321,5909.251423367154
1.628,0.858196798797732,5899.954898619708
1.632,0.8637143475072814,5901.8204766886265
1.636,0.883330203227348,5904.819615023623
1.64,0.9134211734364072,5904.229960856538
1.644,0.9471603479371059,5910.263232754276
1.648,0.9757589835932245,5907.172159915733
1.652,0.9905241148268396,5905.564075902072
1.656,0.985358547711904,5898.085738624489
1.66,0.9589774606459985,5895.634191027494
1.664,0.9159114023077177,5904.105939960058
1.668,0.8656188220859085,5899.9744378591
1.672,0.8197550233431984,5911.640755706429
1.676,0.7884751302445936,5906.468364294791
1.68,0.7771181202880773,5915.96757965584
1.684,0.7844863554332349,5911.165466120755
1.688,0.8033233483300616,5910.723170296729
1.692,0.8228279348847815,5903.696653310229
1.696,0.8323749406861417,5903.744490376666
1.7,0.8251772974845587,5897.896262904928
1.704,0.8005976203049332,5899.809966631206
1.708,0.7643209362944512,5900.775203592051
1.712,0.7264327509856794,5904.20029086258
1.716,0.6981650921477325,5897.2796994875125
1.72,0.6884020445311441,5905.623951347898
1.724,0.701001877569316,5910.641675685836
1.728,0.733695717047581,5908.162190849345
1.732,0.7788224387189067,5902.720747018238
1.736,0.8255847662898579,5902.822231773731
1.74,0.863071443599482,5910.054147497078
1.744,0.8831291131284995,5889.02834559897
1.748,0.8822929131760978,5901.152530788314
1.752,0.8623026528439786,5900.86906161042
1.756,0.8291258173971754,5902.335108358858
1.76,0.7908304521519961,5910.3274971802
1.764,0.755042409878904,5897.93377255577
1.768,0.7268810924945619,5902.732789674877
1.772,0.7080233115878413,5909.924373759108
1.776,0.6970167256627195,5901.288558034123
1.78,0.6904690547481966,5901.3928038655085
1.784,0.6845184962897509,5899.862617076856
1.788,0.676084565770912,5906.55122561413
1.792,0.66365514290593,5909.050404226601
1.796,0.6475648940201006,5908.857060048922
1.8,0.6297683306063552,5902.910649279053
1.804,0.6131281441240372,5899.848187782395
1.808,0.6003919451386971,5909.510075755287
1.812,0.5932482868516193,5900.616195923714
1.816,0.591864721349801,5903.410706661741
1.82,0.5950114388670016,5902.235223920884
1.824,0.6005042414633928,5900.143856788459
1.828,0.6056037475384979,5898.188693486856
1.832,0.6072643463756612,5896.808952987214
1.836,0.6024577015253746,5915.819321362457
1.84,0.5888477854374434,5905.164413668181
1.844,0.5657842252578293,5902.339760842468
1.848,0.5351542530572636,5906.206838058545
1.852,0.5014694073801642,5905.746184450257
1.856,0.47087560183488625,5908.224811841672
