时间(s),电压(V),幅值(高频80K)
0.0,1.4083154805887739,5896.598249413908
0.004,1.3540401400415667,5902.4243497066045
0.008,1.3003664813301408,5901.649601059222
0.012,1.249172722834794,5894.669162132295
0.016,1.2021744091615842,5896.446946355606
0.02,1.160538957687316,5897.581760065128
0.024,1.1247041675248461,5889.581547971766
0.028,1.0944878740145456,5889.9141108266695
0.032,1.0692267853394717,5894.923235164399
0.036,1.0476905322651087,5894.345351408547
0.04,1.0279057337976978,5909.188235967821
0.044,1.007309690788081,5898.147377718467
0.048,0.9834425540326946,5899.464212487342
0.052,0.9548998414506746,5905.936258331542
0.056,0.9220635099681216,5903.841066689381
0.06,0.8873732722331874,5894.771873874775
0.064,0.855177800881724,5895.08362975841
0.068,0.8311475155608345,5897.093909639756
0.072,0.8210609119418835,5892.435906999631
0.076,0.8289970139163546,5895.343956291584
0.08,0.8555504644253625,5908.745624594483
0.084,0.896982406787027,5900.621468751259
0.088,0.9458106846751322,5896.684326928074
0.092,0.9925970595049528,5896.370174191103
0.096,1.0282560963151766,5891.523436751686
0.1,1.0462602015717883,5896.887334533983
0.104,1.0443049197845693,5906.518809343807
0.108,1.0250262723611914,5903.120007893861
0.112,0.9953654108970118,5913.326472990264
0.116,0.9645171010418004,5894.646457679918
0.12,0.9410873322638112,5901.905304699209
0.124,0.9306011610205536,5912.012369609386
0.128,0.9343278976531756,5905.085748323348
0.132,0.949628576817159,5901.086165523288
0.136,0.9713249636096704,5902.680493730987
0.14,0.9934102126332698,5906.402675139818
0.144,1.0106146029301066,5914.107565394267
0.148,1.0195436209198725,5906.602174709207
0.152,1.0192794299826546,5896.368818748082
0.156,1.0115651786790738,5896.916173015379
0.16,1.00080524047181,5899.377069592831
0.164,0.9938768898009273,5903.349261385695
0.168,0.9993172126692508,5896.223048223194
0.172,1.0253921300547737,5906.397557221009
0.176,1.0772166561944678,5901.64424663756
0.18,1.1540206521568428,5901.812600390664
0.184,1.2479782625992661,5900.548375892991
0.188,1.3454166837011623,5903.36226325339
0.192,1.4301477662283761,5895.881040397059
0.196,1.4877933774840046,5892.356202277875
0.2,1.509673825583422,5894.390397866707
0.204,1.4950690781598743,5892.521018338758
0.208,1.4511962716237672,5897.145302994824
0.212,1.390898053284847,5898.46839181285
0.216,1.328734386651483,5900.204985785009
0.22,1.2767173906482008,5895.200768524966
0.224,1.2410295885117122,5893.206765068663
0.228,1.2206542652365344,5883.898142327111
0.232,1.2081832563601018,5913.3471828810925
0.236,1.1924815928988195,5901.955976055295
0.24,1.162482721470807,5892.410632195451
0.244,1.1110659958289664,5906.592293060134
0.248,1.0377683186628763,5904.560917271128
0.252,0.9492776765201105,5899.702900655911
0.256,0.8573988299063204,5897.324899505722
0.26,0.775214907778181,5895.605532499898
0.264,0.712978937673177,5894.705867518743
0.268,0.6753999838918631,5910.347484476808
0.272,0.6612869700708944,5898.702576041828
0.276,0.6653267869904059,5903.474259713652
0.28,0.6808484147242245,5898.100864384
0.284,0.7022887329505992,5897.71931512676
0.288,0.7265668625227394,5910.685614606458
0.292,0.7531897935220322,5891.535783778063
0.296,0.783364885996068,5903.335308824272
0.3,0.8186347114389838,5895.857206699772
0.304,0.8595959337516097,5892.645654534601
0.308,0.9051763709126763,5906.030755009469
0.312,0.952726628372402,5899.867690672108
0.316,0.9987887879931545,5893.678715263741
0.32,1.0399955343233918,5905.194370979441
0.324,1.07348941237965,5902.000816892038
0.328,1.0966966004909373,5903.776458520281
0.332,1.1069425455134423,5892.818835261866
0.336,1.10167679156728,5897.459413785426
0.34,1.079665779241164,5900.941223853663
0.344,1.0427043224000008,5900.411105210257
0.348,0.9967690155210045,5903.361544382752
0.352,0.9515245719224131,5897.476973575256
0.356,0.9178378036493643,5904.580667340947
0.36,0.9041343508147184,5900.491511073132
0.364,0.9132689703469686,5900.125190964582
0.368,0.9414167820258316,5903.0010695672845
0.372,0.9794522274242877,5894.041926220442
0.376,1.01612383520415,5906.144378034736
0.38,1.041707842666085,5902.654353863843
0.384,1.050858353138937,5898.454863004767
0.388,1.0438466231553023,5897.287290974668
0.392,1.0259892906649155,5905.753569541925
0.396,1.0055521959591307,5904.641723094492
0.4,0.9907421908675585,5898.4399316110685
0.404,0.9866835038957124,5905.248814898829
0.408,0.9934717060951918,5908.273606855594
0.412,1.0062050553060844,5912.502979352261
0.416,1.017134360053043,5903.464893005963
0.42,1.019033487772955,5910.403811442051
0.424,1.0081917006476022,5899.894748463838
0.428,0.9855951677348388,5903.871131961483
0.432,0.9558853483404013,5897.504302828727
0.436,0.9248940729303997,5894.132527587676
0.44,0.8971856929709644,5898.114503001061
0.444,0.8748323562966528,5900.004288316278
0.448,0.857864213915836,5902.831433684665
0.452,0.8458956267709604,5900.276767278596
0.456,0.8398009408845192,5908.156833000609
0.46,0.8423641436144936,5894.808094643928
0.464,0.8574971304251102,5894.9650904719865
0.468,0.8884244631136895,5895.586580986621
0.472,0.935693755141905,5898.752865635791
0.476,0.9958731114984053,5898.201767222395
0.48,1.0614837431307687,5903.096481072716
0.484,1.1222691167974994,5895.234313708424
0.488,1.1674861065737825,5897.056170653431
0.492,1.1886167611976146,5903.801975048648
0.496,1.1817573217252981,5903.261983389211
0.5,1.1489895281583244,5900.418248252169
0.504,1.0983091782919914,5901.820664073836
0.508,1.0420581371078508,5894.773827346128
0.512,0.9941463114731305,5914.645138539123
0.516,0.9666595249026737,5904.545754848228
0.52,0.9667006227790361,5905.5167100299095
0.524,0.9943530838507126,5889.486655667937
0.528,1.0423989574117447,5898.940252102546
0.532,1.097975314015621,5891.723729107041
0.536,1.1458686007966932,5899.317192148229
0.54,1.1726439422122668,5899.867429952142
0.544,1.170347840572045,5890.074162440553
0.548,1.1384331139802466,5898.127274476391
0.552,1.0831490696593344,5887.915026078793
0.556,1.0147539754959807,5881.631115823848
0.56,0.9438962619739885,5896.533684715578
0.5640000000000001,0.8787448079744767,5893.942035785918
0.5680000000000001,0.8238329113489247,5905.850815649887
0.5720000000000001,0.7806077118744892,5906.101832811221
0.5760000000000001,0.7489579753988261,5905.804110833585
0.58,0.728805514564698,5904.495356877631
0.584,0.7210660370335437,5897.798168439254
0.588,0.7276291349638556,5893.114297244239
0.592,0.7503683888202052,5905.647732073634
0.596,0.7896459591644227,5897.495497813275
0.6,0.8431547157677591,5889.609089897257
0.604,0.9058270414143583,5898.551481463579
0.608,0.9708865351689203,5897.392998237469
0.612,1.031449170791053,5891.446653568001
0.616,1.081905071471181,5903.531942501105
0.62,1.1186578227712538,5906.329893255553
0.624,1.140305849349878,5909.829823776473
0.628,1.147611972804909,5897.867955613636
0.632,1.1434754619164178,5909.110825525584
0.636,1.1327944762947701,5899.262322299278
0.64,1.1218701733771146,5893.924078762154
0.644,1.1170303849373047,5902.634480741337
0.648,1.1225705913865767,5891.26025938537
0.652,1.1388238294663222,5900.837473246447
0.656,1.1615765754647525,5898.566821070682
0.66,1.1835303603154776,5898.865662195267
0.664,1.1972920554515385,5892.645955334803
0.668,1.1984268530926239,5902.189791925496
0.672,1.187133517645959,5907.541434620233
0.676,1.1679155375672097,5902.0591146672
0.68,1.1475488383032775,5910.026495124826
0.684,1.1322536085815949,5901.969045259955
0.6880000000000001,1.1251832083053743,5901.895452486099
0.6920000000000001,1.1251450905315008,5900.643517983777
0.6960000000000001,1.1269978618370025,5897.337724458487
0.7000000000000001,1.1236857404149645,5898.378847482771
0.704,1.1093850262628777,5896.8554186487
0.708,1.0826109885316235,5895.270098788807
0.712,1.047734919746013,5900.2368760548925
0.716,1.013864276512507,5896.685656857906
0.72,0.991388271551473,5898.364082908684
0.724,0.9877458406421827,5896.0248545208815
0.728,1.004305628384556,5903.551108837544
0.732,1.0356065340446539,5896.246603222815
0.736,1.0710955619113933,5897.515946589824
0.74,1.0985286237973155,5894.770166788591
0.744,1.1077382104936018,5902.081686269668
0.748,1.093506198126412,5899.196668845915
0.752,1.056655242980028,5900.247976299832
0.756,1.0031237126319514,5897.400867077637
0.76,0.9415769463460216,5890.927898372925
0.764,0.8806723301952553,5894.897103075421
0.768,0.8271003004802664,5906.007311345718
0.772,0.7849519251717284,5907.224361112683
0.776,0.7561768972585248,5896.806457750668
0.78,0.7414206575467455,5884.099636316039
0.784,0.740634769680193,5893.58121168094
0.788,0.7532985574230645,5895.120090724795
0.792,0.7784248944952914,5895.875085152892
0.796,0.8145685845760693,5899.835300581629
0.8,0.8599303730601024,5902.977252625363
0.804,0.9125149630282292,5901.464587041999
0.808,0.9702244504372067,5901.321312277122
0.812,1.0307508842468793,5901.715469477112
0.8160000000000001,1.0912227303605622,5901.811373281467
0.8200000000000001,1.1478105034226542,5892.661686724386
0.8240000000000001,1.1957258424481565,5904.186371886663
0.8280000000000001,1.2299522648283527,5908.2505375959845
0.8320000000000001,1.2466204399623875,5895.669492509885
0.836,1.2444937266801874,5892.931498699119
0.84,1.2258448998265785,5902.122368224855
0.844,1.1962099595224311,5891.206634317588
0.848,1.1630228260222444,5899.079980096957
0.852,1.1336317628111705,5899.969653480957
0.856,1.1133351306514438,5900.059368432048
0.86,1.1038700354157467,5898.995160713202
0.864,1.1025929504360925,5890.294418858377
0.868,1.1026417583793593,5898.85007523566
0.872,1.0944318930510983,5900.999980815623
0.876,1.0685068695927697,5905.086264247165
0.88,1.0190757524419813,5902.51280923764
0.884,0.9470293977309573,5898.027461000945
0.888,0.8612001393782704,5896.0501840701445
0.892,0.7770839380601686,5904.043531499375
0.896,0.7130260918084843,5900.856774462372
0.9,0.6848231408958044,5894.238055825157
0.904,0.7004635703228961,5897.422872678978
0.908,0.7568804903628977,5905.170090132909
0.912,0.8399984459926834,5894.848424425758
0.916,0.9282676262991105,5896.688590902818
0.92,0.9986617062009664,5894.708244335775
0.924,1.033221502914541,5897.059727571798
0.928,1.0240761534820535,5900.284456549092
0.932,0.9754855980362972,5903.348515358103
0.936,0.9024127310253912,5899.618829220325
0.94,0.8260766614858847,5898.1753867342895
0.944,0.7677727168225275,5896.461835118067
0.948,0.7428713589150705,5897.3291074050185
0.952,0.7569622380597623,5895.808538164021
0.956,0.805314983843918,5906.340799670024
0.96,0.8754768981006922,5902.863384624679
0.964,0.9516388297505881,5899.033019604127
0.968,1.0189905916270972,5901.545079894444
0.972,1.0667759653642674,5895.555794135826
0.976,1.0896689942100999,5900.731415567237
0.98,1.0877521318881633,5898.017662384397
0.984,1.0655406371018488,5893.374182050906
0.988,1.0304256263147669,5899.795589669283
0.992,0.9908609526439266,5907.988657307496
0.996,0.9545979187766338,5905.463003706369
1.0,0.9272243464743365,5898.8847380209245
1.004,0.9112282680991887,5895.777226843315
1.008,0.905776665938487,5900.299577660767
1.012,0.9072999031604112,5905.400478456108
1.016,0.9107912387128588,5887.159822222223
1.02,0.9115221087434897,5886.777616615317
1.024,0.9067098787992149,5896.210629780967
1.028,0.8966478905681139,5901.266671878763
1.032,0.8849363659330504,5891.831526510328
1.036,0.877660880892089,5895.124510135618
1.04,0.8816229548555884,5895.993055581341
1.044,0.9020421718433,5900.040279774693
1.048,0.9404257322791493,5898.827351815369
1.052,0.9933752779401493,5897.312504216655
1.056,1.052891951268588,5901.295143095061
1.06,1.1082876042084455,5897.394135665266
1.064,1.1491963730732895,5891.474531311564
1.068,1.1685911002624432,5908.898897066303
1.072,1.1645602690458103,5895.069446792911
1.076,1.1402287711710248,5900.288691759311
1.08,1.1022641676419178,5901.761681018281
1.084,1.0590301830641233,5896.882001689514
1.088,1.0191780101090202,5902.649006171995
1.092,0.9907025790605029,5900.864035875591
1.096,0.9799586306656873,5899.23837547414
1.1,0.990237574244369,5898.450252372991
1.104,1.0201547165160068,5898.896311807096
1.108,1.0627661394131784,5905.141212011501
1.112,1.106382476930693,5893.615904507141
1.116,1.1372933366875428,5897.322141338062
1.12,1.1436074746782432,5904.226796962281
1.124,1.1188744211589208,5898.849866799345
1.128,1.0643082735910938,5907.487647089655
1.132,0.9890012130484316,5895.118544009906
1.136,0.9081206024901128,5895.250949255783
1.14,0.839553134473485,5898.827459660009
1.144,0.7998083572072959,5910.64454270741
1.148,0.8002227107603889,5895.335826868874
1.152,0.844456771378018,5903.473752370084
1.156,0.9278173653801424,5900.746104240483
1.16,1.0382601857485696,5895.092074952986
1.164,1.1585069748862133,5899.66726889448
1.168,1.268779982506658,5901.299925659926
1.172,1.3499241237486808,5899.558633944086
1.176,1.3867234750645008,5897.016502072504
1.18,1.370960782561776,5900.345554001228
1.184,1.303486409933322,5897.3951426222
1.188,1.1945492223377452,5905.934587429305
1.192,1.0620341747474744,5903.837753848023
1.196,0.9279169477994069,5895.071582835234
1.2,0.8138197608895585,5899.733361866337
1.204,0.7367499268216645,5901.289493793
1.208,0.7059226130041915,5902.50608389533
1.212,0.7211981641536842,5898.385035056814
1.216,0.7733380232185104,5898.834535365784
1.22,0.8460864203226345,5898.509426332821
1.224,0.9198164282861969,5910.146754189673
1.228,0.9760203817529259,5908.516658950374
1.232,1.0015796161809503,5905.914326099585
1.236,0.991803393977408,5887.586618952197
1.24,0.9515312648967147,5903.461251864746
1.244,0.8939336273272503,5904.317932835835
1.248,0.837102942486938,5897.2329327377565
1.252,0.799200617639785,5902.012904054102
1.256,0.7935713819393863,5906.488861642339
1.26,0.8253782816095254,5902.840840964261
1.264,0.8907078058252639,5903.60836171825
1.268,0.9780876783162473,5905.318454512095
1.272,1.0715960344602922,5895.729215766404
1.276,1.1545551537365792,5899.715229316849
1.28,1.2129976413073633,5893.296890443301
1.284,1.2383162588723136,5909.44558222767
1.288,1.2286667830625697,5907.418966272968
1.292,1.1888916640501555,5900.814445326101
1.296,1.1290252498151807,5894.079818033803
1.3,1.0617726918094659,5898.596448683968
1.304,0.9996026449479959,5905.242422517071
1.308,0.952158527473143,5894.759467948098
1.312,0.9245761215569249,5896.6093446708255
1.316,0.9170551031677009,5903.183067218565
1.32,0.92572337935863,5901.5133175369865
1.324,0.9444978760184898,5899.934005241704
1.328,0.9673296718682757,5910.187414527907
1.332,0.9900431913426958,5888.446363792958
1.336,1.0110949273227392,5910.734799056088
1.34,1.0310119548598915,5902.290311941539
1.344,1.0508599848892204,5902.350277692292
1.348,1.0705613738900461,5907.334783073497
1.352,1.0879659597691098,5906.030783259568
1.356,1.0991899890468206,5899.525350785215
1.36,1.1000945647198659,5896.279773930243
1.364,1.0881967835095823,5892.923928641531
1.368,1.0640130008159716,5900.92756468011
1.372,1.0310081397208706,5886.848179115582
1.376,0.9940643402176875,5897.751323517247
1.38,0.9573470177785529,5896.296585080888
1.384,0.922916588737528,5903.016021472457
1.388,0.8909710982321283,5895.865328383747
1.392,0.8615067641546437,5899.909245851331
1.396,0.8362382354242439,5893.634646523951
1.4,0.8194649174316057,5901.767405051884
1.404,0.8172231382813842,5899.480437695617
1.408,0.8350282793488535,5903.137240396316
1.412,0.8752408950046469,5900.4045301550295
1.416,0.9352772134099917,5893.755709048704
1.42,1.0074738770608271,5895.399126578559
1.424,1.0806493204201375,5904.478482402132
1.428,1.1427402916774407,5908.734804861904
1.432,1.1836506263582782,5897.807905967417
1.436,1.1975640188085828,5898.172422620259
1.44,1.1841984926166143,5907.434803959795
1.444,1.1487182423207658,5899.495646091944
1.448,1.1003191444436564,5891.445241625763
1.452,1.0498439979253023,5893.974162516994
1.456,1.0070353825260014,5904.736640071322
1.46,0.978151605238793,5896.098310255294
1.464,0.9646743998220878,5905.694734568178
1.468,0.9636183791905025,5896.941589612556
1.472,0.9693867640317678,5902.399515045197
1.476,0.9764101990481056,5900.845264234745
1.48,0.9814181235576135,5899.871296942151
1.484,0.9843707562091701,5901.6050900664695
1.488,0.9877264314685832,5902.640839201382
1.492,0.9945790620364673,5895.274060847264
1.496,1.0068057017807732,5899.796746114838
1.5,1.0242066466708803,5903.170536488145
1.504,1.044813453949296,5896.029130600915
1.508,1.0658203131191342,5906.167688630027
1.512,1.0844686024748322,5894.266088513923
1.516,1.0985513584981306,5910.787865131531
1.52,1.1065812852297523,5893.248752450949
1.524,1.10780943262323,5898.2296252878
1.528,1.1022451410233374,5904.2023308173975
1.532,1.0907701450956866,5902.3258476239935
1.536,1.0753268314369377,5906.863624032806
1.54,1.0589518640690292,5899.086553930164
1.544,1.0453660562755562,5907.864915714817
1.548,1.038128356113833,5896.219411751913
1.552,1.0397451929190984,5895.824767987051
1.556,1.0511554654747288,5898.150698839288
1.56,1.0716900010199153,5897.933977842417
1.564,1.099313100950024,5909.936056682567
1.568,1.1309147433807731,5889.903783018184
1.572,1.1625580775829307,5896.949304713884
1.576,1.1897686210049798,5895.227949048775
1.58,1.2080623890278985,5900.712126007773
1.584,1.213804427192664,5902.718748143702
1.588,1.2051846753304463,5906.288877748184
1.592,1.1828694049879258,5897.006356335427
1.596,1.1499595326531156,5906.70135692419
1.6,1.1111846243065227,5884.999882041059
1.604,1.0715534094718469,5897.915243444551
1.608,1.034863157793874,5895.524407575652
1.612,1.0025620059281724,5904.57005314772
1.616,0.9733935287217979,5891.733410530353
1.62,0.9439497522268072,5901.367743429711
1.624,0.909895001106438,5898.397074146403
1.628,0.8674624923063753,5907.982895960523
1.632,0.8148550515554731,5895.239345102167
1.636,0.7532269432700747,5897.1705150402095
1.64,0.6869351590725249,5895.442131952456
1.644,0.6228085091593509,5906.824608687438
1.648,0.5684172546480957,5895.638346940003
1.652,0.5297813210440597,5900.646167721327
1.656,0.5094255861155271,5905.181752941076
1.66,0.5057828542411417,5902.822693964597
1.664,0.5144513940538186,5897.131463699247
1.668,0.5309118553786434,5904.208883363903
1.672,0.5534036928926448,5897.421072426873
1.676,0.5842822105771339,5894.65782788086
1.68,0.6288001887046442,5898.592057003053
1.684,0.691737242402267,5903.221618032841
1.688,0.7736769465946403,5901.952217280129
1.692,0.8690313181953133,5891.7843887366525
1.696,0.9669687323872533,5898.265280128381
1.7,1.0548326486421986,5904.24713982676
1.704,1.1223552676363926,5899.0086248361295
1.708,1.1646671905833552,5900.944093278586
1.712,1.1828430296789871,5896.052587910394
1.716,1.181972824180685,5902.969145284722
1.72,1.1678867622037965,5896.293667089904
1.724,1.1442476431837336,5908.5790389062295
1.728,1.1114659953175174,5906.577911191593
1.732,1.0678397862946085,5898.695353166827
1.736,1.0120826283104627,5894.931606231531
1.74,0.9457332598090272,5887.059950336627
1.744,0.8741472940481352,5900.8092891685255
1.748,0.8056372519912979,5891.865859237274
1.752,0.7493183943313623,5906.651872758528
1.756,0.7127917401804748,5903.783254647394
1.76,0.7006852609214623,5908.586568373788
1.764,0.7144040456765531,5900.587288205735
1.768,0.7526585934507738,5895.603808643123
1.772,0.8120021113615731,5906.916100198343
1.776,0.886953218445586,5900.715659297849
1.78,0.969964346468546,5898.179120294554
1.784,1.0518664144295868,5902.231320474285
1.788,1.1231218716776723,5894.491328287126
1.792,1.1755494122263292,5889.345783178041
1.796,1.203795584688948,5893.057100637307
1.8,1.206019188244536,5899.506789104759
1.804,1.1837351759809536,5903.143866735513
1.808,1.141128714394307,5895.839791029879
1.812,1.0842535650665235,5896.800542199742
1.816,1.0203987019039884,5892.836585360872
1.82,0.9576269762725146,5904.366394454184
1.824,0.9042381984136644,5901.294098115065
1.828,0.8678708011209094,5900.397222457264
1.832,0.8541794775882836,5905.041467788119
1.836,0.8654068358101721,5904.888628259001
1.84,0.8994581539729136,5896.83982874331
1.844,0.9500129715540104,5900.005182687167
1.848,1.0077644056878965,5892.150002435559
1.852,1.0624035762582582,5889.695667116836
1.856,1.1047447916803348,5899.081156503837
