时间(s),电压(V),幅值(高频80K)
0.0,0.921629486538671,5899.000395288455
0.004,0.9107035709031432,5898.52237513283
0.008,0.8996417352083947,5898.914840789068
0.012,0.8893073967727426,5907.013813361764
0.016,0.8814635470902529,5900.022525505761
0.02,0.8781828704822155,5903.296358798943
0.024,0.8810069832618291,5910.113050372252
0.028,0.890319574450339,5898.853864224357
0.032,0.905041446369632,5903.53678019449
0.036,0.9225266831796671,5897.8456314555815
0.04,0.93873037262168,5901.6617546087255
0.044,0.9489270944933176,5902.405602700773
0.048,0.9490194387197498,5898.225482458657
0.052,0.9369654070836806,5893.857109890735
0.056,0.9136424905000262,5899.621898184107
0.06,0.8827702673640598,5897.294483647409
0.064,0.8499986268679932,5902.184871660759
0.068,0.8215348444132989,5901.034840038712
0.072,0.8026826477965958,5905.652555363803
0.076,0.7966039223036799,5905.752663852796
0.08,0.803613865092445,5898.94725219152
0.084,0.821285298986281,5893.525787507358
0.088,0.845394802100819,5902.508332165751
0.092,0.8713401961241585,5892.682008336062
0.096,0.8954230602267013,5897.093840361655
0.1,0.9155556509314166,5905.034384339395
0.104,0.9313371974545364,5906.182539205292
0.108,0.9436930133620365,5891.240652372123
0.112,0.9542926217251395,5908.318389852055
0.116,0.9649224519762011,5900.119180264823
0.12,0.9769709419182434,5897.373841444703
0.124,0.9911279947457423,5901.882926799614
0.128,1.0072792513158875,5904.7262568902
0.132,1.0244921205153308,5900.046003534919
0.136,1.0410681045973944,5896.946207020953
0.14,1.0548027356595309,5898.697710769658
0.144,1.063586404487544,5908.128264432847
0.148,1.0662004309349837,5891.55568101112
0.152,1.062899814875802,5906.3375681284415
0.156,1.0554427073810992,5900.461294138624
0.16,1.0465521034003686,5890.549774867283
0.164,1.0390594560871382,5895.132197171691
0.168,1.0350258644645067,5906.43134421942
0.172,1.0350478260100235,5909.256656416273
0.176,1.0378748399346927,5898.900273484897
0.18,1.0404534721846974,5904.711677322719
0.184,1.0384972524360272,5904.042818351997
0.188,1.0275578766974756,5906.394213798728
0.192,1.0043610218208554,5892.58417778757
0.196,0.9680265195905106,5901.799809615577
0.2,0.9208174242105949,5897.716012732474
0.204,0.8681826584057635,5885.52876578049
0.208,0.8179885263552412,5896.407065393689
0.212,0.7790166975874957,5910.220397658446
0.216,0.7590460059540703,5900.751665328134
0.22,0.7629954420222952,5909.692995114682
0.224,0.7915959546153137,5900.627206536795
0.228,0.8409263029521127,5901.347181028936
0.232,0.9029568431185455,5908.953230292748
0.236,0.9670507704670526,5892.5503070682535
0.24,1.0221993388862967,5901.099927590382
0.244,1.0595279138999822,5903.707719442723
0.248,1.0743108329151463,5901.509539326652
0.252,1.066705693369623,5894.599303791265
0.256,1.0409343910104925,5900.848892851923
0.26,1.0034019172595752,5904.968526343024
0.264,0.960664957184147,5889.983762968877
0.268,0.9180328192812708,5900.153514445531
0.272,0.8791474111622852,5894.201844299403
0.276,0.846420590406015,5893.616496624844
0.28,0.821844191183742,5902.628758497517
0.284,0.8075599586743909,5900.825595412668
0.288,0.805781576844029,5903.42365274179
0.292,0.8180920876361755,5899.972966583007
0.296,0.8445192736680506,5906.4939415091485
0.3,0.8829112664313763,5901.503019603962
0.304,0.928969161478747,5897.4097096517
0.308,0.9769484549362702,5906.899841645459
0.312,1.0207287212300769,5905.616621293828
0.316,1.054880180799461,5896.376740535539
0.32,1.0754961082652965,5902.317449613952
0.324,1.0806809184773554,5894.113140877737
0.328,1.0706059076858667,5904.949890478096
0.332,1.0471171976546885,5903.222826952039
0.336,1.0130822643394113,5918.285340549163
0.34,0.9718307726733945,5904.695467142093
0.344,0.9269545112442388,5899.591732369322
0.348,0.8823977818426234,5898.727923868391
0.352,0.8425044571634686,5904.777319233607
0.356,0.8117253223329801,5898.1773743143385
0.36,0.793933574976,5902.566136623507
0.364,0.7915364214557208,5895.845942380323
0.368,0.8046957386473013,5900.940547563269
0.372,0.8309439139561368,5912.561100937489
0.376,0.8653447351733201,5893.366486871665
0.38,0.901219832340705,5901.230275770336
0.384,0.9313830862799563,5898.875091630143
0.388,0.9497260909341335,5896.469487644636
0.392,0.9528334150852917,5899.779617797644
0.396,0.9411512938710235,5909.444061982933
0.4,0.9192164574112571,5890.890479613188
0.404,0.8946655991588786,5901.620543060863
0.408,0.8761697661687791,5896.622851630438
0.412,0.8708857790567051,5902.5239641025655
0.416,0.882235595503992,5898.783651588695
0.42,0.9087205882800281,5901.362219184108
0.424,0.9441721931889905,5909.716994770801
0.428,0.9794545209798484,5896.6291659261
0.432,1.0051795284627179,5904.235331117288
0.436,1.0145757113286118,5899.358972489498
0.44,1.005540614571719,5907.986431570283
0.444,0.9812257502462061,5895.391155327704
0.448,0.9490306212288842,5897.714235447076
0.452,0.9183510529014041,5895.622768072221
0.456,0.8977602632635155,5898.00196954211
0.46,0.8924838791676556,5899.2707985736815
0.464,0.9029747903515494,5896.7479932252345
0.468,0.9250492046153733,5892.017692796593
0.472,0.9515126033620483,5899.432581588729
0.476,0.9746777264737119,5899.036348993288
0.48,0.9888378123424977,5897.740128457378
0.484,0.9917601214379003,5901.763658625206
0.488,0.9846947278416648,5898.382296453732
0.492,0.9711128715877595,5907.1291163338565
0.496,0.9549786403504126,5901.673987943974
0.5,0.9394257137101075,5905.903567611544
0.504,0.9262863584242278,5895.873572860333
0.508,0.9163913975929829,5900.480809678681
0.512,0.9102401133228576,5895.440075529496
0.516,0.9085628468213068,5887.343592792431
0.52,0.9124080766269148,5904.637614926392
0.524,0.922668733816611,5898.740746070967
0.528,0.9393279174755558,5893.856614254175
0.532,0.9609066829389847,5902.358937282572
0.536,0.9844740154347529,5891.929692912732
0.54,1.0062540883567896,5899.827107545981
0.544,1.0225838969897534,5900.938810198038
0.548,1.030857698808148,5900.980264353591
0.552,1.0301269155178576,5896.73372995999
0.556,1.0211732767295572,5902.828617084771
0.56,1.0061093831738017,5899.691858093719
0.5640000000000001,0.9877490699371839,5899.76073392248
0.5680000000000001,0.9689731913097854,5897.951270322698
0.5720000000000001,0.9521806942364075,5907.367435850407
0.5760000000000001,0.9388925035459649,5896.843518468984
0.58,0.9296496580903002,5901.892752192149
0.584,0.9242731046872278,5896.5472389595625
0.588,0.9223021839061036,5909.113149184594
0.592,0.9232909869751926,5890.736714758683
0.596,0.9268054920374306,5896.611015810991
0.6,0.932250889737596,5896.280016216762
0.604,0.9387644369302288,5900.459117244318
0.608,0.9452626562957305,5896.510013576412
0.612,0.9505475252342701,5900.665716432756
0.616,0.9533962507703441,5897.613330451245
0.62,0.9527358463122365,5894.804313867733
0.624,0.9480407274329634,5897.089345188268
0.628,0.9398732425682448,5899.1688821573225
0.632,0.9302564452556392,5901.829232962589
0.636,0.9225631037003794,5899.567439721228
0.64,0.9207922861529093,5901.837401482412
0.644,0.9283687942740599,5901.20227858203
0.648,0.9468717608589526,5897.808462726096
0.652,0.9752312007946372,5899.014780103646
0.656,1.009761195816714,5894.168257847645
0.66,1.0450009239630067,5902.932638416194
0.664,1.0750056722919732,5901.014252468564
0.668,1.094660634454097,5902.33623161169
0.672,1.1007091367180422,5900.068112951438
0.676,1.0923326547049066,5893.9986179901
0.68,1.0712222863577847,5895.604448833279
0.684,1.041145936514031,5896.717528668039
0.6880000000000001,1.007074493543908,5902.042807278256
0.6920000000000001,0.9740380218643372,5891.3589075575965
0.6960000000000001,0.9460347965343305,5898.51928255679
0.7000000000000001,0.9253759639710265,5905.133383353985
0.704,0.9126777508180274,5896.226550161695
0.708,0.9073644229086092,5896.213777234518
0.712,0.9082632440394958,5901.80016354607
0.716,0.9138940882543276,5901.600475518973
0.72,0.9223951946028817,5899.277035339154
0.724,0.9314199009718593,5907.496676222348
0.728,0.9384343852621454,5900.424882087341
0.732,0.9415243866179003,5893.142594519009
0.736,0.9403414863641748,5904.954085678733
0.74,0.9365921815732168,5902.6521798088215
0.744,0.9336681640348137,5905.2440610152335
0.748,0.9354752582379937,5896.151089222443
0.752,0.9449444032335719,5893.384702328813
0.756,0.9628692325950761,5890.203211636444
0.76,0.9875460324608211,5899.361958634585
0.764,1.0153083581528264,5904.972082703504
0.768,1.0416592026339497,5904.984658654537
0.772,1.0624954277374092,5895.883365256039
0.776,1.074983134986641,5900.59950781406
0.78,1.0779112510548916,5889.607499234694
0.784,1.0716300397285339,5894.918812287064
0.788,1.0578129045282867,5903.702663556699
0.792,1.0392197612989436,5903.315768794883
0.796,1.019434640003779,5898.844697095655
0.8,1.0023686668859222,5907.648344695238
0.804,0.9913900517044099,5899.876137321858
0.808,0.9882758790562511,5902.714124715313
0.812,0.9924708288089992,5894.312244303306
0.8160000000000001,1.0010796489964726,5906.724556051559
0.8200000000000001,1.0096468975887056,5899.150857639458
0.8240000000000001,1.013399756877914,5905.371993624412
0.8280000000000001,1.008489115674572,5901.082306475831
0.8320000000000001,0.992851887998077,5902.580952091768
0.836,0.9665143637006598,5905.438070008642
0.84,0.9313763525568477,5904.647207506217
0.844,0.890674890753953,5898.446272341536
0.848,0.8483563018546254,5906.411464818602
0.852,0.8085142004757309,5900.318731099223
0.856,0.77493541690831,5897.475346537285
0.86,0.7506659630525614,5904.262420686206
0.864,0.7374774858888735,5896.885037711555
0.868,0.7352976503283212,5899.044552334639
0.872,0.7419153883782607,5910.630967885348
0.876,0.7532849912808685,5901.71307012233
0.88,0.7644873557812472,5895.3876495051445
0.884,0.7710891630356915,5893.062950575712
0.888,0.7704708623605707,5895.8110918789125
0.892,0.7627020274186489,5893.3672315759
0.896,0.7506603470466443,5900.867992049675
0.9,0.7392970537560136,5893.423711896498
0.904,0.7342550324533261,5897.351181032504
0.908,0.7403007148706311,5890.443524298645
0.912,0.7600331115169717,5893.323994096104
0.916,0.7931305867900187,5888.723800126623
0.92,0.8362224727571493,5897.977323998939
0.924,0.8834239838413486,5897.294552228261
0.928,0.9275403278913312,5900.919719722004
0.932,0.9617863983912398,5901.363550373091
0.936,0.9815882316667959,5904.403041086355
0.94,0.985844930621701,5900.780577168401
0.944,0.9771506295648237,5896.965933838813
0.948,0.9608767928253018,5900.375906188963
0.952,0.9434757302809614,5897.12916367567
0.956,0.9306604869346625,5901.684864972429
0.96,0.926098581805225,5902.671153226256
0.964,0.9309477445368768,5911.870127999557
0.968,0.9441669960252399,5899.59448131672
0.972,0.9632709987503162,5899.301467738727
0.976,0.9851296468017933,5900.638162709844
0.98,1.006521443400251,5891.42316056736
0.984,1.0243753180917692,5904.230440932681
0.988,1.0358669217618914,5905.702911038887
0.992,1.0386165630113526,5899.553058789149
0.996,1.0311235337786364,5901.077717671828
1.0,1.0133808420335582,5905.166742371729
1.004,0.9874537347446921,5899.791589566599
1.008,0.957693199665026,5899.616411968189
1.012,0.9302416265705946,5898.79718420355
1.016,0.9116834036486574,5905.508681586521
1.02,0.9070982850428331,5902.771072600585
1.024,0.918183134735442,5895.816554267983
1.028,0.94224824221193,5907.805000384266
1.032,0.972638102710509,5903.34157071261
1.036,1.0005623434830273,5903.08468017683
1.04,1.0177131768216514,5890.038965575431
1.044,1.0186950590422321,5894.69895225158
1.048,1.0023754382929835,5896.813996916927
1.052,0.9717440017393035,5904.550625573815
1.056,0.9325167886226841,5886.72548634299
1.06,0.8912163329149573,5897.0001734307925
1.064,0.8535385275539284,5900.01521325348
1.068,0.8234860740614556,5904.908532650828
1.072,0.8032960857176644,5897.683001014048
1.076,0.7939046293023279,5897.78872706408
1.08,0.7955931085296623,5898.767538975118
1.084,0.8084255168046086,5891.493173816688
1.088,0.8321405001174969,5895.684290306616
1.092,0.8654391801980474,5908.561603904715
1.096,0.9050500364128538,5894.473954976655
1.1,0.9452757618842803,5904.404754802754
1.104,0.9786546454446831,5903.905019657388
1.108,0.9978325078696602,5898.982588067131
1.112,0.9980095482498178,5895.728323057184
1.116,0.978878112856945,5886.4373406728055
1.12,0.9451040256228509,5907.945270077305
1.124,0.9050359511617486,5890.43739687803
1.128,0.868109509604249,5903.647353064478
1.132,0.8419732259792734,5897.611267202863
1.136,0.8304548739202924,5900.517261297409
1.14,0.8330706461303828,5897.659517994419
1.144,0.8460538826518272,5903.039759762891
1.148,0.8642200776738176,5896.085718530546
1.152,0.8827351449696444,5891.251610103408
1.156,0.8981070497063088,5899.776264255565
1.16,0.9082938247063707,5903.428210153145
1.164,0.9123632174922378,5893.696672198591
1.168,0.9102879126995802,5894.892393289986
1.172,0.9031068890208523,5908.791726901178
1.176,0.8931440633171704,5908.107641580461
1.18,0.8837494645251062,5900.640379576168
1.184,0.8783347154146923,5900.633902980987
1.188,0.8790502468825792,5893.895481831189
1.192,0.8858116008379241,5894.549887935002
1.196,0.8962767233417932,5885.17826489726
1.2,0.9069316490168554,5910.050491539204
1.204,0.9149052521504782,5899.310563903488
1.208,0.9197001588767817,5904.872680053645
1.212,0.9239011657909512,5892.847513188551
1.216,0.932279720384808,5895.504417591843
1.22,0.9494949877991109,5900.202172519889
1.224,0.9774102992385578,5899.537159975937
1.228,1.0133827901476409,5893.622417252455
1.232,1.0504839225101303,5898.395343073393
1.236,1.0796648620684601,5904.559458182581
1.24,1.092914232543429,5905.154949860221
1.244,1.0860201725099667,5902.1258417896015
1.248,1.0598831596315128,5902.310315695902
1.252,1.020123895987024,5900.629265439261
1.256,0.9753893004752336,5900.076225223374
1.26,0.9349929561516783,5904.421031835841
1.264,0.9065416238350897,5890.379631797493
1.268,0.8942021540051329,5899.511740720624
1.272,0.8981254176019509,5902.164608939453
1.276,0.9151286776232415,5899.781630755074
1.28,0.9402338690175046,5900.764726706965
1.284,0.9683900113995745,5902.419329667155
1.288,0.9957850953153994,5903.031410171716
1.292,1.0204395523682122,5898.357789431432
1.296,1.0420754139214914,5897.343168345103
1.3,1.0614555073122451,5897.011361644351
1.304,1.0794725229419133,5888.684257786682
1.308,1.0963073369824972,5899.021483655259
1.312,1.1110113473243102,5890.246429693007
1.316,1.1217868015566466,5900.226119618982
1.32,1.126898251705695,5904.59544533602
1.324,1.1256894488590534,5889.301415629172
1.328,1.119030135457447,5903.175730904217
1.332,1.1089197568201479,5904.125301058407
1.336,1.0976333053334624,5898.92925674334
1.34,1.0871127658175475,5906.929431295045
1.344,1.0789869378152195,5892.637786140493
1.348,1.0749441080306301,5907.690972287925
1.352,1.0767957114313633,5900.869762870128
1.356,1.085803181475595,5906.123224685923
1.36,1.1014821776152857,5898.861226412857
1.364,1.1206166069487424,5903.124035002085
1.368,1.1372465037152282,5897.55414572395
1.372,1.1439464626915985,5899.414570798266
1.376,1.1340493803367553,5904.490418040979
1.38,1.103958407040295,5899.213991379115
1.384,1.0546027164677123,5903.340029920552
1.388,0.9914557946219241,5902.944570559669
1.392,0.9231564158619617,5894.547320770556
1.396,0.8593419396356898,5904.843216673638
1.4,0.8085047653479086,5902.707131758409
1.404,0.7764316703228237,5903.33484210499
1.408,0.7653704877541524,5896.525474342477
1.412,0.7738780660717529,5894.375178041637
1.416,0.7973933332481133,5905.163523258171
1.42,0.8296191609387767,5899.220475159724
1.424,0.8644945235375192,5895.315713549819
1.428,0.8980466834104324,5898.684085820085
1.432,0.9292188111260504,5894.365914514598
1.436,0.9591924633043576,5904.078346042688
1.44,0.9895747027038737,5903.30930407696
1.444,1.02050362647451,5891.924203267367
1.448,1.0497316395194216,5898.131940228504
1.452,1.0731000484625681,5897.088473084603
1.456,1.086042424637972,5895.404124797525
1.46,1.0853456479377197,5899.756393730744
1.464,1.070449009351837,5899.10477111943
1.468,1.0438623309485244,5905.866732394509
1.472,1.0106252299355287,5904.532174204491
1.476,0.9770293189512896,5904.594791067415
1.48,0.9490422590712585,5907.388348914565
1.484,0.93093949346142,5905.745728762071
1.488,0.924530542285457,5898.560441164073
1.492,0.9291190269384324,5911.547333501314
1.496,0.9420755195677698,5902.953837294875
1.5,0.9597372907007021,5905.941301998369
1.504,0.9783330812948752,5898.666137147765
1.508,0.9947308070750279,5905.824239452959
1.512,1.0069157203560222,5894.42488354286
1.516,1.0141651226815807,5901.9431577829255
1.52,1.0169336452894566,5898.971508724554
1.524,1.016513479645906,5904.771685372535
1.528,1.014540064529049,5897.942061644376
1.532,1.012423190837959,5898.216719126011
1.536,1.0108737607579468,5897.248943856639
1.54,1.0097565589235171,5899.793325991251
1.544,1.0083713298385657,5902.276615972457
1.548,1.0060153615756962,5898.006335852097
1.552,1.0024948524539612,5897.252081983133
1.556,0.9982355723602533,5900.883114959211
1.56,0.9938524368463127,5898.663545286866
1.564,0.9894293797481546,5903.002532918454
1.568,0.9840612929131001,5907.138506062511
1.572,0.9761071233935864,5909.75571220693
1.576,0.9641212778029692,5894.027404723921
1.58,0.9479407096779976,5898.273989116039
1.584,0.9292716211020885,5901.619330789807
1.588,0.911423925061763,5897.5678068563175
1.592,0.89834969172605,5905.721283483738
1.596,0.8934692207522299,5895.572469971562
1.6,0.8987352541733125,5898.457264780046
1.604,0.9141756159379841,5891.938268961869
1.608,0.9379703830928885,5901.641081543482
1.612,0.9669537295499822,5905.555449117487
1.616,0.9973119397595002,5901.911694827286
1.62,1.0252915833726401,5901.862252163597
1.624,1.0478575775038068,5896.21210844701
1.628,1.0632588255123974,5899.534552589388
1.632,1.0713683103648552,5904.64436791225
1.636,1.0736079021345744,5903.32377705047
1.64,1.0723431371659915,5899.318392813222
1.644,1.0698580368693753,5896.142839032336
1.648,1.067295476434482,5902.620436887907
1.652,1.0640677426397327,5889.306859391631
1.656,1.058076992517439,5892.907985008274
1.66,1.0467010992049572,5904.649450544034
1.664,1.0280857188823214,5899.88864944441
1.668,1.0020801005825235,5895.025278728596
1.672,0.9703460448546222,5895.101598640238
1.676,0.9356806320737835,5895.926286855639
1.68,0.901059304978619,5899.301583517721
1.684,0.8689719626952085,5906.863134439024
1.688,0.841284268554886,5901.147068918254
1.692,0.8194386016209977,5900.903544764087
1.696,0.8046334440743789,5897.383232959979
1.7,0.7977421511702054,5900.444300376032
1.704,0.7990100319768338,5904.4844874386645
1.708,0.8078119686355116,5910.299037120348
1.712,0.8227825213256377,5895.722652955536
1.716,0.8423812665327718,5896.164028451669
1.72,0.865602156080383,5899.357647704866
1.724,0.8923751926663651,5898.418255811899
1.728,0.9233488514286093,5901.620739140823
1.732,0.9590437977157316,5901.3690873182895
1.736,0.9986997911591713,5899.875962557619
1.74,1.0394112833165206,5899.243543719682
1.744,1.0761672474663742,5894.097078186514
1.748,1.10302984767481,5891.840214598353
1.752,1.1150830276096013,5904.995072901394
1.756,1.1103365174436093,5894.85108815781
1.76,1.0907363030590254,5888.659187941873
1.764,1.0618128858796858,5902.018553836229
1.768,1.0310913383092284,5898.483280251742
1.772,1.0058905729053331,5899.282421151311
1.776,0.9913322541077491,5901.7546420689605
1.78,0.9892195704736798,5886.088137411638
1.784,0.998026158100692,5897.504144168155
1.788,1.0137740494621466,5891.0383401889
1.792,1.03134162248277,5904.687355878624
1.796,1.0457867375947738,5905.948024569197
1.8,1.0534114113534105,5901.104097416705
1.804,1.0523986650275798,5898.745953683662
1.808,1.042950485581832,5889.501990323264
1.812,1.0269736530153397,5897.953972553628
1.816,1.007459957686932,5899.697885943302
1.82,0.9877585127032307,5889.807506793847
1.824,0.9709303912697358,5893.893452675629
1.828,0.9593282180452849,5905.723255800873
1.832,0.9544826550479313,5897.346047882495
1.836,0.9572650041548296,5902.775711541622
1.84,0.9681163056585871,5895.506633482991
1.844,0.9870577772406005,5909.383831008725
1.848,1.013385990897173,5901.126014464599
1.852,1.0452675499374884,5895.6177890787
1.856,1.0796017099530126,5905.230661501029
