时间(s),电压(V),幅值(高频80K)
0.0,0.7843048822364515,5896.806202016451
0.004,0.9606172187555014,5900.592418532816
0.008,1.1190673398251234,5897.584992598571
0.012,1.2462635306691767,5902.54131927719
0.016,1.3343165045509153,5901.069080864609
0.02,1.3816423752730522,5912.985612887849
0.024,1.392531987251963,5901.167921436104
0.028,1.375801610401842,5901.498052379045
0.032,1.342800825475053,5893.8035013862855
0.036,1.3050959548690944,5898.017908431692
0.04,1.2722996345505828,5900.117462368939
0.044,1.2505215794090268,5889.224151740723
0.048,1.241681668344446,5911.623075238995
0.052,1.2436944877759704,5902.262475566038
0.056,1.2514803166585158,5900.927607482202
0.06,1.2587252826648105,5904.631903234676
0.064,1.2600908227186016,5906.536837706692
0.068,1.2532147028180856,5898.477500874139
0.072,1.2396710638521782,5892.199480119859
0.076,1.2243839202551543,5904.415514907344
0.08,1.213757412719285,5893.441930664083
0.084,1.2134649536223925,5901.672326425796
0.088,1.2268836676247528,5906.893883327023
0.092,1.2545735860176173,5902.263263049027
0.096,1.2945546715443117,5906.862394990413
0.1,1.342958455894586,5902.935267788655
0.104,1.394833983159957,5906.343579314937
0.108,1.4450040286942494,5892.8942961228895
0.112,1.4887802273512003,5902.911818808733
0.116,1.522357029685365,5904.908774756163
0.12,1.5429311639066947,5900.710126700106
0.124,1.5487560493266541,5898.9315857389365
0.128,1.539236623806765,5904.222994268361
0.132,1.5150005266825066,5894.622366140146
0.136,1.4779087293621354,5897.582024247971
0.14,1.4310655456500843,5892.50056024044
0.144,1.3787555476399767,5911.087084743504
0.148,1.3259907632554466,5907.018818019854
0.152,1.2774619363262567,5894.278367305767
0.156,1.236230910061314,5906.18644261076
0.16,1.2029429027702099,5897.295969627659
0.164,1.1761683395529852,5889.256010673709
0.168,1.1537459143561863,5893.5681286215295
0.172,1.1342302331664385,5899.811499207261
0.176,1.1174180049649527,5904.012101402307
0.18,1.1036396001981126,5899.568732813168
0.184,1.0924601747182958,5897.982134899005
0.188,1.0818079676285612,5899.102379906163
0.192,1.0681413215460456,5900.9533572255
0.196,1.0475764757192136,5901.450605430133
0.2,1.0174465407073792,5896.716193572736
0.204,0.9776538661547499,5902.049605118798
0.208,0.9312789835688133,5897.899835656365
0.212,0.8841364699683758,5900.065844657308
0.216,0.843316961735157,5894.043633983077
0.22,0.8151879072904621,5904.774098471251
0.224,0.8036326503049577,5894.300956515901
0.228,0.8091864823095938,5897.0532323070765
0.232,0.8292390074642558,5900.106922960615
0.236,0.8590882824046151,5897.030629121909
0.24,0.8935512686824624,5897.920016639781
0.244,0.9287399095401443,5892.9797968979565
0.248,0.9633585488690541,5900.181663082469
0.252,0.9988332889676647,5894.169389480041
0.256,1.0380482156785538,5888.852283477537
0.26,1.0831955615354634,5898.882592063027
0.264,1.1337387940912889,5898.766529599951
0.268,1.1854650162301446,5898.247707553421
0.272,1.2311497632458004,5901.715120336172
0.276,1.2627079224722682,5889.599203592527
0.28,1.2740643183850386,5904.265097016917
0.284,1.2635648611275665,5909.08592334669
0.288,1.234831328922042,5895.033553798043
0.292,1.195625050833192,5890.625737799228
0.296,1.155217628177609,5913.647818075082
0.3,1.1214275234933702,5895.718466752149
0.304,1.0984924371599836,5909.514309523457
0.308,1.0863955376763104,5910.642615564439
0.312,1.0816148722099084,5895.692904612042
0.316,1.0788891802357186,5899.465526418745
0.32,1.0734211676812688,5897.111863558529
0.324,1.0627709594969263,5903.268963805704
0.328,1.0476964071286967,5901.112522946242
0.332,1.0316618873910957,5905.057126411472
0.336,1.019425672021971,5902.596568253043
0.34,1.0154660976190715,5903.758889162462
0.344,1.022867998989297,5897.574133158034
0.348,1.0429101849321831,5901.765810795995
0.352,1.0751782228849946,5898.289591210864
0.356,1.1177735681936805,5904.22669138845
0.36,1.167321903233158,5898.985757505136
0.364,1.2189011936868208,5900.110727986123
0.368,1.2662892603789409,5896.714914241477
0.372,1.3027986382687142,5891.970182900745
0.376,1.3225565926795158,5896.817462096526
0.38,1.3217615325127599,5895.0495871990615
0.384,1.299463485275476,5898.736922200524
0.388,1.2576987723567288,5902.696890397475
0.392,1.2010771536912113,5893.757667124706
0.396,1.1360537758445461,5906.245495691567
0.4,1.070141493177082,5895.709944389518
0.404,1.0111702438109869,5901.948859711424
0.408,0.9664449452713527,5895.0572227623015
0.412,0.9416422925614333,5899.689872235057
0.416,0.9396556939946343,5903.248809592793
0.42,0.9599343300877052,5894.868982349323
0.424,0.9987252388859904,5901.545816914711
0.428,1.0501148445044979,5897.140823540026
0.432,1.107339405279921,5908.762027017413
0.436,1.1638086370970357,5903.951734314552
0.44,1.2136331683147472,5897.509586046946
0.444,1.2518615641405801,5895.643441951822
0.448,1.274754458238191,5900.395338501093
0.452,1.2801709131129053,5903.262469066068
0.456,1.26783730881385,5898.0636794487855
0.46,1.2392629676860052,5896.528782161576
0.464,1.1973257121419587,5904.302837530297
0.468,1.1457730350802153,5889.965722110131
0.472,1.0888972230337137,5894.102847250477
0.476,1.031480488833907,5903.600024531377
0.48,0.9788482028104277,5894.679036912241
0.484,0.9366586263580041,5896.868305809162
0.488,0.9101437103044492,5899.190127199101
0.492,0.902946064257456,5898.201331156954
0.496,0.9161044015307893,5893.597501923574
0.5,0.9477161157764079,5899.86988619766
0.504,0.9933855882958499,5899.646383383734
0.508,1.047148948339443,5896.952976662091
0.512,1.102461448954607,5899.00340030511
0.516,1.1530056385522711,5896.335001495952
0.52,1.1932833562757743,5905.2068855194775
0.524,1.2190570777122811,5898.450795897266
0.528,1.2277589185354836,5897.612092628184
0.532,1.2189736000811406,5903.231546402389
0.536,1.1948731580675922,5897.960618781677
0.54,1.160148069923337,5895.884822021893
0.544,1.1210184539016388,5894.426216316796
0.548,1.0835007336115559,5907.475093079707
0.552,1.0517336571867835,5898.890326584256
0.556,1.0272216968398094,5892.781971871111
0.56,1.0093089724677249,5901.862194600187
0.5640000000000001,0.996476220732204,5905.124590576797
0.5680000000000001,0.9875913263770889,5885.367716545297
0.5720000000000001,0.9823633572121881,5896.462848609624
0.5760000000000001,0.9809552110840287,5898.779079149145
0.58,0.9833978999517374,5901.723593304697
0.584,0.9894189016079098,5896.70119827392
0.588,0.9986734707675836,5899.89572854479
0.592,1.0109431244484575,5895.922456859412
0.596,1.0260343606583795,5894.633965544292
0.6,1.043501088648817,5899.932708846419
0.604,1.0624504480851804,5901.646069420257
0.608,1.0815734775557897,5896.998149568482
0.612,1.0994306940785605,5894.507177752408
0.616,1.1149664740372816,5898.787464313254
0.62,1.1280885043625244,5904.581017087414
0.624,1.139966040511168,5888.995236185119
0.628,1.152714865588162,5907.396267337568
0.632,1.1684540544140494,5897.626375548226
0.636,1.1881328116159218,5902.337256108474
0.64,1.2107242092199755,5898.87430828165
0.644,1.233220516306704,5894.347860127534
0.648,1.2514373375087393,5901.431769210632
0.652,1.2612197436148327,5897.277618905533
0.656,1.2595257040252437,5901.239907913261
0.66,1.245081300316567,5902.8679715515245
0.664,1.2186223656410302,5894.058413711261
0.668,1.18289522786392,5901.015425330872
0.672,1.1425062921914784,5906.1154916204605
0.676,1.10350681405503,5898.094176070065
0.68,1.0725250927235028,5899.350455008155
0.684,1.055472090340871,5903.405619971469
0.6880000000000001,1.0561530698968864,5893.348799637479
0.6920000000000001,1.0751637343272682,5902.6416610626375
0.6960000000000001,1.109261957603485,5897.688879233353
0.7000000000000001,1.151372623470199,5900.290568214162
0.704,1.1915498585625035,5892.195778180831
0.708,1.219093478672059,5901.069571195004
0.712,1.2253599766444236,5893.864291415352
0.716,1.2061804753631953,5903.393540270086
0.72,1.1628939170095025,5892.919354199309
0.724,1.1017840255949762,5900.400247950119
0.728,1.0324782986661278,5904.807962999472
0.732,0.9660681370794441,5906.838053476135
0.736,0.9133872619240093,5906.072601863541
0.74,0.8834432248737262,5905.409534878192
0.744,0.8818245012207307,5895.158649360731
0.748,0.9091807588882889,5898.352875014552
0.752,0.9603374103788355,5902.044443235346
0.756,1.0247244858692468,5894.243058821764
0.76,1.088382525307014,5898.10431453611
0.764,1.1371595302554485,5905.520204544083
0.768,1.160203388345078,5899.892680165486
0.772,1.1526716510083665,5907.402158449992
0.776,1.1167963957388536,5903.485045739154
0.78,1.061038967338431,5900.960675622974
0.784,0.9978247298580576,5901.57360880351
0.788,0.9407921945703464,5905.286369605294
0.792,0.9023010679848612,5897.771657189837
0.796,0.891425771585624,5902.407838505636
0.8,0.91242870920772,5892.19582518889
0.804,0.9638621021787683,5907.033251216687
0.808,1.0385738160631839,5896.58703913785
0.812,1.1247994369152243,5893.784287429805
0.8160000000000001,1.2083583168568803,5897.257091395006
0.8200000000000001,1.2757155993586011,5900.275393462706
0.8240000000000001,1.317198218993395,5905.618486794621
0.8280000000000001,1.329222510405286,5898.331923389059
0.8320000000000001,1.314528209648708,5896.744275139401
0.836,1.2802875855334397,5898.268510050126
0.84,1.2351072515294044,5897.731171888288
0.844,1.1865391333691802,5895.052045468785
0.848,1.140224928135953,5898.017789326144
0.852,1.100540847074715,5900.499854936244
0.856,1.0715860921742224,5905.279657413052
0.86,1.0573293585271468,5901.744693254345
0.864,1.0605828275812625,5900.069061699514
0.868,1.081467289598908,5889.9402435321845
0.872,1.1164406371367073,5895.7450707825255
0.876,1.1585651708199716,5899.800742696506
0.88,1.1988832173231072,5898.191217331165
0.884,1.2282223492429034,5905.96883706422
0.888,1.238803882472515,5890.289991168706
0.892,1.22545733853422,5896.914970283647
0.896,1.1865625643023625,5908.761977626074
0.9,1.1247610090786473,5893.595543893388
0.904,1.0471459933822445,5899.997130410271
0.908,0.964466777851325,5904.570368458599
0.912,0.8891145604830717,5896.672085788334
0.916,0.8322237951101596,5896.050445436348
0.92,0.8008078827086043,5903.576440558752
0.924,0.7960307444588384,5907.397145339239
0.928,0.8132837771013366,5895.965475080995
0.932,0.8439900259945585,5897.535560237923
0.936,0.8784656166126608,5899.294172989345
0.94,0.9088706691057202,5905.7264583727965
0.944,0.9312168788044842,5887.264301661268
0.948,0.9456564785912102,5899.045582196646
0.952,0.9549781869094368,5902.790953170238
0.956,0.9621541722129103,5900.919661469363
0.96,0.968312964975526,5895.245933273921
0.964,0.9721988307098653,5896.441176717055
0.968,0.9712276055786319,5899.442995141435
0.972,0.9633528872735142,5906.74346276645
0.976,0.9486413507356793,5897.080649853052
0.98,0.929765439462573,5897.453201320793
0.984,0.9112851564336484,5895.267165893294
0.988,0.8982212820660556,5893.646746507519
0.992,0.8946431851135608,5894.494632244149
0.996,0.9027419491722738,5898.32176273274
1.0,0.9224940692467584,5895.851593875525
1.004,0.9518681002882677,5902.59204796161
1.008,0.9875172399260137,5893.753133271038
1.012,1.0258168861866555,5901.349076703465
1.016,1.0639118833160608,5903.528366597401
1.02,1.1002980520691643,5901.154587880418
1.024,1.1345819714604268,5896.421238659198
1.028,1.1664860588735997,5896.260002656469
1.032,1.1946824225999644,5898.690639311673
1.036,1.2162861461526673,5898.306670502414
1.04,1.2275304165036502,5894.727583973279
1.044,1.225373886165388,5904.929950226775
1.048,1.2091125042117559,5903.879985458925
1.052,1.1810413074446129,5897.842708168228
1.056,1.1458150874242852,5907.245359774607
1.06,1.108878734840282,5901.683813388967
1.064,1.074752061984007,5905.351519341593
1.068,1.0459689806387373,5893.922507460445
1.072,1.0231302922432544,5895.9184244296
1.076,1.0059065986737905,5900.902469370071
1.08,0.9942217648350797,5902.255926356584
1.084,0.9887626616059031,5900.276162371613
1.088,0.9905341191618575,5901.798978370225
1.092,0.9998505747346585,5893.195827245264
1.096,1.0153552918385371,5907.449789389047
1.1,1.0335073358221605,5899.634723063742
1.104,1.048872594812981,5902.8334691530845
1.108,1.0554478195117416,5908.379672872382
1.112,1.0488496585236375,5905.986713347246
1.116,1.0286051056436354,5895.894236720811
1.12,0.999433999367244,5899.566116888108
1.124,0.9706489706701789,5897.863179492806
1.128,0.9535662473195033,5901.422077475424
1.132,0.9577603062207739,5899.495106043835
1.136,0.9876143019704857,5894.527235382366
1.14,1.0405451593675927,5901.575112077349
1.144,1.107564695409336,5908.15479952698
1.148,1.1759392106566784,5907.164927394906
1.152,1.2330195969523905,5904.197731910738
1.156,1.2699020131892058,5895.838588544616
1.16,1.28358340682074,5896.04312791978
1.164,1.2769346997475428,5904.766166464904
1.168,1.2568719520972746,5896.717110118088
1.172,1.2318328261431533,5892.758702077853
1.176,1.2096386596978672,5908.557792900623
1.18,1.1962605599461227,5894.577084168799
1.184,1.195398952763387,5895.235999296869
1.188,1.208468801240858,5902.12964253357
1.192,1.2346202267580635,5895.463391166853
1.196,1.2706885777400252,5907.521679140745
1.2,1.3112398443716375,5904.459717014205
1.204,1.3489464507541966,5908.271005121099
1.208,1.3753924650704756,5906.008952870825
1.212,1.3822736815603869,5893.132030268525
1.216,1.3629106399093005,5910.55663557469
1.22,1.31389358680192,5898.79637527231
1.224,1.2364835866170758,5901.165181290016
1.228,1.1372748565549742,5902.85946762902
1.232,1.0277244170536193,5898.842858835788
1.236,0.9224341744867467,5888.979321563917
1.24,0.8363989992054504,5897.24149630927
1.244,0.7817449385454959,5901.729112790948
1.248,0.7647639599012229,5904.682194828254
1.252,0.7842053135586712,5898.513268758382
1.256,0.8315663136249407,5889.161264181638
1.26,0.8934168609836265,5896.723728780694
1.264,0.9549342296487118,5902.1576698933095
1.268,1.003419968078225,5894.504580553313
1.272,1.030804063634187,5902.683796954237
1.276,1.034637628511228,5900.707042819739
1.28,1.0175221867798876,5902.802623657812
1.284,0.9853486796233354,5894.618237971156
1.288,0.9450947694756019,5903.060838008854
1.292,0.9030295369675352,5914.161367053541
1.296,0.8638913209559601,5901.062525038144
1.3,0.8310839445345671,5904.3303076953625
1.304,0.807416042628477,5895.813172901417
1.308,0.7955962390026525,5905.092291987363
1.312,0.7978158861839132,5897.861728767118
1.316,0.8144284357526951,5903.126024631164
1.32,0.8426208556215834,5896.027354478721
1.324,0.8762748662281717,5899.068738583215
1.328,0.907541969424727,5897.036682204794
1.332,0.9295573083775125,5896.480097283312
1.336,0.9390370215648489,5899.3751367202485
1.34,0.9375771756788326,5886.93591438973
1.344,0.9311383060785847,5896.400736073206
1.348,0.9280464074134737,5902.951594368152
1.352,0.9363697344278878,5894.208175802504
1.356,0.9615359563809479,5891.400570239416
1.36,1.0047949787046802,5894.928657941759
1.364,1.0628936398408226,5901.84790862596
1.368,1.1290462189349404,5893.017838463421
1.372,1.194842846246188,5895.199731575598
1.376,1.2523638339227243,5908.809340701718
1.38,1.295767732446417,5894.570351305153
1.384,1.3219252447839511,5901.2894567487365
1.388,1.3300288369242366,5897.342193105423
1.392,1.3204834548236628,5910.881191948896
1.396,1.2937736667858883,5901.164608081638
1.4,1.250105017052247,5901.580453085118
1.404,1.1901320932420398,5894.896293749616
1.408,1.1162798376480878,5901.060949337644
1.412,1.033731956962709,5898.95664825105
1.416,0.950428663158854,5893.766669455216
1.42,0.8760164697910167,5902.14474616068
1.424,0.8201185995942231,5893.469238793681
1.428,0.7904460405377014,5905.900664785586
1.432,0.7912752681216844,5893.2636220567465
1.436,0.8226659238706626,5898.140186004776
1.44,0.8804544742825108,5895.953664039221
1.444,0.9567798842167321,5914.625348578808
1.448,1.04094845916204,5905.329108652286
1.452,1.1206957667271973,5909.701377732345
1.456,1.1839635424514363,5906.457789245651
1.46,1.2210719124709606,5904.380635092474
1.464,1.2268719373375512,5891.968429236388
1.468,1.2022857152926694,5896.773414939948
1.472,1.1546098279036974,5905.665876413048
1.476,1.0961896900576202,5906.348463465089
1.48,1.0416431781166393,5895.4536587260645
1.484,1.0044365657661234,5898.962680619064
1.488,0.9938212150689747,5905.03720893916
1.492,1.0128178344297805,5894.9801224088005
1.496,1.0574886162363706,5907.050258039572
1.5,1.1175325549172552,5898.634308136099
1.504,1.1781816900550222,5905.968350390244
1.508,1.223223783527247,5905.838402930819
1.512,1.2387174946670705,5907.655075734905
1.516,1.216690337448109,5905.53764201454
1.52,1.1578648912674578,5903.971990536968
1.524,1.072394677558861,5910.762227984281
1.528,0.9779669430589044,5903.743711210324
1.532,0.8954712397823237,5898.438597018234
1.536,0.8433610108945738,5902.3854575077885
1.54,0.8324000922246481,5899.934471586419
1.544,0.8624936807443154,5896.600608127923
1.548,0.9227462774629844,5905.034732356798
1.552,0.9948478729153799,5899.040966992819
1.556,1.058666638941794,5894.735527454701
1.56,1.0980749997423118,5898.403674163261
1.564,1.1050250173665979,5907.149956164863
1.568,1.0807230508108174,5900.393882368138
1.572,1.033984520520085,5898.606587764955
1.576,0.9778721703520854,5899.99181518217
1.58,0.926063646391116,5898.80486808296
1.584,0.8899990933776382,5899.084303536307
1.588,0.877151958964223,5900.578576019203
1.592,0.8902662654424691,5902.133595608811
1.596,0.9273057986455621,5899.44949256905
1.6,0.9820098199949571,5899.2551790368525
1.604,1.0450517012654756,5907.986446800162
1.608,1.1056956425797486,5899.426882408472
1.612,1.1536822579917783,5903.82879948981
1.616,1.1810413096954158,5903.9808147986905
1.62,1.1835905074696769,5906.718312816848
1.624,1.1619019567393714,5906.243195215783
1.628,1.1214836199523,5895.805313642961
1.632,1.0718741065982829,5903.873853925948
1.636,1.0244278122376447,5908.612326327051
1.64,0.9890307889271982,5902.094720385874
1.644,0.9707818012320371,5906.441862416258
1.648,0.968163216108895,5905.618366533726
1.652,0.9737872063764347,5905.26169290144
1.656,0.9775802792881123,5899.964414762717
1.66,0.9710703750914181,5902.591063101047
1.664,0.9509621226540331,5904.013069250463
1.668,0.920553844359952,5903.27659116043
1.672,0.8884788944019131,5902.329895878021
1.676,0.8653385091692632,5897.834495916194
1.68,0.8596194766428106,5899.24065551065
1.684,0.8745177907924361,5895.906626703506
1.688,0.9068246102092908,5901.305858109864
1.692,0.9481273913316655,5900.976247951897
1.696,0.9877073795702974,5902.198759799081
1.7,1.016039005684207,5908.425975499539
1.704,1.0277395206348137,5903.652997881748
1.708,1.0230064585544703,5905.5113821213545
1.712,1.006991971583702,5905.968293769412
1.716,0.9872948142916744,5898.702358776141
1.72,0.9706314094557639,5900.6502588432495
1.724,0.9602210576033918,5899.23542683644
1.728,0.955047627498578,5897.048810296985
1.732,0.9511638480405867,5903.370098092233
1.736,0.9442372568880822,5907.154302918108
1.74,0.9320416331860331,5905.541897418429
1.744,0.9157076525242918,5907.411290329959
1.748,0.8992215379139555,5902.491123902729
1.752,0.8875591327984105,5899.045582596671
1.756,0.8844452130569913,5902.603724221873
1.76,0.8907487475799353,5901.869383197008
1.764,0.9040572869450777,5900.475956099539
1.768,0.9193834996865409,5901.015642449331
1.772,0.9306230640650843,5905.640716759162
1.776,0.9323527733336765,5902.2486651024055
1.78,0.9215842592041928,5900.048239734246
1.784,0.8990374433126043,5902.258631538867
1.788,0.869486682211814,5908.590125837987
1.792,0.8409018494616531,5898.561543490418
1.796,0.822464744497325,5903.225403968827
1.8,0.8219983985901742,5904.977229573645
1.804,0.843707190646838,5899.004616384473
1.808,0.8871095001287803,5905.019984398163
1.812,0.9475386440014821,5889.638745925794
1.816,1.017859730980512,5901.901919156036
1.82,1.0905513368670388,5906.65900213322
1.824,1.1592698685480831,5907.677173024681
1.828,1.219378693176712,5906.755420712029
1.832,1.267481552291572,5898.904145534725
1.836,1.3005087568769327,5910.954229500852
1.84,1.3150990683680623,5902.363467849222
1.844,1.3077729505013598,5894.989021300491
1.848,1.2758849856686112,5909.284101706505
1.852,1.2189345661021085,5900.61232546764
1.856,1.1397048782666166,5910.249495835292
1.86,1.0448019523816943,5899.037335636086
