时间(s),电压(V),幅值(高频80K)
0.0,0.9654213915925958,5897.136719634984
0.004,1.0851930507175764,5899.544842052271
0.008,1.1979335130409068,5898.4917689708445
0.012,1.298001463144016,5894.803854864592
0.016,1.3806311508817322,5906.227906505512
0.02,1.442105845141781,5895.806646106333
0.024,1.480088148344565,5898.200822326726
0.028,1.4942273518473532,5900.139804800054
0.032,1.4867951647345985,5891.993027420751
0.036,1.4629660548182681,5901.127056154162
0.04,1.4304349623439092,5905.267365443093
0.044,1.3982068285928464,5908.574672608218
0.048,1.3746240200322353,5900.946638365585
0.052,1.3650837122138149,5901.104853981501
0.056,1.3702813531686093,5909.691793736594
0.06,1.3858640812836514,5895.776716407929
0.064,1.4038907779897782,5898.680174729527
0.068,1.4156516642578367,5897.8880937596805
0.072,1.41470617191796,5901.330565616811
0.076,1.398925967980636,5897.063961241948
0.08,1.3708916273965601,5893.030720549637
0.084,1.3367381133974578,5895.189843727959
0.088,1.3040486572245023,5891.971730025097
0.092,1.279575776120002,5906.284940532669
0.096,1.2675190759910184,5899.287505137983
0.1,1.2688504592979981,5901.726281512768
0.104,1.2817596540872913,5898.670226375389
0.108,1.3028236864336393,5899.471469637938
0.112,1.3282400741540992,5902.393230801415
0.116,1.3546133488107317,5896.319293715875
0.12,1.3792344963166876,5895.872038000615
0.124,1.4001169914342615,5900.718405504053
0.128,1.4159926130080676,5895.271456638453
0.132,1.4262530437964231,5895.445622398431
0.136,1.4307846622788503,5913.625224207534
0.14,1.4297600559562853,5901.605502577949
0.144,1.4234910446688895,5903.649377486093
0.148,1.4123793778600964,5897.353801385117
0.152,1.3969649613904036,5896.808021597856
0.156,1.3780854479552471,5892.9254197843065
0.16,1.3571034818201606,5898.105111667077
0.164,1.3360328750392214,5897.888555071208
0.168,1.3173625330009402,5888.765383278183
0.172,1.3035149698592796,5896.477521606999
0.176,1.2961098042532717,5906.694622368605
0.18,1.295398403112696,5892.658930868501
0.184,1.3002293391508672,5898.308788682087
0.188,1.3086153747737501,5898.523208540953
0.192,1.3185960168519204,5902.102662457241
0.196,1.3289503607838729,5905.634797480251
0.2,1.3394873755756167,5901.475034897893
0.204,1.3509031036021462,5898.912318962161
0.208,1.364335547779743,5898.903772487934
0.212,1.380760690977725,5898.462387103169
0.216,1.400376655742817,5906.246872114987
0.22,1.4221878870481228,5898.667103580403
0.224,1.4440411996406943,5905.257813880289
0.228,1.4632283063980034,5897.029246031188
0.232,1.4774575328878252,5899.914651279712
0.236,1.4857279086423434,5902.127910818677
0.24,1.4886410794807898,5894.230085055241
0.244,1.4879829751639393,5887.976586215378
0.248,1.4857989524978978,5909.871015853076
0.252,1.4834182906970192,5888.931680568516
0.256,1.4808490125820748,5898.272812504712
0.26,1.4767607603488193,5903.348224904692
0.264,1.4690484283448009,5903.042340568564
0.268,1.4557780421498094,5909.622697926332
0.272,1.4361793022841183,5898.342708875558
0.276,1.4113099137203864,5888.655278065986
0.28,1.384102111796094,5893.272534670224
0.284,1.358704884206616,5897.031987322549
0.288,1.3393047218535747,5897.204140498951
0.292,1.3288199679271766,5887.648148926056
0.296,1.327904291843252,5895.717951585127
0.3,1.3345776093556951,5904.921494132813
0.304,1.3446149872365787,5904.856278700445
0.308,1.35259956263507,5894.64466145458
0.312,1.3533234311876052,5894.168659749177
0.316,1.3431302751945697,5896.612388275151
0.32,1.320907862391044,5898.419880194832
0.324,1.2886210698026042,5895.02587620487
0.328,1.2513256268777782,5896.165461448269
0.332,1.2165268428372158,5901.173843386822
0.336,1.1927799580694123,5901.738077911757
0.34,1.187708247649846,5889.150979578917
0.344,1.2059527268919077,5903.370201421095
0.348,1.2476785097119103,5897.475287731723
0.352,1.3081066666980505,5898.420774137144
0.356,1.378258300984952,5902.621264137912
0.36,1.4467709271826783,5891.233998307828
0.364,1.502328852967152,5898.422631723357
0.368,1.53608965537527,5894.208675476944
0.372,1.543573858060715,5910.320612070832
0.376,1.5256666125619576,5900.9713633838055
0.38,1.4885042125729409,5906.079845402324
0.384,1.4421601864649367,5907.823539796155
0.388,1.3983294990385722,5902.177952436103
0.392,1.3675640975835717,5889.4112695812055
0.396,1.3568316670045886,5909.302754013214
0.4,1.3680893462995571,5904.238886617202
0.404,1.3981780026022192,5911.357149900012
0.408,1.4398432298068753,5898.415757800389
0.412,1.4833821563766492,5901.628963891594
0.416,1.5184650077764004,5911.835290342895
0.42,1.53592626466558,5896.334741408403
0.424,1.5294387765968478,5902.011600231061
0.428,1.4968556913953592,5898.200319359523
0.432,1.4408365621327308,5903.890050943473
0.436,1.3684450207530072,5897.655894557223
0.44,1.2897517053001875,5899.653180200401
0.444,1.2158544328734855,5888.602231482485
0.448,1.1568725330972334,5896.917838044561
0.452,1.120339034852723,5898.005852946207
0.456,1.1101784245203838,5907.402239643657
0.46,1.1263229144918727,5895.695595335416
0.464,1.165009585791945,5898.089981883738
0.468,1.219748269832334,5898.738253036197
0.472,1.2827479366507135,5904.306391178564
0.476,1.3463739515631858,5911.54765950261
0.48,1.404208628582908,5897.554057984573
0.484,1.4515345187662123,5900.033535921559
0.488,1.4853448976982535,5895.683637453198
0.492,1.5041128585307826,5898.104488779044
0.496,1.507533983842513,5899.874593310231
0.5,1.4963966274213545,5894.198641740429
0.504,1.4726186652911792,5902.0571486068975
0.508,1.4393095879212952,5892.259952601665
0.512,1.4006165593746096,5898.779216334515
0.516,1.361214341739873,5904.341460397105
0.52,1.3255139443750952,5896.540459670401
0.524,1.2968440827028478,5903.919566414023
0.528,1.2769254725640307,5897.059587823111
0.532,1.2658496212197736,5899.8129223708265
0.536,1.2625220242466428,5902.254068786099
0.54,1.265329964061017,5907.337527106815
0.544,1.2727627155458126,5903.195488824695
0.548,1.2837511350407553,5894.073759461873
0.552,1.2975696904287541,5895.937671563448
0.556,1.3133535879350495,5901.161483885949
0.56,1.3295550037587764,5913.4296176393655
0.5640000000000001,1.343753768697515,5903.094973867045
0.5680000000000001,1.353061064328405,5905.182169074079
0.5720000000000001,1.355026062072411,5906.091366244415
0.5760000000000001,1.3486327205870459,5893.159620222164
0.58,1.334843017085154,5899.665471538352
0.584,1.3163589363647212,5896.180788898675
0.588,1.2967341568713282,5899.118689895346
0.592,1.2793195584290353,5905.166258316901
0.596,1.2665390305804227,5905.641166025723
0.6,1.2597247565085878,5895.741804866608
0.604,1.259393070108685,5904.485055523925
0.608,1.2656117016061932,5892.879289607076
0.612,1.27814309477778,5893.096565632888
0.616,1.2963073584635667,5895.220703058722
0.62,1.3187608582268222,5909.730290923852
0.624,1.3434526268083422,5905.566461094645
0.628,1.3679047264465005,5894.7181904308645
0.632,1.3897418313366352,5897.422078666548
0.636,1.4071893283211256,5898.983125887031
0.64,1.4192624778733074,5901.791815848953
0.644,1.425628499483873,5904.884520447365
0.648,1.4263628739571694,5899.308500277431
0.652,1.4217918512575758,5896.549442105601
0.656,1.4124449615292214,5905.839619451046
0.66,1.3990633803305161,5901.275189751078
0.664,1.3826115460269293,5893.528907987246
0.668,1.3642467820469548,5896.278281535977
0.672,1.3452492429546565,5900.318239320719
0.676,1.326967901177694,5893.354896404929
0.68,1.3107841795750437,5909.587176218802
0.684,1.2980054901556106,5903.885774379011
0.6880000000000001,1.289668422246573,5905.630054695012
0.6920000000000001,1.2863969437195288,5900.687538728639
0.6960000000000001,1.288470243326777,5896.066335533098
0.7000000000000001,1.2960669013070232,5894.854451527388
0.704,1.3094686218988159,5899.957606603977
0.708,1.328984787734961,5905.2238062548695
0.712,1.3545152681794541,5899.895365504456
0.716,1.3849206803753287,5895.327573939247
0.72,1.4175542326631771,5910.327029058907
0.724,1.4482831409296055,5893.280234274945
0.728,1.472102687654333,5896.3037914218185
0.732,1.484184203251649,5898.541094011049
0.736,1.4810400125332017,5899.997294371874
0.74,1.4614499702517671,5893.806341460622
0.744,1.4268600444558246,5902.712290120647
0.748,1.3811392892810526,5900.600245450925
0.752,1.3298089029635263,5901.254507478783
0.756,1.27901627514049,5903.274373717706
0.76,1.2345478632134055,5902.068891998346
0.764,1.2010726493812982,5908.744741800269
0.768,1.1816543129518318,5899.872711161409
0.772,1.1774671222662385,5906.726386877643
0.776,1.1876612146357917,5899.642065148409
0.78,1.2094001982696645,5903.791852396954
0.784,1.2381475285298655,5900.388228564152
0.788,1.2682801794847034,5906.255603843576
0.792,1.2940448993931823,5899.593720585753
0.796,1.3107198088419758,5891.17400051035
0.8,1.3156874574553776,5894.611200943991
0.804,1.3091017215631984,5905.040900200801
0.808,1.2939253306434764,5898.671347956451
0.812,1.2752420634064128,5902.564236915156
0.8160000000000001,1.2589353033343857,5900.060597326521
0.8200000000000001,1.2500841148933022,5900.83350870961
0.8240000000000001,1.2516121479796793,5897.406135376564
0.8280000000000001,1.2636706849594128,5901.848786223347
0.8320000000000001,1.2839305361804394,5903.243114722979
0.836,1.3085621122184847,5894.455204376442
0.84,1.333435913091197,5900.251214995606
0.844,1.3550708970349474,5898.394992243006
0.848,1.3710310502899514,5900.954995423424
0.852,1.3797739127439812,5905.1065952505705
0.856,1.380289280647388,5894.580738640295
0.86,1.371957133180529,5896.563715703855
0.864,1.3547546075350183,5904.132591805932
0.868,1.3295456420193326,5899.8704867191245
0.872,1.298123897954001,5898.806014381108
0.876,1.262987281370443,5903.497212221768
0.88,1.2271197301750356,5897.670795837451
0.884,1.193992754398368,5900.723480793894
0.888,1.1676426040677075,5902.262659814426
0.892,1.1524389416010679,5900.395371539544
0.896,1.1523215084640839,5900.395291933523
0.9,1.1696863755664269,5898.732755969007
0.904,1.2043808637207427,5900.095641841945
0.908,1.2532513305684483,5903.4581181061485
0.912,1.3104837548633554,5900.135652652503
0.916,1.3686956305844544,5900.76410888476
0.92,1.4204410573910022,5897.791920797816
0.924,1.459638559683763,5908.462768249528
0.928,1.4825545006148322,5896.441607994874
0.932,1.4882400542363652,5904.949333700467
0.936,1.4784895166991587,5904.747144614634
0.94,1.4573993319442293,5900.254669654946
0.944,1.4305454806679154,5900.157418134672
0.948,1.4038047488519458,5903.474876580255
0.952,1.382036942444339,5900.733656265257
0.956,1.3680863119192062,5900.257084642133
0.96,1.3625229762327749,5897.739176944111
0.964,1.3641534957444925,5901.076081101821
0.968,1.3709074956789442,5908.76456276444
0.972,1.380591391515486,5895.488123367727
0.976,1.3912220842403589,5897.239073042043
0.98,1.401005538704108,5900.042631106192
0.984,1.4082638853799643,5897.369352578432
0.988,1.4115901513641584,5886.131998098138
0.992,1.4102451078620692,5901.559513992617
0.996,1.4045169593864528,5904.946924673523
1.0,1.395697113083818,5898.166093518787
1.004,1.3855601633172947,5897.8649946497
1.008,1.375596302207031,5898.366541544004
1.012,1.3664368804023206,5900.775109604162
1.016,1.357770232983681,5895.426883726351
1.02,1.3487044592024762,5898.961067278594
1.024,1.3383182095633461,5898.576466490761
1.028,1.3261745134644385,5899.988678331248
1.032,1.3126854030569155,5903.586350397823
1.036,1.2992477022984608,5898.344899462106
1.04,1.2880666571875632,5896.45717247424
1.044,1.2816466826438786,5896.25876940082
1.048,1.282062129435061,5894.3856059298905
1.052,1.290246829713539,5899.505035547329
1.056,1.305574557876176,5906.0162095785245
1.06,1.3259121681938337,5906.455614988618
1.064,1.3481520059641166,5897.464060833595
1.068,1.3690414383873024,5891.493795779771
1.072,1.3859892071113513,5897.2143999842365
1.076,1.3975011055916393,5902.289463699108
1.08,1.4030456345702416,5898.418737381132
1.084,1.402476550536003,5901.5577620831855
1.088,1.3954636106989218,5903.837662356768
1.092,1.3814045025510033,5895.964980061131
1.096,1.359930299950323,5896.657634835323
1.1,1.3316824218139394,5901.305446450088
1.104,1.2988752220710102,5899.424206874801
1.108,1.265284462382199,5904.85136701007
1.112,1.2355573834708704,5900.445431217758
1.116,1.2140390396010803,5901.276287333754
1.12,1.2035692907587594,5913.847598284067
1.124,1.2047574249016046,5903.743862046379
1.128,1.2160134569754109,5900.469367620352
1.132,1.2342630674901658,5904.822387854252
1.136,1.2560127497561646,5902.054260980672
1.14,1.2783381529391717,5905.163204600933
1.144,1.2994283051124234,5901.459928840299
1.148,1.3185344253029974,5901.059640045483
1.152,1.3354820997401602,5892.416250250385
1.156,1.3501132445494537,5909.665822233346
1.16,1.3619750595308213,5890.390689581801
1.164,1.3703482185171938,5899.548909514445
1.168,1.3745176076164625,5904.77935512829
1.172,1.3741250904222466,5906.548968362632
1.176,1.3694397045832605,5896.336658087324
1.18,1.3614009929776583,5895.728505546805
1.184,1.3513922101202944,5901.709344227865
1.188,1.3408634521608893,5903.077817094005
1.192,1.3309887973479426,5903.672141564752
1.196,1.3224344483598487,5904.376809744518
1.2,1.3152002891336958,5903.469802256523
1.204,1.3085213600284529,5902.469699108585
1.208,1.3008964729918158,5907.358464858216
1.212,1.290324514376086,5906.401528143917
1.216,1.2747773585090525,5897.498198898988
1.22,1.2528434378991553,5904.0850480805375
1.224,1.2243385121794803,5908.2390795293695
1.228,1.190593031724813,5903.272035698399
1.232,1.1542323424224041,5906.595453370444
1.236,1.1185483621261898,5901.049322204068
1.24,1.0867909127717386,5906.93728277617
1.244,1.0616953655209367,5902.465760669254
1.248,1.0453605198114453,5904.634078320702
1.252,1.0393557649595444,5899.441164596915
1.256,1.044784051170874,5911.708712001562
1.26,1.0620577823018666,5904.682357358498
1.264,1.0903911718163493,5912.787804199066
1.268,1.1273107263260456,5911.748613581093
1.272,1.168583105173863,5904.751098887322
1.276,1.2087638164961403,5893.783289773411
1.28,1.2422235236453754,5899.473229025172
1.284,1.2642592315479206,5902.615684639349
1.288,1.271900794753594,5899.225985182628
1.292,1.2642329081431698,5900.493936224111
1.296,1.2422931810401459,5889.025336051799
1.3,1.2087323493052289,5901.099215164055
1.304,1.1674044426191306,5898.844046219485
1.308,1.1229550448040535,5903.652014269905
1.312,1.0803763841231442,5892.34961180671
1.316,1.0444534519247095,5900.4513899183685
1.32,1.0190646109189636,5894.756631885178
1.324,1.0064282961744166,5902.3084785155
1.328,1.00653800281511,5909.500485454942
1.332,1.0170705886643303,5901.004421341507
1.336,1.0339231929708457,5892.794724379213
1.34,1.0522845562161192,5892.747528423349
1.344,1.0678778030513103,5904.369837404431
1.348,1.0778688900166915,5899.279902339822
1.352,1.0810686281667674,5896.914056955707
1.356,1.0774411269189283,5906.6727893806
1.36,1.067323477073502,5899.542298850067
1.364,1.0509045997718254,5900.614345428523
1.368,1.0283284070467735,5895.675437395265
1.372,1.000391338556302,5899.905927762737
1.376,0.9694150091575128,5898.095035939657
1.38,0.9397149413281872,5902.712154191731
1.384,0.9172576777602616,5905.951867085728
1.388,0.908484801233197,5909.186405294918
1.392,0.9186448702994261,5894.462114214815
1.396,0.9501633150087392,5899.206270963768
1.4,1.0015845696982815,5902.796401491034
1.404,1.067446759367991,5902.241756049923
1.408,1.1391175305928096,5899.925060806649
1.412,1.206290093663844,5904.612581648244
1.416,1.2587291384141246,5900.635385652719
1.42,1.2879649538856268,5908.002060065236
1.424,1.288736743401378,5899.263264066588
1.428,1.2599639478849705,5909.036872644333
1.432,1.204997373565604,5901.790529904387
1.436,1.1310101485929647,5904.716979167335
1.44,1.0476146549124359,5905.822595127304
1.444,0.9650203891243216,5908.191198117936
1.448,0.8921762088347961,5895.57654863107
1.452,0.8353156217196562,5907.908108872259
1.456,0.7971741689288008,5908.502310290025
1.46,0.7769781511942523,5899.435067259217
1.464,0.771176980461109,5899.497666776755
1.468,0.7747661390628213,5911.434058187434
1.472,0.7828920910728815,5901.051108422703
1.476,0.7923019495155995,5908.274702075005
1.48,0.8021753362716036,5901.005687159973
1.484,0.8140067756436974,5904.792699614529
1.488,0.830536298599549,5907.254928299088
1.492,0.8541649493764109,5905.97781415776
1.496,0.8855530433325273,5906.336086709733
1.5,0.9229804232961162,5906.955372187005
1.504,0.9626701428856578,5894.774871970642
1.508,0.9998717424657535,5911.783437823455
1.512,1.030207975775366,5904.939904463943
1.516,1.0507349555419192,5904.154384175424
1.52,1.06041075710091,5905.48821594728
1.524,1.060033530984718,5897.952744769147
1.528,1.051898281144277,5907.380392391497
1.532,1.0393382106155578,5904.352879966964
1.536,1.026145469768134,5902.4075422554415
1.54,1.0158130337934237,5904.192361280419
1.544,1.0106603063842738,5896.437356473232
1.548,1.0111355973711094,5903.831609287642
1.552,1.0157233648094643,5899.750969628415
1.556,1.0216701227745288,5903.307107904582
1.56,1.0262392131858245,5898.563645079605
1.564,1.0278411468952242,5903.944860557685
1.568,1.0264834560991098,5905.924439993803
1.572,1.0234113292719893,5903.77112697933
1.576,1.020206058645719,5912.028935899362
1.58,1.0177734990423357,5893.3332910338
1.584,1.015640217172085,5896.229112320245
1.588,1.0118665245072365,5905.332040625101
1.592,1.003663371208596,5909.680214129416
1.596,0.9884806156852459,5903.892341757884
1.6,0.9651012656697949,5894.318587428505
1.604,0.9342892822049573,5894.29183538318
1.608,0.8987286330058384,5909.345924655834
1.612,0.8622383697208262,5903.672061161095
1.616,0.8285534150257832,5901.457668904841
1.62,0.8002347414939192,5899.1253422408045
1.624,0.7782438865883994,5901.690932718899
1.628,0.7622977312016581,5906.158344877062
1.632,0.7516441152613021,5904.139855185018
1.636,0.7457588274775536,5900.790793844724
1.64,0.7446574369196164,5905.997155078175
1.644,0.7487649760185802,5902.518125549869
1.648,0.7584551203129145,5902.727642242383
1.652,0.7734999067778413,5909.992002287689
1.656,0.7927342619373161,5904.278976090389
1.66,0.8141242384970205,5910.661916573271
1.664,0.835160907916645,5907.753611588806
1.668,0.8533087899874596,5908.210617385357
1.672,0.8663035991467897,5905.245600388059
1.676,0.8723421037753878,5910.998772891927
1.68,0.8703690928327356,5903.905367811921
1.684,0.8605529671023116,5912.737005989576
1.688,0.8447540700754645,5906.0727093740525
1.692,0.8266358052743619,5902.886955111866
1.696,0.8111924069664739,5905.08192050481
1.7,0.8037118596252331,5901.635879782683
1.704,0.8083895104311426,5904.449378638792
1.708,0.8269385655458482,5904.804350120805
1.712,0.8575981105963212,5906.022445013479
1.716,0.89488813688263,5899.079929731543
1.72,0.9303216521802632,5905.628640469153
1.724,0.9540760433551256,5908.028549237561
1.728,0.9573530606242747,5904.899245011059
1.732,0.9348728176757191,5910.133197968006
1.736,0.8867744098847011,5899.7185668957845
1.74,0.8192547974759283,5905.464680977466
1.744,0.7435951652822765,5907.116759871782
1.748,0.6737017132047054,5906.67180495283
1.752,0.6227512126079957,5909.637912133231
1.756,0.5998229832232591,5900.669099064121
1.76,0.6074494978684946,5910.070768310357
1.764,0.640824388463787,5903.137594134891
1.768,0.6889791543341495,5897.38155061565
1.772,0.7376524556065627,5891.9027330873205
1.776,0.7730290623997309,5907.152309059829
1.78,0.7852465804057602,5914.113106514029
1.784,0.7706500021448457,5908.377959560242
1.788,0.7321691098870338,5905.532684510553
1.792,0.6777994848800365,5914.329771620792
1.796,0.617815141410928,5910.926434216913
1.8,0.5617679792363179,5902.1133131600345
1.804,0.5163231734643929,5901.498035387624
1.808,0.4845399040510297,5893.599889119038
1.812,0.46653848989675323,5905.562660961731
1.816,0.460913573206802,5910.885797107937
1.82,0.46605179118893286,5905.820753992243
1.824,0.4807644548644303,5901.232370149962
1.828,0.5041303514468127,5897.773096539582
1.832,0.53483747075714,5903.913202633967
1.836,0.5704576638773085,5906.210533384577
1.84,0.6070605049172026,5906.317171696496
1.844,0.6394776224962306,5902.452333509236
1.848,0.6623210142767622,5908.679807908392
1.852,0.6714960257423236,5906.897861362067
1.856,0.6656194710928698,5906.252293585006
