时间(s),电压(V),幅值(高频80K)
0.0,1.233385185867054,5899.914857595072
0.004,1.1635640631228963,5900.692482270685
0.008,1.094405579708935,5893.145742573521
0.012,1.0281781658502664,5894.749890668396
0.016,0.9693305428072178,5901.8029113298335
0.02,0.9238830586188711,5897.681279733237
0.024,0.8979895157460677,5894.09375989493
0.028,0.8962827033767461,5898.246161667501
0.032,0.9204701373992821,5902.279432855348
0.036,0.9685002509615731,5896.78943506386
0.04,1.0345861992378214,5895.059875730526
0.044,1.1102365972426027,5897.578378858625
0.048,1.1860698285991464,5901.225249985843
0.052,1.2538124001775741,5896.731574316696
0.056,1.3078221133227332,5906.680218689471
0.06,1.3457572437452652,5905.131510046654
0.064,1.3683712362737679,5902.086449950429
0.068,1.3786288587433966,5901.770816603823
0.072,1.3804432491581178,5904.53136937871
0.076,1.3774475533540227,5895.651558515561
0.08,1.3722906651463813,5910.378575888726
0.084,1.3667624981060722,5902.821246018253
0.088,1.3625467270604423,5896.837888316766
0.092,1.3619209660182485,5899.889901590915
0.096,1.3677510922520772,5908.948756982301
0.1,1.3826645672505462,5902.70924742172
0.104,1.4078233406586707,5901.1148028495845
0.108,1.4418357614323467,5899.35573707914
0.112,1.4801795466414596,5893.995527706436
0.116,1.515404651546436,5890.011429139787
0.12,1.538343716598573,5903.737224017457
0.124,1.5402888013429896,5903.063144961263
0.128,1.5155857142046076,5902.553212570232
0.132,1.4637538023314356,5909.895938625615
0.136,1.3903750246727098,5897.210654445335
0.14,1.30647116425296,5901.347992270086
0.144,1.2265297705534082,5898.671742050123
0.148,1.1655655246731167,5893.648031790027
0.152,1.1357255279041774,5904.8716714828
0.156,1.1431465379634578,5897.569933757482
0.16,1.1860221867412977,5902.402563911667
0.164,1.254810917438442,5896.149223769181
0.168,1.3348834644108813,5905.347626271256
0.172,1.4108339892040729,5903.691841247362
0.176,1.4708427269687387,5906.695430154496
0.18,1.509476834785748,5896.170303310288
0.184,1.5280999784847176,5901.307838905378
0.188,1.533079402389082,5902.74348283249
0.192,1.5327556525518267,5899.39402617021
0.196,1.5344653185418005,5887.897392668632
0.2,1.5426724487450154,5901.808228144844
0.204,1.558552872624971,5897.24167198221
0.208,1.580620326785125,5899.85428279772
0.212,1.6056756602661715,5899.168655263944
0.216,1.629593770980332,5896.996452676996
0.22,1.6478931693158971,5902.896859666766
0.224,1.656276166292759,5900.370847912475
0.228,1.6512766170709148,5903.851221017541
0.232,1.6309316761927994,5895.54797182948
0.236,1.5952188633733742,5897.496733767285
0.24,1.5460432931579253,5901.732167817208
0.244,1.4867811168270093,5908.49589343913
0.248,1.421584978635602,5908.711176620314
0.252,1.3547199349166974,5891.28900196339
0.256,1.2901139624899836,5893.395716773945
0.26,1.2311217551034392,5904.503485159751
0.264,1.1803786036189803,5894.409821044503
0.268,1.1396908874168734,5899.895159957042
0.272,1.1100308688485618,5897.712676734319
0.276,1.0916780394212229,5891.691365022992
0.28,1.0844353351840466,5890.28321739174
0.284,1.0878054211775312,5898.554125065113
0.288,1.101047590444689,5903.325294868754
0.292,1.1231010059915554,5896.569606342766
0.296,1.1524547350003,5899.8244013478
0.3,1.1871078485417528,5911.900239515036
0.304,1.2246882317373373,5899.447217531503
0.308,1.2626377885960216,5899.464764910495
0.312,1.2983263339295794,5896.76623317018
0.316,1.3291075414470261,5892.6516757624895
0.32,1.3525002798012897,5907.622503025419
0.324,1.3666388953086122,5896.743820871611
0.328,1.3708905831663187,5900.577685127214
0.332,1.3663109261217252,5900.999325760567
0.336,1.3555827093865227,5892.55121771346
0.34,1.3422845311099418,5908.361011854969
0.344,1.3296970584687295,5898.3246187535005
0.348,1.319686498423507,5890.662796471799
0.352,1.312233510066468,5904.557176160162
0.356,1.305823032134372,5897.342357156963
0.36,1.2984286101445268,5905.810405588355
0.364,1.2885643293622742,5898.715488246709
0.368,1.2759866782694156,5896.268619885616
0.372,1.2619401143876634,5896.065379887932
0.376,1.249026728134559,5897.709115445039
0.38,1.240720565821127,5901.180987339594
0.384,1.2404730054223898,5897.658111781322
0.388,1.2505053872530274,5901.351293530033
0.392,1.2706722366575194,5894.921151776459
0.396,1.2979516296062654,5899.877823693859
0.4,1.3270167486085918,5902.994278767913
0.404,1.3519164984853353,5905.844923198815
0.408,1.3682773322266653,5893.857749638654
0.412,1.3750109741623637,5908.384927357714
0.416,1.37464104372476,5903.59350474277
0.42,1.3720480611771595,5904.491525649787
0.424,1.3722629994258448,5899.926650729681
0.428,1.3783886785367558,5905.117300875947
0.432,1.3905641177656756,5902.15830978189
0.436,1.406304721820602,5898.926069440535
0.44,1.4219244426945683,5896.273447297357
0.444,1.434332980915859,5902.91489899136
0.448,1.442400180194318,5897.119492078703
0.452,1.4473153905911362,5905.468120960941
0.456,1.4518604879578652,5910.16621337294
0.46,1.459002880312922,5905.033990171171
0.464,1.47043192538211,5896.065906071748
0.468,1.485586542533218,5900.429110270887
0.472,1.5015014785046343,5896.046258883798
0.476,1.513523388714173,5904.1018922545445
0.48,1.5166552365377033,5906.48705112252
0.484,1.507057304574981,5908.145277328417
0.488,1.483143464246911,5908.335777607343
0.492,1.4458306124922615,5898.843023638518
0.496,1.3978735366853083,5896.114698263527
0.5,1.3427081568332344,5902.778428874197
0.504,1.2834974106142643,5897.329717572654
0.508,1.222909034758886,5897.607001497708
0.512,1.163653904168082,5902.585816997198
0.516,1.1092777016434785,5900.02828260288
0.52,1.0644719812107748,5901.063961514469
0.524,1.034453487086101,5895.417767892751
0.528,1.0235783872508712,5903.692788301519
0.532,1.0338570909474247,5899.378035032717
0.536,1.0640902049844863,5892.483095079978
0.54,1.109976316818315,5896.611438315156
0.544,1.1650214829671395,5898.032484890037
0.548,1.2217597541459615,5903.290403719405
0.552,1.2728705579635962,5905.534787066547
0.556,1.3121086758654041,5899.859511906946
0.56,1.335180983388185,5897.25916434846
0.5640000000000001,1.3405901442095625,5895.461764133857
0.5680000000000001,1.330161679936638,5902.585535774146
0.5720000000000001,1.3088278585495445,5901.210825424899
0.5760000000000001,1.2834618809602825,5903.489448095858
0.58,1.261005777597968,5904.880869685384
0.584,1.2465049481783836,5901.07117113512
0.588,1.2417489733014573,5901.561019827872
0.592,1.2450230751474456,5901.247198837072
0.596,1.2520910150701214,5900.41879089451
0.6,1.2580562654025051,5907.557025142265
0.604,1.259355986238096,5895.490670799832
0.608,1.2550857087469647,5899.546567799669
0.612,1.2471996832722663,5898.004949406927
0.616,1.2396213910865679,5908.103413448157
0.62,1.2366623247795425,5897.230069463331
0.624,1.2413531920575431,5898.644322749527
0.628,1.2543247991423925,5898.0956993032505
0.632,1.2736244825157228,5904.589705927994
0.636,1.2953977888701023,5891.634769517093
0.64,1.315024648828207,5897.262262051222
0.644,1.3282460132990679,5907.270534102321
0.648,1.331944319749192,5907.154899733753
0.652,1.3244487085253438,5895.682008015398
0.656,1.305498991078939,5901.203848863937
0.66,1.276190738140087,5906.25469829727
0.664,1.239155544116719,5904.943855751611
0.668,1.198900464072208,5896.290943668917
0.672,1.1618679761662407,5902.676408012707
0.676,1.135702330596561,5901.788088055217
0.68,1.1275756886790393,5904.256283068972
0.684,1.1420415822875358,5903.620654533894
0.6880000000000001,1.1793135321671722,5909.584198789119
0.6920000000000001,1.234787671862734,5907.968782832159
0.6960000000000001,1.3000723244913923,5909.495856899302
0.7000000000000001,1.3651250864151576,5905.218844634798
0.704,1.4207205951525266,5906.6377129042885
0.708,1.46048604002905,5897.032006075471
0.712,1.4820167310571672,5894.278272544094
0.716,1.4869448200720705,5903.09741066594
0.72,1.4801132834481818,5901.602553782297
0.724,1.4681129124712042,5901.199069506487
0.728,1.4574434145639161,5895.656069749202
0.732,1.4526145873000622,5898.488767783332
0.736,1.4546635331395863,5896.815286178051
0.74,1.4606740533398155,5900.279637917498
0.744,1.4646868499906769,5896.348941603381
0.748,1.45983433932332,5901.643942680727
0.752,1.4409254810564338,5892.932218416283
0.756,1.406445046297317,5895.359485560308
0.76,1.359195845561224,5908.986734145531
0.764,1.3054586088777915,5900.829527028437
0.768,1.2531869659716328,5904.782529534239
0.772,1.2100288824609047,5893.0331824040295
0.776,1.1818158376446604,5894.887220537428
0.78,1.1717967924909163,5896.171702132923
0.784,1.1805320211603088,5891.922370335047
0.788,1.2061469600580967,5905.15288796575
0.792,1.2446666147083232,5898.090362472069
0.796,1.2903615492039655,5904.51744185163
0.8,1.3362530922974618,5903.1796097530005
0.804,1.3749577170642084,5898.672831988905
0.808,1.3998481838850918,5905.54624375502
0.812,1.4062440124780649,5891.923790574331
0.8160000000000001,1.3922680202810196,5894.180422287595
0.8200000000000001,1.3591514329094065,5891.714587917115
0.8240000000000001,1.310954326070119,5894.138058239676
0.8280000000000001,1.2537839521613652,5902.142273803081
0.8320000000000001,1.1946824798907247,5900.039586378439
0.836,1.1404474011592671,5893.251052711431
0.84,1.096689749180432,5898.082379269515
0.844,1.0673528420860323,5904.979969429017
0.848,1.054709503398855,5897.271241055633
0.852,1.0596537400395232,5899.87625298184
0.856,1.0820472992731158,5894.990346632066
0.86,1.1209656648932178,5905.010198491378
0.864,1.1747683680381966,5900.046129055622
0.868,1.2409333513073288,5894.249351668373
0.872,1.3156489864518475,5898.816753166922
0.876,1.3933167706927396,5893.587755950062
0.88,1.4662986135523133,5895.610626372462
0.884,1.525340478452628,5900.356988670098
0.888,1.5610071027735568,5901.9313719537895
0.892,1.5660333057856426,5896.408142268496
0.896,1.537859906060169,5900.675297115684
0.9,1.4802749952411256,5900.530017931127
0.904,1.4033746714565523,5893.933870924459
0.908,1.321747087713315,5898.621036267624
0.912,1.251373396320537,5895.408794415996
0.916,1.2060271599265728,5899.212012630609
0.92,1.1940240474527768,5891.036152954811
0.924,1.2161147660122187,5910.63416368504
0.928,1.2651267607285797,5903.472827977951
0.932,1.3275878904631748,5901.82324664545
0.936,1.3870042676364471,5903.471438021553
0.94,1.4279028988178255,5901.47861938852
0.944,1.4394864205344484,5904.14775038188
0.948,1.4179366541288956,5888.803456609645
0.952,1.3669344033698738,5891.22226382621
0.956,1.2965350149556534,5893.773070012462
0.96,1.2208739267763773,5903.221426591327
0.964,1.1552391579137256,5896.943153650584
0.968,1.1130157709723836,5897.155923454833
0.972,1.1030041780377022,5905.495673951224
0.976,1.127610888777251,5898.729970126151
0.98,1.1823480479537154,5897.291361944539
0.984,1.2569052169283366,5901.193934041768
0.988,1.337701964484119,5908.088033260952
0.992,1.411323672907392,5898.020237124429
0.996,1.4678232079310534,5900.400097618401
1.0,1.5028117731173727,5900.043034764937
1.004,1.5176462207656252,5906.633007266511
1.008,1.5177290507289407,5896.023662147678
1.012,1.5096893305463257,5901.5524784567615
1.016,1.4986171728104933,5900.447001842519
1.02,1.4863638967414723,5900.841021177405
1.024,1.4713689326882673,5902.987057118679
1.028,1.4498958619113362,5899.955880436742
1.032,1.4181702312635496,5901.615675129399
1.036,1.374696585082826,5896.4168696882
1.04,1.3219237993471635,5894.720047369016
1.044,1.266512970948676,5897.923767953558
1.048,1.217910742749783,5898.880685331103
1.052,1.1856690503129756,5899.844002837881
1.056,1.1765524778175627,5896.592111715094
1.06,1.1925256881525017,5907.203398579668
1.064,1.2302394619705068,5902.805245233036
1.068,1.28201474989871,5893.447817813229
1.072,1.337876114415794,5899.105659958643
1.076,1.3879764120482596,5897.082595045269
1.08,1.4247480032770021,5899.977838381994
1.084,1.4442767177582108,5903.9649592369615
1.088,1.4466536972338364,5903.806559326602
1.092,1.4353365602240244,5902.305615409241
1.096,1.4157907679426218,5891.47329747171
1.1,1.3938218883373692,5891.427101390687
1.104,1.3740212185771556,5898.874738168372
1.108,1.3587076752536802,5898.884673076003
1.112,1.347698320760164,5893.774201785969
1.116,1.33904047144539,5900.99694279067
1.12,1.330415420365792,5907.423421705101
1.124,1.3205439970250372,5901.868627521503
1.128,1.3099199296685538,5889.874993276964
1.132,1.300535426526618,5902.752114997807
1.136,1.294698635472942,5896.205443382745
1.14,1.2934537092302896,5897.692279630719
1.144,1.295376857963657,5896.345314759249
1.148,1.296415864350274,5906.730187979372
1.152,1.2909798506827816,5897.481169001028
1.156,1.2739690997239619,5896.613307429117
1.16,1.2430539511047654,5896.129369969136
1.164,1.2002997549124563,5903.781790947543
1.168,1.1523384319876928,5902.614987682135
1.172,1.1088435490504487,5906.52903892835
1.176,1.0798337602581844,5891.215507152958
1.18,1.0728139763485907,5903.782769382708
1.184,1.0907228870121377,5904.099713663707
1.188,1.1312454940721506,5901.515092885201
1.192,1.187525708396101,5901.722937161997
1.196,1.2498654564588445,5901.925797246342
1.2,1.3077872119747767,5901.802069138328
1.204,1.3519179603686615,5902.954912515419
1.208,1.3754037598123154,5907.058760491689
1.212,1.3748274503152675,5906.272074384967
1.216,1.350729231721354,5896.86832148105
1.22,1.3077072813501298,5905.876726571301
1.224,1.2538269590443456,5897.780800873924
1.228,1.1990471726393965,5903.118642825464
1.232,1.1527772868516208,5906.685486572927
1.236,1.1212888580654359,5903.509874045949
1.24,1.1060658390195708,5899.746001026666
1.244,1.1039292718424316,5911.008427201192
1.248,1.10893625615702,5899.641379484684
1.252,1.1151207067148368,5897.199371412772
1.256,1.1187771172304857,5891.676961559772
1.26,1.1194010584126068,5906.580117626424
1.264,1.1191599765319338,5898.041304369093
1.268,1.121347920245272,5892.041124779483
1.272,1.1285416977586622,5898.627590628576
1.276,1.141208449002166,5900.0863422431485
1.28,1.1573290145352986,5912.351976275631
1.284,1.173187903182466,5906.171839842214
1.288,1.184951343696508,5898.619188326432
1.292,1.1902592281432056,5898.1253785966
1.296,1.1890597175753128,5906.654592026409
1.3,1.1833807571073414,5907.640509020046
1.304,1.176369764281722,5901.393182209383
1.308,1.1712534452465577,5899.341435593661
1.312,1.170658231588135,5899.67693084995
1.316,1.1762825382145996,5899.892510746187
1.32,1.188672462602174,5908.938074364298
1.324,1.206968215410877,5896.240684142293
1.328,1.2287497212910312,5897.626563545749
1.332,1.2501982072167646,5904.326418617085
1.336,1.2666106389671172,5911.5751100483085
1.34,1.2730983095222432,5908.244632281391
1.344,1.2653151193775534,5900.502026478217
1.348,1.2402167340318822,5901.478588899025
1.352,1.196918058629906,5900.898890685092
1.356,1.1375922235172073,5888.458985506795
1.36,1.06809013356395,5898.667291468388
1.364,0.9977501727944343,5901.071995682362
1.368,0.9379992708827967,5905.299511066769
1.372,0.899888586923189,5894.924675264521
1.376,0.8913104744245401,5898.074184578643
1.38,0.9148697491865813,5906.570850148078
1.384,0.9671367465811094,5897.158862426467
1.388,1.0394813996488212,5897.261974830887
1.392,1.1201005781197864,5905.728687898605
1.396,1.1964698560927083,5910.640685224577
1.4,1.2575118015592315,5897.975757534008
1.404,1.2951706428454899,5895.576142298982
1.408,1.3053902132133224,5905.794617089083
1.412,1.2884767141989422,5899.185215078396
1.416,1.2487295196496735,5895.66186480667
1.42,1.1933463825838215,5900.443246559576
1.424,1.1308727111093166,5901.286863687568
1.428,1.0695769345081536,5902.248396339565
1.432,1.0160402586041835,5915.907966137966
1.436,0.9741480340245383,5909.45226509981
1.44,0.9446765889428743,5911.594966250868
1.444,0.9256729634747792,5899.672950470563
1.448,0.9136619856671683,5898.510048218787
1.452,0.9053738301028283,5902.42118001176
1.456,0.8993556119057062,5905.126639635867
1.46,0.896758177884194,5901.069968560121
1.464,0.9008704118726167,5897.399262352426
1.468,0.9155163558731413,5908.633644028065
1.472,0.94299495191048,5901.573200037512
1.476,0.9824886745471721,5905.658506631996
1.48,1.029618805589193,5902.470978767479
1.484,1.0772823274938503,5899.26776410973
1.488,1.117406692497912,5897.561932009792
1.492,1.1429875916908296,5896.720977434378
1.496,1.1497941991474006,5909.209940555186
1.5,1.1373799166775624,5898.562457478635
1.504,1.1092805566344608,5906.401196942368
1.508,1.0723454597126088,5902.897252906551
1.512,1.035204101588743,5897.063956463876
1.516,1.0061445688222443,5898.498035386036
1.52,0.9910237985265182,5902.686971077538
1.524,0.9918986693311395,5900.735280173084
1.528,1.0067674360710641,5903.870882785263
1.532,1.0303542178900933,5903.088497451512
1.536,1.0555267038323901,5902.836902586904
1.54,1.0748727526700743,5897.082013518411
1.544,1.08215414810414,5901.680616562384
1.548,1.0735722336833984,5898.304164251396
1.552,1.0487603475247134,5904.777798429693
1.556,1.0111958733379514,5907.22148413163
1.56,0.9676500116953293,5899.079517544687
1.564,0.9266072059021673,5900.890607134488
1.568,0.8960795013015965,5912.429165735089
1.572,0.881514275445154,5902.080425828251
1.576,0.8844261806933584,5906.488158903666
1.58,0.9021174287689169,5904.418678079623
1.584,0.9285118626618544,5905.157948431943
1.588,0.9558148262151919,5912.163949978109
1.592,0.9765173452443728,5905.868465608703
1.596,0.9851861284360454,5904.907745797264
1.6,0.9794998731230541,5905.88268657765
1.604,0.9602124491914019,5906.270710872014
1.608,0.9302055863716032,5898.490515444109
1.612,0.8932754710499913,5896.958702135718
1.616,0.8533413049084384,5899.586545637467
1.62,0.814290974682989,5900.913019823758
1.624,0.780135182353227,5904.181509598214
1.628,0.7549768605587404,5900.343859913526
1.632,0.742520014279493,5906.418798589909
1.636,0.7451676189521662,5909.037418116556
1.64,0.7630022429064389,5911.763586542294
1.644,0.7930611374208533,5905.7245309931
1.648,0.8292930549194649,5917.288004715844
1.652,0.8634114041369639,5899.693868907794
1.656,0.8865873938141863,5907.680709321173
1.66,0.8916238784705874,5905.945412854854
1.664,0.8749886565138975,5900.242213090575
1.668,0.8380101531281362,5902.00246214166
1.672,0.7867726301932745,5908.075872500421
1.676,0.7307108350305049,5912.001716750177
1.68,0.6803536015769727,5891.677786194181
1.684,0.6449002802967622,5897.813516522395
1.688,0.6302858690185233,5905.718135230369
1.692,0.6381807870413134,5899.946731969264
1.696,0.66606416202128,5905.758963054907
1.7,0.7081680159922867,5896.543756243284
1.704,0.7568537224767676,5905.056466483164
1.708,0.8040054967326021,5903.517658812482
1.712,0.8422628762884534,5911.508515342615
1.716,0.8661147683462466,5900.870677166488
1.72,0.8728422924395564,5903.430885843275
1.724,0.8630856663992329,5906.756711263771
1.728,0.8406825125770652,5900.113014538731
1.732,0.8116047144062395,5908.933397299216
1.736,0.7822724397716987,5907.121257955023
1.74,0.7579132099197294,5905.052171052578
1.744,0.7416171207443406,5900.720462738573
1.748,0.7343367409084162,5909.738543322674
1.752,0.7356075929780406,5913.603088658156
1.756,0.7444729709879366,5917.257288776256
1.76,0.7600829916151637,5907.967439858995
1.764,0.781714558404911,5912.358003653119
1.768,0.8083736133056058,5905.628243353629
1.772,0.8383838856366028,5907.944119717121
1.776,0.869238683081567,5910.430748737349
1.78,0.8976730681473636,5904.324502946093
1.784,0.9198193468005187,5902.694059721492
1.788,0.9315337481202062,5907.8834486459855
1.792,0.9291124841980711,5904.333889083697
1.796,0.9103671533289206,5913.481197320448
1.8,0.8756843499822629,5905.082633702237
1.804,0.828597698765293,5912.58332504451
1.808,0.7755239356234083,5900.773133637915
1.812,0.724546755492744,5899.414878945338
1.816,0.6834844578958992,5904.568517300595
1.82,0.6578436342815841,5898.100090424088
1.824,0.6493754947171311,5907.458696680416
1.828,0.655701047780808,5904.918025510374
1.832,0.6710421427113616,5907.255931829633
1.836,0.6877586181903413,5901.698750004229
1.84,0.698253789168862,5912.064490538972
1.844,0.696804561612329,5913.334589640705
1.848,0.6809220130145396,5907.97730944626
1.852,0.6519628255949983,5903.7258730679205
1.856,0.614900102545489,5912.497560381842
1.86,0.5773318008361065,5907.428742769174
1.864,0.5478843328222065,5902.574123018464
