时间(s),电压(V),幅值(高频80K)
0.0,1.1967438284516738,5902.723413759638
0.004,1.1795623960391388,5898.585287381096
0.008,1.1610612194655454,5905.982987858703
0.012,1.1404872669023818,5901.331351024815
0.016,1.118497078883157,5898.128371815691
0.02,1.0970072485835232,5907.908074001647
0.024,1.0786504487661586,5893.411687174857
0.028,1.0661703997924947,5903.797800522932
0.032,1.0618489330172938,5898.413521368189
0.036,1.0669300314046364,5902.0416274068375
0.04,1.081187602988887,5899.910390441423
0.044,1.102954674953226,5903.34246207473
0.048,1.1297086155027405,5904.63735667031
0.052,1.1588343590188508,5912.175551505709
0.056,1.1880057640828212,5903.670214494035
0.06,1.214976430296064,5902.139881171126
0.064,1.2371014094951447,5902.873119729551
0.068,1.2511227958147804,5904.196205289762
0.072,1.2535402693082032,5899.396152988034
0.076,1.2415335545945203,5910.864035134294
0.08,1.214172036762553,5893.684326132056
0.084,1.1735227361439864,5896.549216338166
0.088,1.125150231291,5895.781558673194
0.092,1.07752853976269,5898.026388150831
0.096,1.0402670191541403,5901.483278458409
0.1,1.0216334622092043,5891.55292418529
0.104,1.0262195497266118,5897.429183908878
0.108,1.0535547941384824,5896.740948411421
0.112,1.0981435270652,5902.955855812224
0.116,1.1509052575329637,5889.266640185577
0.12,1.2015019972947567,5896.946447778542
0.124,1.2407904005519457,5900.296949631827
0.128,1.2627443665399694,5901.4437716472685
0.132,1.2654718147884907,5899.464697744591
0.136,1.2512028751922082,5894.839094810546
0.14,1.2253422892416475,5904.049757427001
0.144,1.1948640191504871,5908.173939388074
0.148,1.1664301518810412,5900.516916583149
0.152,1.1446668264643116,5903.9160041098285
0.156,1.1310844319955522,5897.513201968379
0.16,1.1240674975159142,5896.87545106877
0.164,1.119996585712008,5897.629119766575
0.168,1.115014239376013,5895.702671558151
0.172,1.106620287765493,5903.09854270413
0.176,1.0944381388233837,5903.724478259919
0.18,1.0799851962727796,5900.982650414885
0.184,1.0657664029898126,5899.926827789776
0.188,1.0542410766189536,5902.893125111513
0.192,1.0471307791895597,5896.755685309494
0.196,1.0452544736191416,5900.711664209994
0.2,1.0487695201506546,5896.057170066698
0.204,1.0574910727990061,5903.229838275286
0.208,1.0709611803720576,5904.890858972306
0.212,1.0881765628351587,5905.19674600378
0.216,1.1072025102412089,5896.965404303051
0.22,1.1250475388598697,5895.567645292314
0.224,1.1380608983695744,5894.638740841696
0.228,1.1428521038754356,5899.244745976517
0.232,1.137449797711347,5896.961677279958
0.236,1.1222165170279648,5902.524858044142
0.24,1.1000477018541883,5889.0760195039975
0.244,1.0756817550368154,5897.351400281084
0.248,1.0543835201448288,5892.134878621522
0.252,1.0405361938888709,5898.787502566378
0.256,1.0366254454230968,5902.753210576818
0.26,1.0428382442567237,5894.717659629591
0.264,1.0572433378396227,5906.250199453277
0.268,1.0763688942640526,5909.9225628686
0.272,1.0959363758694314,5899.480822740961
0.276,1.1115681719265293,5897.153864763159
0.28,1.1194583381591823,5898.856503390956
0.284,1.1170952292946852,5896.031699440314
0.288,1.1039572745162005,5888.129298905744
0.292,1.0818387344174474,5906.227799175026
0.296,1.0544944549979676,5894.813176789545
0.3,1.0266758334710124,5897.095814598424
0.304,1.0029827982623403,5901.670530477217
0.308,0.9869521314498372,5899.213007129722
0.312,0.9805108931544456,5908.91287982081
0.316,0.9836781091127921,5905.765315902862
0.32,0.994449098665246,5891.986172353249
0.324,1.0090417809097003,5899.055889568172
0.328,1.022748248978153,5902.541336693069
0.332,1.0313180495932888,5898.921030052856
0.336,1.0323476789466597,5904.39091685903
0.34,1.0259961965962838,5894.650333347263
0.344,1.0146692194747378,5890.966582007203
0.348,1.0018859518232526,5908.604468016063
0.352,0.9909560088008491,5899.923996907864
0.356,0.9841002264700314,5896.901294679742
0.36,0.9823098286979735,5908.514953249624
0.364,0.9857923068054483,5908.5293169614815
0.368,0.9945585735648584,5903.000023547064
0.372,1.0087071007220967,5903.081689751133
0.376,1.0282166324284676,5893.107251273938
0.38,1.0524074415627187,5886.735610039793
0.384,1.0794774434927181,5894.119185948747
0.388,1.1064942237461988,5893.373224327321
0.392,1.1299255969175253,5901.206019765369
0.396,1.1464695143506942,5903.525058367487
0.4,1.1538423631125632,5899.72056221033
0.404,1.151269007699,5900.221975434476
0.408,1.139544525685094,5898.558388564999
0.412,1.1206861147461762,5904.551650787264
0.416,1.097354895633208,5902.533531772453
0.42,1.0722978585640435,5902.56309906445
0.424,1.0479800747846337,5906.143545475812
0.428,1.0264225972022356,5908.958194456841
0.432,1.0091586585770063,5899.9982245672645
0.436,0.9972284286761149,5894.648700349789
0.44,0.9912028912679388,5904.600837449994
0.444,0.9912634113426905,5891.141656319651
0.448,0.9973258777663642,5888.184789948271
0.452,1.0091517945185025,5890.369105439961
0.456,1.0264041092188438,5894.378320253845
0.46,1.048649618926038,5904.599924758809
0.464,1.0753028757603744,5900.308880427665
0.468,1.1054521822709282,5904.939705486555
0.472,1.137519450130231,5896.525864874911
0.476,1.16887285635247,5895.980169307211
0.48,1.1957061472152195,5904.358921846537
0.484,1.2134476890118253,5902.99633390083
0.488,1.2176465134946062,5904.865729563235
0.492,1.2050288453804447,5901.2839020949605
0.496,1.1744358758350097,5891.670689885171
0.5,1.1274834340108817,5905.598582974164
0.504,1.068827499798133,5899.131027063128
0.508,1.0058775276308798,5898.181855816185
0.512,0.9477836531878074,5900.817712768932
0.516,0.9036805018962129,5892.59164134201
0.52,0.8805494446973053,5895.9570730418245
0.524,0.8814260596624545,5904.282374412317
0.528,0.9046856860804642,5907.316519466898
0.532,0.9447155380462353,5906.0735012039
0.536,0.9936658322269917,5887.319803773789
0.54,1.04351889514597,5899.367995359303
0.544,1.0877072611878507,5897.514922129628
0.548,1.1219255314271852,5897.475028063322
0.552,1.1442473757013223,5908.624457075377
0.556,1.1548360514463412,5901.570089353259
0.56,1.1554392998991851,5901.482951546681
0.5640000000000001,1.148740111193229,5896.271137576852
0.5680000000000001,1.1376564814569845,5907.155372527167
0.5720000000000001,1.1247795878053886,5900.867812967926
0.5760000000000001,1.1121350878546583,5893.625018491065
0.58,1.1012771096324956,5901.399546807558
0.584,1.0934990632710693,5899.063464698232
0.588,1.0898512151976099,5895.794859621618
0.592,1.0907872324678318,5902.67478307801
0.596,1.0955853022865043,5904.208807389774
0.6,1.102000909811989,5903.610226641444
0.604,1.1066027403344076,5893.624377657298
0.608,1.1058334376380852,5893.032882660142
0.612,1.0973455762853201,5899.334729259112
0.616,1.0809894289548199,5899.495751066804
0.62,1.0590283899654755,5903.091956161529
0.624,1.03550408703469,5904.818745636634
0.628,1.0149800674591278,5910.01143671089
0.632,1.0011078850305357,5902.427102564921
0.636,0.9955373936059071,5897.0454745694215
0.64,0.9975622087542794,5914.9993978111015
0.644,1.0045768454208743,5908.500069086237
0.648,1.0130853717613313,5899.198212153004
0.652,1.0198054489246762,5893.398067755685
0.656,1.022418977062935,5899.292696847772
0.66,1.0197131531628636,5895.492689660201
0.664,1.0111632074942307,5897.991036928275
0.668,0.9963094617154188,5904.21151739103
0.672,0.9744228182041302,5905.03217037852
0.676,0.9448093322023253,5900.313306429435
0.68,0.9076944040521977,5897.478650593112
0.684,0.8651797881741808,5902.322098145737
0.6880000000000001,0.8216083297060514,5903.990014233418
0.6920000000000001,0.7829707297523472,5894.826274010942
0.6960000000000001,0.7555551232566289,5890.199569770605
0.7000000000000001,0.7444245101894409,5903.624814915405
0.704,0.7522482241836999,5901.889164351558
0.708,0.7787196665935565,5905.662728140368
0.712,0.8206100131834855,5900.320891660048
0.716,0.8724713512681568,5898.303486262291
0.72,0.9279116570452541,5892.153800438928
0.724,0.9811361491470854,5906.779606412713
0.728,1.0282372301539129,5896.891065466633
0.732,1.0677439027784768,5901.952907286767
0.736,1.100266547161587,5907.286457167469
0.74,1.1274877849600822,5893.385694870486
0.744,1.1509801689106451,5900.66921221863
0.748,1.1712938281203358,5900.551017540529
0.752,1.1875809494419944,5896.264682232732
0.756,1.1978422912742903,5896.164957393324
0.76,1.1996999292730102,5893.5900067647735
0.764,1.1914206956900353,5894.129726013519
0.768,1.1728357580897868,5898.534611739863
0.772,1.1458685688738397,5904.999553223757
0.776,1.1144865740950254,5902.551849824336
0.78,1.0839734363067852,5897.631666191859
0.784,1.059596569183918,5894.490345988716
0.788,1.0450721064193167,5905.52381975142
0.792,1.0414792116759484,5899.07139961929
0.796,1.0471422219864368,5911.657006260301
0.8,1.0584860130420997,5900.406423053109
0.804,1.0713625587742803,5905.441346391111
0.808,1.0822215321138793,5897.426177266028
0.812,1.0887357985577868,5896.486045179602
0.8160000000000001,1.0898114966330459,5894.501147855293
0.8200000000000001,1.0851616636150356,5905.566654500453
0.8240000000000001,1.074795799728092,5904.961219986723
0.8280000000000001,1.0587724063370594,5900.802955806999
0.8320000000000001,1.0372989776829402,5900.4509771553685
0.836,1.0109665952222169,5901.61178921069
0.84,0.9808773916451445,5898.570916424784
0.844,0.9486210306438273,5900.770555957817
0.848,0.9162032740432156,5895.95075553967
0.852,0.8860201100483173,5901.612873520466
0.856,0.8608895333406456,5901.043544213591
0.86,0.844054267577141,5888.697215916638
0.864,0.8389790558667914,5900.837788434906
0.868,0.8487719131835675,5893.187119000294
0.872,0.8752420121706771,5889.69077845509
0.876,0.9179236507592787,5894.480249446652
0.88,0.973626248514025,5906.040667567004
0.884,1.036946305356029,5902.882654836546
0.888,1.1016616874305467,5902.143764073641
0.892,1.1623393331769596,5901.347749551202
0.896,1.2152839211991944,5900.494538275297
0.9,1.2583760053620934,5895.601325129768
0.904,1.2901469342509155,5897.6797414943885
0.908,1.308976419825788,5902.972899703892
0.912,1.31312357777413,5897.49803343777
0.916,1.3016180964245265,5904.711960090022
0.92,1.2754163307486182,5905.559817536007
0.924,1.2380384341517927,5907.109660064038
0.928,1.1951920498037198,5895.793890619591
0.932,1.1534458371922047,5896.813300184596
0.936,1.1184740282740417,5891.835257925344
0.94,1.0935346372453594,5894.699384787579
0.944,1.0787314122189533,5902.4644911777405
0.948,1.071339930633808,5892.538908112862
0.952,1.0670940330175824,5900.187486332385
0.956,1.0619527275615597,5901.728232808781
0.96,1.053676722358608,5899.4379694185545
0.964,1.0426192421019287,5904.86871474211
0.968,1.0314390109762175,5901.61202748812
0.972,1.0238849513275339,5907.068253971231
0.976,1.0232234252651324,5889.88564456942
0.98,1.0310432083666912,5905.172754704799
0.984,1.0469499483187568,5902.338420302755
0.988,1.0691731329622136,5899.168628203634
0.992,1.0956331652153286,5901.930836356009
0.996,1.1248194565515937,5894.787985646249
1.0,1.1560207684745407,5901.889893985198
1.004,1.1888639960353993,5898.945799482045
1.008,1.222451731039617,5903.988019655136
1.012,1.254523407464316,5903.335350433008
1.016,1.2811017768992032,5898.444376714843
1.02,1.2970368782839334,5903.586861023537
1.024,1.297574053764294,5901.904722403325
1.028,1.2805260579692477,5910.182364000709
1.032,1.2480930473436571,5903.925335139557
1.036,1.2072720095387846,5893.826524983072
1.04,1.1683489651109444,5895.987272664655
1.044,1.1419097404709109,5902.561156130751
1.048,1.135558158074883,5891.510335393131
1.052,1.151659473385595,5901.729623145096
1.056,1.1869065414594222,5904.655955578947
1.06,1.2336710434569134,5900.377037982005
1.064,1.2824107820810193,5897.020936502584
1.068,1.3241432775186317,5898.902899282193
1.072,1.3521732656528254,5896.069432049036
1.076,1.362736340930148,5900.363629310757
1.08,1.3547739507933632,5903.468594331348
1.084,1.3293781200198123,5896.438656780685
1.088,1.2893417769180524,5901.661215826817
1.092,1.2388832606001412,5904.698818733407
1.096,1.1833321509053691,5901.086868587258
1.1,1.1285374716911103,5907.793856093951
1.104,1.079936586198959,5898.157714394903
1.108,1.0414911394560888,5900.450507504812
1.112,1.014895459604625,5898.563436946733
1.116,0.9994216073236388,5900.9077281075815
1.12,0.9924707566888548,5896.880529706795
1.124,0.9905475841407688,5900.213075372261
1.128,0.9902219646970915,5896.6829372672455
1.132,0.9887938437684004,5905.7589862229925
1.136,0.9846524758588663,5901.03513774368
1.14,0.9774508094423757,5898.05698411132
1.144,0.9681564561786464,5899.743695961394
1.148,0.9589475389063548,5902.208716624484
1.152,0.9528960248573713,5898.895304774148
1.156,0.9534029663108912,5898.653488783547
1.16,0.9633926994255152,5901.1453866339625
1.164,0.9843818365087226,5902.140533965009
1.168,1.0157321287012868,5893.224382505139
1.172,1.0544966279897212,5904.644208108318
1.176,1.0960418483019474,5897.597447287145
1.18,1.1351712571886297,5897.34458319622
1.184,1.167205613569282,5904.259708710442
1.188,1.1886291083036586,5902.497653277709
1.192,1.197277992349214,5899.962607228365
1.196,1.1922893318683614,5910.458428703869
1.2,1.174019644459255,5901.417532065316
1.204,1.143989018785426,5904.594811687433
1.208,1.104790437941221,5896.22957388211
1.212,1.0599402030894325,5903.945269473668
1.216,1.0137383215902787,5896.501883354888
1.22,0.9711544246369979,5902.381983075477
1.224,0.937564075359001,5892.936178753606
1.228,0.9181011476623131,5901.915244382795
1.232,0.9166199799538968,5900.383949268368
1.236,0.9345819705076136,5898.31237143644
1.24,0.9702993250428968,5903.559012218863
1.244,1.018822441223309,5897.728048067851
1.248,1.072525275471906,5903.254992209072
1.252,1.1223013149950258,5899.661910637986
1.256,1.159225466473657,5913.242245173594
1.26,1.1764443476206952,5894.33290232932
1.264,1.1708974561676158,5901.0146027276905
1.268,1.144353208588987,5888.3303289419855
1.272,1.103291667078234,5897.735284621511
1.276,1.05744316250474,5903.664898306096
1.28,1.0172774034852485,5894.086524692068
1.284,0.9912337855949931,5905.578504931423
1.288,0.9836536348631925,5900.860408326432
1.292,0.9940522735545781,5902.302284763921
1.296,1.017773500905134,5910.4746166195
1.3,1.0476031579772604,5908.87272756117
1.304,1.0757782911482314,5896.107041928001
1.308,1.0958990771901702,5901.494336805789
1.312,1.1043493662231731,5891.921827743724
1.316,1.1009228437426029,5902.236364333185
1.32,1.0885020084377048,5903.438134494727
1.324,1.0718794574260533,5904.011441833324
1.328,1.0560870251415755,5901.660739399335
1.332,1.0447859698716013,5905.536065202286
1.336,1.039266099565772,5899.120391978762
1.34,1.0383806482208429,5908.066145840203
1.344,1.039372973921567,5906.704444294403
1.348,1.0391865194130456,5901.827860466791
1.352,1.0356974758790445,5898.177624075593
1.356,1.0284594947820793,5903.359570780394
1.36,1.018844434210539,5890.440307835006
1.364,1.0096530931338914,5898.536724730763
1.368,1.0042971722739844,5894.105945285611
1.372,1.0056939445915354,5906.800353619316
1.376,1.015193556669076,5889.088741164012
1.38,1.0319939780817833,5901.586847925276
1.384,1.0533087551167764,5887.698250460417
1.388,1.07512216086367,5905.332901643409
1.392,1.0931209068866805,5899.55976076125
1.396,1.1035223198361113,5902.202193950393
1.4,1.1037504429463132,5890.410970266614
1.404,1.092968709236184,5893.590347235428
1.408,1.0724216259488564,5905.452334248988
1.412,1.0455035866134916,5898.005925275325
1.416,1.0174598180771863,5892.751262297672
1.42,0.9946446226460501,5907.818832524024
1.424,0.9833594910347663,5893.73771029027
1.428,0.9884239401050061,5893.181768433237
1.432,1.0117454907571526,5907.289179042302
1.436,1.051268858581966,5896.46600798598
1.44,1.100757679253604,5901.223732037137
1.444,1.150753461287844,5907.627942931556
1.448,1.1906804326631586,5898.277731519659
1.452,1.2115643427646898,5891.862457841295
1.456,1.2085132508691565,5892.785173097551
1.46,1.182142238322503,5895.873240717445
1.464,1.1384522830687624,5899.133948424491
1.468,1.0871806754817215,5902.541641703513
1.472,1.0391800257313635,5892.14924838693
1.476,1.0036976185858764,5895.554662490922
1.48,0.9863460354637645,5896.417711918147
1.484,0.9882082959180936,5895.381936081488
1.488,1.0061523801276082,5900.777025689062
1.492,1.0341413711687124,5904.631848572747
1.496,1.0651078953057254,5895.482352995596
1.5,1.0928317867082542,5903.832308043679
1.504,1.1132691109366253,5900.998387792679
1.508,1.1249780579826756,5896.079669835913
1.512,1.1286527895537375,5902.38288042379
1.516,1.1261335072283487,5903.011297033541
1.52,1.1193910296201899,5896.751357268182
1.524,1.1098746332514948,5896.56440366013
1.528,1.0984107463816295,5893.02087323929
1.532,1.0856137349754023,5899.102315753643
1.536,1.0725336908045997,5896.098492673422
1.54,1.061131956526938,5897.767933627252
1.544,1.0542560226101314,5894.619863893868
1.548,1.0550389675817373,5894.737156905248
1.552,1.0659192484145492,5901.536828180729
1.556,1.0876356877229791,5896.348423219569
1.56,1.118566945465141,5906.95112628247
1.564,1.1546845148524767,5894.449141824958
1.568,1.1901947986713446,5900.508316034156
1.572,1.2186905757990025,5900.417362087804
1.576,1.234446544950892,5900.139507586593
1.58,1.2335240956714375,5897.992369773614
1.584,1.214543282568162,5905.241131122397
1.588,1.1791144240961855,5896.709371815379
1.592,1.131879150609537,5907.586968716404
1.596,1.0800050283892457,5897.537839726667
1.6,1.0320252466457598,5898.223099048146
1.604,0.9961814366780906,5905.809598614103
1.608,0.9787081473474791,5895.589747728208
1.612,0.9825439273329062,5910.003294852019
1.616,1.0067800672564247,5901.309374138354
1.62,1.0469482063776818,5894.64569345867
1.624,1.0960642045948357,5890.303452093864
1.628,1.1461308171995221,5904.496807529928
1.632,1.1896087696585742,5901.034747875624
1.636,1.2203838039873072,5900.173034235545
1.64,1.234066073228103,5901.444589131021
1.644,1.2278704722352154,5895.952684131041
1.648,1.2005323423451602,5902.417046746616
1.652,1.1525537483627728,5903.381718374056
1.656,1.0866806990891915,5898.0842157299085
1.66,1.0081920008736265,5913.4070898580485
1.664,0.9245787403145922,5911.118524961409
1.668,0.8445100089457122,5900.155096923581
1.672,0.7763918634781066,5907.521221699589
1.676,0.7270451365766188,5909.514499776613
1.68,0.7008916916501929,5892.738324081613
1.684,0.6996472327990225,5896.718781113666
1.688,0.7222117665658013,5905.421445567193
1.692,0.7645395340581121,5903.610463392179
1.696,0.8196878831114783,5909.910460263074
1.7,0.8785250913695575,5900.4888992292645
1.704,0.9313524091477771,5899.2673433708405
1.708,0.97011253623716,5905.521397275099
1.712,0.9903824569062,5890.430965175198
1.716,0.9923012564445267,5899.304779329988
1.72,0.9799881181195994,5896.184588006021
1.724,0.9596898101340183,5903.057785569627
1.728,0.9375074766530943,5892.941578676304
1.732,0.917679666140403,5896.689632276309
1.736,0.901969252785949,5904.40746928812
1.74,0.8901086626687003,5906.548835434714
1.744,0.8808958074376463,5909.162101241267
1.748,0.8734275436280344,5906.998903879646
1.752,0.8679710007712343,5902.805006212242
1.756,0.8660858499141384,5893.680885683451
1.76,0.8698791784074994,5893.126698674038
1.764,0.8806798759789721,5897.174033637978
1.768,0.8977737231909534,5901.581864822051
1.772,0.9178765153883874,5898.145610710037
1.776,0.9356859211484382,5903.38158695882
1.78,0.9453818914362481,5898.524462616265
1.784,0.9425793608827442,5908.911712412762
1.788,0.9260477285518344,5906.599557208756
1.792,0.8985347556631713,5897.48193751075
1.796,0.8663112081153174,5906.415273121228
1.8,0.8375169183374819,5901.325330254151
1.804,0.8198408522956369,5905.702272526802
1.808,0.8183135079593871,5900.516494785758
1.812,0.8339411170902601,5894.786442644073
1.816,0.863598016513605,5908.66523445267
1.82,0.9011390565795735,5905.326017073961
1.824,0.9392576085917808,5896.653210339235
1.828,0.9713727000031972,5896.568870416324
1.832,0.9929372053792711,5895.844944252369
1.836,1.0019554540615272,5902.454651522905
1.84,0.9988574296283946,5900.495236568037
1.844,0.9859785983828783,5897.2141664747605
1.848,0.9668359118370682,5908.363361738008
1.852,0.9453187787612032,5899.441348450071
1.856,0.9248698800567219,5910.8528592055845
1.86,0.9077601322005023,5898.674278374563
