时间(s),电压(V),幅值(高频80K)
0.0,1.0063717766812208,5897.980174419254
0.004,0.9837309227080727,5896.814539971719
0.008,0.9638926862025419,5906.535822148254
0.012,0.9496005429983414,5898.833788934728
0.016,0.9423192944274225,5901.926845536883
0.02,0.9418558253321618,5902.162671145701
0.024,0.9464538763441221,5887.522480913074
0.028,0.9533849233696452,5895.459009512069
0.032,0.9597700893256497,5893.258947065926
0.036,0.9633415679439575,5905.3980013904265
0.04,0.9630340305843165,5897.658329218829
0.044,0.9593460854804221,5900.042915242605
0.048,0.9542596048021997,5902.72731010236
0.052,0.9504861575882669,5896.57280220957
0.056,0.9501660504398292,5903.114686764673
0.06,0.953667947048348,5897.726230320476
0.064,0.9593245530230636,5911.1662809821455
0.068,0.9644616044325718,5902.357135184481
0.072,0.9672030564841667,5902.124650371384
0.076,0.967976265637849,5908.149624376209
0.08,0.9698219260857744,5904.182957112019
0.084,0.977306070651498,5897.912517425898
0.088,0.9945240329135083,5892.15287313981
0.092,1.0230455641304794,5906.023598614761
0.096,1.060632288408741,5896.66154893006
0.1,1.1012731792067532,5905.669608465586
0.104,1.1366074527553496,5900.969976063537
0.108,1.1582169388837278,5903.357395314713
0.112,1.1598696487261129,5897.474606837701
0.116,1.1389288358137593,5903.118388688416
0.12,1.0967016973166848,5891.652539960554
0.124,1.0379676664565098,5896.00221312294
0.128,0.9700035966290012,5904.397057597128
0.132,0.9013320617480026,5915.692794314761
0.136,0.8404331025837922,5894.829434285465
0.14,0.7946811403088805,5898.070052713834
0.144,0.7695991313405551,5899.799098049395
0.148,0.7682849871901718,5906.052549457446
0.152,0.7908602353912307,5902.42081452986
0.156,0.8340822198476914,5897.858266893634
0.16,0.891552910100407,5892.798785350706
0.164,0.9548400812090548,5905.412198416303
0.168,1.0152685137560524,5908.8499366625565
0.172,1.065666723180135,5897.536276758144
0.176,1.1014584004424337,5902.954450277345
0.18,1.1209903554962506,5904.6490247507445
0.184,1.1253256798169695,5891.878289977147
0.188,1.117687876661458,5903.270567771519
0.192,1.1026021231054406,5899.057212477419
0.196,1.0848178936273651,5893.608569867856
0.2,1.0682457436775081,5898.114236711675
0.204,1.0552090582465845,5904.273406768978
0.208,1.046239809397604,5904.049343012538
0.212,1.0404625994840555,5896.388949014407
0.216,1.0363653846203977,5909.558677576439
0.22,1.0325741736562484,5902.539923948614
0.224,1.0282707558983308,5905.604663834257
0.228,1.0231117766153446,5909.023935509786
0.232,1.01678140660394,5896.651812437158
0.236,1.0085133167155087,5902.562300165656
0.24,0.9969837265195975,5899.347123907634
0.244,0.9808321913831843,5900.528715945401
0.248,0.9596997635153388,5898.397039439418
0.252,0.9352665293210842,5900.833241035984
0.256,0.9116130882922648,5902.108861387696
0.26,0.894475349541064,5893.524792951459
0.264,0.8894886986826076,5906.360369775053
0.268,0.9000375533494956,5899.195982158142
0.272,0.9255874636477287,5893.351871303108
0.276,0.9612647258388041,5904.084430416524
0.28,0.998984472585499,5910.358488439469
0.284,1.0297966786794033,5907.938891041214
0.288,1.0466289002671507,5898.707413409041
0.292,1.0464672752175141,5902.396988963358
0.296,1.0312220200458402,5892.833003763966
0.3,1.0069725879630937,5900.035153791192
0.304,0.9818769770737856,5903.195894364229
0.308,0.9635404432970069,5906.60227586675
0.312,0.9567851043614259,5900.874467298564
0.316,0.9624821864965015,5894.715506732046
0.32,0.9776452481087421,5901.35950627211
0.324,0.996574552904804,5898.195754089401
0.328,1.0125565262614336,5903.624281685408
0.332,1.0195298313651635,5896.263253952807
0.336,1.0133120374630376,5905.801129616739
0.34,0.9923056726998886,5890.784230916748
0.344,0.957796927896716,5896.585112732028
0.348,0.9139103727870875,5889.90804390909
0.352,0.8671206172544774,5905.039926837282
0.356,0.8251810016380605,5887.810643879099
0.36,0.7955254721602955,5899.0489245435965
0.364,0.7835028643918052,5901.118634187302
0.368,0.7909892980823393,5891.676503850773
0.372,0.8159018089097786,5898.750772582383
0.376,0.8529050272466177,5894.071741139655
0.38,0.89514712179476,5901.267284616905
0.384,0.9363163692397112,5896.784636269525
0.388,0.9720939402615246,5901.7727923157
0.392,1.0004883923874783,5901.647521693604
0.396,1.0212593163092727,5906.000849953189
0.4,1.0350485490151455,5903.432713461372
0.404,1.0427278330682075,5901.8409065547385
0.408,1.0451188242025282,5898.944851205717
0.412,1.0429465269031986,5901.082055393295
0.416,1.0367911976780204,5913.318701383017
0.42,1.0269348197345334,5909.011214437438
0.424,1.0132253309101882,5898.57522244954
0.428,0.9951832370419492,5905.4908607912375
0.432,0.9724678297365763,5909.876443135632
0.436,0.9456004062196979,5907.795948481026
0.44,0.9166318108523923,5909.52409388955
0.444,0.8893391893433616,5892.053114500054
0.448,0.8686451721594272,5902.814989745043
0.452,0.8592895292326371,5904.755713848999
0.456,0.8642061528647481,5907.049898149655
0.46,0.8833420659369754,5903.219481592889
0.464,0.9135742538032507,5903.184352209269
0.468,0.9498462119602965,5901.956244917191
0.472,0.9869385460864385,5901.207400861393
0.476,1.0209390410418508,5893.809096650449
0.48,1.0497625245225914,5900.224586422839
0.484,1.0727438214489158,5900.743203000868
0.488,1.0898707172347222,5900.755403855975
0.492,1.1012852861631433,5900.177418458305
0.496,1.1073145779520412,5901.034805807691
0.5,1.108820756673008,5905.027903155644
0.504,1.1074040967546837,5901.052725969712
0.508,1.1051090376233226,5909.7975786487295
0.512,1.1036784523257157,5892.343037238138
0.516,1.1037534952046173,5894.451761954163
0.52,1.1044707147781367,5899.175960532677
0.524,1.1036983649034722,5901.262541885763
0.528,1.0988744854141932,5894.825011213823
0.532,1.0881751206489865,5896.782268030076
0.536,1.0715653080741354,5904.726687093904
0.54,1.0512416375889722,5904.678447552546
0.544,1.0311845465319995,5899.642580268613
0.548,1.015939549545408,5900.178907083268
0.552,1.009092279510212,5903.5404800469205
0.556,1.0120224748644162,5902.013138223252
0.56,1.0233973269719265,5904.663301941741
0.5640000000000001,1.0395358023398196,5902.317487216891
0.5680000000000001,1.0553992114904387,5896.024502061987
0.5720000000000001,1.0658020150472967,5899.862807280204
0.5760000000000001,1.0665638925207264,5892.401710637614
0.58,1.0554837686586962,5891.129614838031
0.584,1.0329873003683643,5908.572536967064
0.588,1.0022184760126132,5900.212331818687
0.592,0.9684545361716503,5898.251963371044
0.596,0.9379885155153004,5904.9430857389725
0.6,0.9168213423553858,5898.459422388307
0.604,0.9095083821463014,5897.798052357315
0.608,0.91836102235279,5905.248546357647
0.612,0.9430535548317452,5895.628611782431
0.616,0.9806479100555446,5909.048427532275
0.62,1.0260979908361378,5894.582134857793
0.624,1.0732705925611885,5891.804626841263
0.628,1.1163160529138014,5896.912116361888
0.632,1.1509437811836305,5891.121520740231
0.636,1.175064531254522,5898.937828057232
0.64,1.188541195554927,5904.29376826641
0.644,1.192316651854955,5895.777166315044
0.648,1.187534231982361,5906.644324920378
0.652,1.1751219505520851,5905.9247336714425
0.656,1.1558553311738187,5895.835855685853
0.66,1.1306080348902414,5896.112788039315
0.664,1.1005453211813025,5898.319633520217
0.668,1.067210485983106,5903.047313337295
0.672,1.032555229828093,5904.736672284563
0.676,0.9989551197891059,5908.567073047365
0.68,0.9692182346836833,5901.359379942547
0.684,0.946541172899,5906.493942736089
0.6880000000000001,0.9342678428606317,5908.430620476112
0.6920000000000001,0.9352659284280632,5906.616245338286
0.6960000000000001,0.9509199165733667,5900.904718658158
0.7000000000000001,0.9801053422996885,5897.821662165926
0.704,1.0187285608177437,5908.869623736285
0.708,1.06023945720288,5899.894082764438
0.712,1.0970915416788778,5906.658237926416
0.716,1.1227337850272374,5897.674196159447
0.72,1.1334939350628859,5897.865786372236
0.724,1.1296760178283909,5902.813971656448
0.728,1.1154118563471087,5891.863113242468
0.732,1.0972679811762664,5898.157434508732
0.736,1.0821104559148786,5897.655574651983
0.74,1.0749936482884632,5903.087622603507
0.744,1.077752530910474,5897.767081141628
0.748,1.0886747045624818,5908.028312895133
0.752,1.1032974405009335,5901.190563365048
0.756,1.1160704831616426,5897.4857047826135
0.76,1.122339540166915,5903.139943203839
0.764,1.1199348093521995,5900.9262870499
0.768,1.1097656355183052,5902.790694189027
0.772,1.095261320210401,5896.602752143973
0.776,1.0810197983194951,5899.246256208362
0.78,1.071292755290976,5897.2040175385655
0.784,1.0688336480535705,5905.084791200147
0.788,1.074331663158095,5895.547703934036
0.792,1.0863860571334245,5901.907588268398
0.796,1.1018733209267084,5899.276251249193
0.8,1.1165994857549704,5900.103410016929
0.804,1.1261593808319357,5901.281991353312
0.808,1.126840313332711,5898.807130709092
0.812,1.1163108442272578,5903.521880359662
0.8160000000000001,1.0938914406456979,5901.174584182871
0.8200000000000001,1.0604139573652438,5905.002447976318
0.8240000000000001,1.017887543299424,5894.66532314653
0.8280000000000001,0.9692259291986917,5897.229950786099
0.8320000000000001,0.9180989052828901,5903.465660748472
0.836,0.8687310114693622,5898.158851019229
0.84,0.8254652322903356,5896.134020318143
0.844,0.7921496327388123,5909.480516977424
0.848,0.7715761265658325,5898.573812754884
0.852,0.7651018310863182,5907.784074884289
0.856,0.7724103482043119,5902.899003207084
0.86,0.7913943205368075,5903.454283352005
0.864,0.818304095178132,5894.864714391192
0.868,0.8483452323571312,5904.7188963995
0.872,0.8767228982701273,5895.8562937172
0.876,0.8998551308400179,5903.786189640915
0.88,0.916283653110133,5910.319681217742
0.884,0.9268453673441035,5899.973889114189
0.888,0.9339925579271282,5904.697091124219
0.892,0.9405916631791857,5899.26205301392
0.896,0.9487608538848575,5900.8826997380265
0.9,0.9591836373089274,5903.597264239387
0.904,0.9710290464092126,5896.089727674667
0.908,0.9823800153943744,5892.9311009099865
0.912,0.9910017813421805,5905.140524996605
0.916,0.9952569769758307,5902.623639631497
0.92,0.9949179260156954,5895.300705269803
0.924,0.9915928400627726,5898.818169340473
0.928,0.9885271778457817,5904.508745613121
0.932,0.9896987466927478,5900.007409178584
0.936,0.998415006056034,5902.914914890007
0.94,1.015945015711593,5898.959223370778
0.944,1.0408488512464102,5904.055593108749
0.948,1.0694174423046392,5893.752739878487
0.952,1.0970648444008333,5896.447367716959
0.956,1.1199676385960262,5898.507342594965
0.96,1.1361191114448284,5902.243918512541
0.964,1.1453731358840036,5902.221238436099
0.968,1.1486983637267258,5901.539391213679
0.972,1.1472742837218217,5900.214742878302
0.976,1.1419977237538481,5905.904216471381
0.98,1.1335717733890558,5900.005374603601
0.984,1.122921821819421,5903.273743490525
0.988,1.1114890959417845,5898.916328949005
0.992,1.1011035920329075,5902.460006391578
0.996,1.0934605925894891,5902.6506957404345
1.0,1.0894055320292526,5899.326263819171
1.004,1.0882474959634438,5900.544338140622
1.008,1.0873987317029137,5903.356060411057
1.012,1.0827255543764294,5903.123174462426
1.016,1.0697667832753894,5905.647828270269
1.02,1.0454410326810162,5905.175661004177
1.024,1.0094883814045295,5898.260806179647
1.028,0.9650069661437436,5905.272106776818
1.032,0.917919215971528,5899.057915270108
1.036,0.8756682620388965,5905.597430515528
1.04,0.8456261214544765,5902.254060680864
1.044,0.8335818364385561,5902.875615527027
1.048,0.8424872360006354,5896.166020574554
1.052,0.8715773108324004,5898.48898281646
1.056,0.916065115811593,5896.818131265618
1.06,0.9676874540243905,5903.530106657101
1.064,1.016263289471861,5900.037236879717
1.068,1.0520589818477222,5899.52969867513
1.072,1.0683055795839675,5902.260443328583
1.076,1.0629952260784383,5892.518821771608
1.08,1.0392837920737406,5894.7457824460425
1.084,1.0043638309010008,5911.253637811481
1.088,0.967267955261507,5896.707878779611
1.092,0.9364114796000048,5903.646960221802
1.096,0.9176366510898222,5897.953356979603
1.1,0.913192783158941,5903.218641248986
1.104,0.9217207796580187,5900.235446356724
1.108,0.9390490090177682,5903.494979284581
1.112,0.9594717510372375,5903.3638369258615
1.116,0.977175973526461,5900.895307334376
1.12,0.98756091045146,5894.361369745559
1.124,0.9882374309425603,5901.728140015854
1.128,0.9794648864614021,5894.800056123451
1.132,0.9638284699783056,5898.73994665575
1.136,0.9452143726982479,5894.254522324649
1.14,0.9274807682345741,5898.671893146263
1.144,0.913369731665183,5902.6334710298215
1.148,0.9040503136518334,5895.174519781947
1.152,0.8993643728181886,5899.936967229881
1.156,0.898535423139451,5900.361810448772
1.16,0.9009085981212412,5908.11146247564
1.164,0.9063172146494158,5900.001770628475
1.168,0.9149118443783316,5903.706104269497
1.172,0.9265752478903009,5902.327464976857
1.176,0.9402609146940446,5901.082594547012
1.18,0.9537249743751586,5894.122387170131
1.184,0.9640570481115669,5898.708725886446
1.188,0.9689999266883139,5891.754811327779
1.192,0.9684588808715077,5901.135622741933
1.196,0.9653111163087045,5897.785565462927
1.2,0.964896262648414,5900.625390279096
1.204,0.9732318439583366,5896.034230312322
1.208,0.9946761192338424,5895.286120144585
1.212,1.030079205490229,5907.689153335903
1.216,1.0762135285009562,5899.597263198341
1.22,1.126612496916217,5898.904373178062
1.224,1.1733110262310915,5903.1618736137
1.228,1.2087279093084033,5892.112867084316
1.232,1.2271183069041405,5902.124385731439
1.236,1.2254447237176433,5897.419408590523
1.24,1.2038064013758325,5897.91990903419
1.244,1.165519372951297,5894.635211478249
1.248,1.1167293820645823,5903.048441236976
1.252,1.0653988686157225,5893.68471615417
1.256,1.0197254634443655,5898.41432796144
1.26,0.9863490942012187,5904.187408827754
1.264,0.9688863397715071,5893.093642863216
1.268,0.967274497222512,5903.314786782811
1.272,0.9781037497894675,5904.930154386094
1.276,0.9957355247172648,5906.086471257033
1.28,1.0138056570378131,5893.820860812469
1.284,1.02674619996746,5901.640865969121
1.288,1.0310425068820328,5898.44045304362
1.292,1.0259412868182074,5907.028971444533
1.296,1.013335028472964,5895.855562817147
1.3,0.9967428979047837,5893.583304559394
1.304,0.9797096043890822,5896.578347792477
1.308,0.9643204217188639,5891.123694651362
1.312,0.9505475435135431,5900.27164358897
1.316,0.9366974331431769,5902.693868828077
1.32,0.9206293423309093,5896.788368169716
1.324,0.901103896100098,5904.980669317469
1.328,0.8787162598082648,5902.726022819903
1.332,0.8561503081110047,5897.403034904182
1.336,0.8377584794980537,5903.345662823894
1.34,0.8286557275587709,5902.49810970639
1.344,0.8335660581213705,5893.326850655118
1.348,0.8556235796312435,5899.060444322231
1.352,0.8953558843773152,5891.15916049102
1.356,0.9501567438003895,5894.634505338376
1.36,1.0144904728549031,5893.251024838501
1.364,1.0808194033833178,5901.438505179572
1.368,1.1410127135677675,5900.906994840907
1.372,1.1879092180957609,5896.509159533211
1.376,1.2166962297441803,5894.989331753183
1.38,1.2257775307406595,5898.783053475744
1.384,1.2168857310216554,5903.755074115811
1.388,1.1943630596431496,5899.607366816253
1.392,1.1637437622120317,5896.34075497085
1.396,1.1299988510768195,5900.736939175431
1.4,1.0960204557362792,5893.005943548104
1.404,1.061990990002745,5900.452508343534
1.408,1.0260262661523387,5892.83964817392
1.412,0.9859212342897181,5911.128966345021
1.416,0.9412449531319671,5900.317053378644
1.42,0.8947547153999865,5906.216952751199
1.424,0.8523087733385762,5905.905961727183
1.428,0.8211405730605743,5901.864517902342
1.432,0.8072211102907196,5902.285703419751
1.436,0.8129428581153099,5897.282207394651
1.44,0.8361364192154068,5897.256522512477
1.444,0.8706704194718964,5908.393349523132
1.448,0.9081730753258683,5900.752117011093
1.452,0.9401511770578214,5900.421878019507
1.456,0.9599009972611159,5898.988561824414
1.46,0.9638381772043679,5899.433577078703
1.464,0.9520679322205797,5892.38231073148
1.468,0.9281584802003703,5895.790536778327
1.472,0.8982142717105563,5897.94822941997
1.476,0.8695017342646018,5900.09809425705
1.48,0.8489853513976156,5892.472940450106
1.484,0.8420758909315474,5912.010322945894
1.488,0.85171679227573,5897.2624324836015
1.492,0.8778095696790758,5899.108944810676
1.496,0.916997987758444,5896.459244128356
1.5,0.9629378465929365,5898.48916191324
1.504,1.0072401085682166,5903.208446320487
1.508,1.0411405820450144,5900.297456797399
1.512,1.0575778794165496,5896.705387008999
1.516,1.0529873433197205,5907.976309635912
1.52,1.0281172515775974,5899.084224926766
1.524,0.9876127347994077,5904.2078569333735
1.528,0.9386461829274783,5902.329974610531
1.532,0.889154439249728,5901.996072597271
1.536,0.8462117314955409,5894.110457153616
1.54,0.8148494360766975,5906.291851946802
1.544,0.7974088575841709,5898.733613839056
1.548,0.793423117677722,5911.425943878033
1.552,0.8000412980540278,5905.906821331972
1.556,0.812971017946699,5904.445140652792
1.56,0.8277741938786292,5901.133547702382
1.564,0.8412128925001155,5897.517755568619
1.568,0.8522744262509546,5896.415323651109
1.572,0.8624980083681284,5897.88087110796
1.576,0.8753259209807347,5900.020738290277
1.58,0.8944960775484179,5903.984119448271
1.584,0.921951707379209,5898.340503342794
1.588,0.9561518223942619,5901.537639852468
1.592,0.9917284057060141,5899.209889427729
1.596,1.0209771648363144,5890.775669999874
1.6,1.036796781031951,5911.399200338074
1.604,1.0358456355928967,5907.156583964162
1.608,1.0204010367040781,5901.881466751042
1.612,0.9979077268422036,5906.846191541481
1.616,0.978253533928872,5903.690319165326
1.62,0.9699050466887086,5887.868009337429
1.624,0.9766268310661507,5900.74062595609
1.628,0.9962344536599613,5909.983282117677
1.632,1.0218072705926922,5900.374156958923
1.636,1.0446098251677696,5903.877976752095
1.64,1.057305920419499,5903.897671932364
1.644,1.0561803560120522,5894.573715014848
1.648,1.0418085601628713,5902.580010570524
1.652,1.01843876069954,5897.8536838685
1.656,0.9927804579328249,5898.585644531508
1.66,0.9727314381428643,5902.34360830188
1.664,0.9660936767601356,5893.816651093994
1.668,0.9790520535649111,5902.07069218973
1.672,1.0143941127305627,5904.643297821538
1.676,1.0699248459283186,5894.100365931394
1.68,1.1378473557626512,5901.745522933064
1.684,1.2057380466607128,5908.007465078922
1.688,1.2591555609400518,5907.530240461778
1.692,1.285221047866844,5903.298478084959
1.696,1.2760969073195438,5903.991185354792
1.7,1.2313127286172043,5901.577696533651
1.704,1.158229763723845,5898.60278109108
1.708,1.070475778598933,5896.493342981496
1.712,0.9848084935216378,5897.143434970356
1.716,0.9173490877269601,5899.465800627903
1.72,0.8802225494603741,5895.041575361961
1.724,0.8793353660996382,5899.286314415028
1.728,0.9135530333690554,5902.591657584837
1.732,0.9751899690933638,5900.471848885228
1.736,1.051596072422928,5899.298017472786
1.74,1.1275928854357162,5903.719362499526
1.744,1.188413320840613,5897.480297349375
1.748,1.2226308372400105,5900.2152076093935
1.752,1.224438114162018,5900.97304885799
1.756,1.1946682004545024,5899.319604466095
1.76,1.1402407612082999,5900.059695299788
1.764,1.0721969613446614,5899.287739749791
1.768,1.0028874588513401,5894.881610378014
1.772,0.9430451881519855,5897.83120550608
1.776,0.8995056050113877,5906.277745151083
1.78,0.8742421204568034,5896.320411825035
1.784,0.8649913916859238,5903.381276730492
1.788,0.8670966139689565,5905.360888061289
1.792,0.8756959759933078,5896.199451144281
1.796,0.8873610457827427,5904.502461807128
1.8,0.90068442802861,5895.108673424927
1.804,0.9158329576362463,5890.610775115406
1.808,0.9334778081960693,5898.022017610541
1.812,0.9536613655353466,5901.094624805055
1.816,0.9750594674289651,5897.959931043511
1.82,0.9948800352990512,5893.402101031667
1.824,1.0094366041980842,5900.266528908611
1.828,1.0152388376851562,5903.158844384166
1.832,1.0102162134336443,5895.0243334236
1.836,0.9945304005595055,5898.911120302895
1.84,0.9705185533041075,5901.567273077782
1.844,0.9417177424372459,5900.744461366605
1.848,0.9114367398910337,5910.79236198078
1.852,0.8815945356231376,5901.201777643743
1.856,0.8523877978774711,5903.3983865546925
