时间(s),电压(V),幅值(高频80K)
0.0,-0.27563073861209736,5908.631574694846
0.004,0.16768226879235387,5898.512484910818
0.008,0.5590076884565691,5897.87049882753
0.012,0.8596030141915396,5895.532270146885
0.016,1.0502268076514139,5905.481011157207
0.02,1.1327631586967613,5904.20588793202
0.024,1.1261909594435335,5897.510514631779
0.028,1.0593326065710582,5910.035595402425
0.032,0.963191659693965,5897.568843993427
0.036,0.8649257532105135,5907.577533015571
0.04,0.7843670583010984,5903.395566917077
0.044,0.7329919339513284,5904.299370246159
0.048,0.7145387139684729,5893.882853927714
0.052,0.7262643493920904,5896.859943712927
0.056,0.760292965688136,5893.322279967341
0.06,0.8053094430389212,5898.719464663942
0.064,0.8490985128509115,5894.538147746748
0.068,0.8816931264509587,5907.300195636023
0.072,0.8979678111184318,5896.536551185043
0.076,0.8985379118197605,5898.006574839008
0.08,0.8888471325307327,5900.244127095481
0.084,0.8772719828996103,5900.8935786321845
0.088,0.8731258371998577,5894.3891603722295
0.092,0.8848890199894264,5903.230204598025
0.096,0.9185977367199701,5904.908249125719
0.1,0.976392934586689,5901.941490502067
0.104,1.0554785540038325,5904.089524922596
0.108,1.1478507176209694,5909.52074661405
0.112,1.241092142447614,5898.497876311402
0.116,1.3203505798956194,5899.53807907261
0.12,1.3713272909004675,5899.923438263411
0.124,1.3836526327064231,5905.223521150272
0.128,1.3535760306843265,5895.265503483265
0.132,1.2848741664765724,5897.159231601902
0.136,1.1875789728796764,5906.552137052397
0.14,1.0751875807558233,5902.689722500435
0.144,0.9616280381062553,5898.126899703651
0.148,0.858991035839712,5893.163369426375
0.152,0.7762875142255775,5892.458965108295
0.156,0.718970168633613,5909.841878916561
0.16,0.6889430141569927,5898.430673839065
0.164,0.6849568138541476,5893.890580901649
0.168,0.7032728160314116,5894.51867286878
0.172,0.7383587617763097,5900.436844048517
0.176,0.7834851449744402,5909.555863163489
0.18,0.8313842714410132,5905.459669787968
0.184,0.8752337552483168,5895.106437234621
0.188,0.9099430197550699,5903.394382013699
0.192,0.9332978677616977,5904.616827311767
0.196,0.9463564311998139,5898.935283742611
0.2,0.9527978542097431,5900.833559837639
0.204,0.9575089287581724,5901.7232408649725
0.208,0.9650803898180713,5900.410007799156
0.212,0.978762922991516,5899.136317987915
0.216,0.9999739397563179,5914.45117832928
0.22,1.0281276412055804,5895.202414532503
0.224,1.0606412882295826,5892.108552154943
0.228,1.0932087937918709,5905.340301307047
0.232,1.1204635555287457,5901.624986373158
0.236,1.136980380913311,5900.5834577629785
0.24,1.1384243463189947,5900.71155379107
0.244,1.1225946120912447,5904.374520546187
0.248,1.0900717991731195,5894.831925755595
0.252,1.0442318256706304,5904.91185883013
0.256,0.9906056547599642,5901.663506096539
0.26,0.9357940899418219,5894.610461611765
0.264,0.8862067535665249,5900.292707440945
0.268,0.846855073768772,5901.541782681855
0.272,0.8204817376136354,5897.303774344389
0.276,0.8073791498567194,5900.210559920009
0.28,0.80604669729716,5905.256091494654
0.284,0.8143702936747464,5904.418654402019
0.288,0.8306979619876316,5899.98193873815
0.292,0.8543263610066053,5893.339716985166
0.296,0.8853352485767301,5903.312142601274
0.3,0.9240404928550011,5899.258302401354
0.304,0.9703811660600007,5901.622362915514
0.308,1.0233842350534876,5899.578289458518
0.312,1.080698565686968,5901.19609864641
0.316,1.1382600684897732,5895.96259388106
0.32,1.1903859986722634,5901.015941235426
0.324,1.230655466111687,5891.8657076615045
0.328,1.2535726441746151,5899.222246706148
0.332,1.2564675471148508,5902.378521365966
0.336,1.240817751730489,5899.687147456214
0.34,1.2123294836218788,5893.245128849409
0.344,1.1795691213606174,5897.439715954023
0.348,1.151523569671492,5900.782452356765
0.352,1.134969683138177,5901.688295477107
0.356,1.132641355554737,5901.766525954744
0.36,1.1427769393264595,5894.07841872663
0.364,1.1599964592091259,5902.623845139879
0.368,1.177037251372308,5898.8982729676745
0.372,1.1867840856544993,5903.391704607694
0.376,1.1840629152923088,5903.823602338769
0.38,1.166768113696829,5908.882514689451
0.384,1.1361846070962427,5899.914070777708
0.388,1.096709243429616,5904.285087011655
0.392,1.0552274015605922,5901.9352083554
0.396,1.020179965556232,5912.20889768741
0.4,1.000246725593238,5895.779418120564
0.404,1.0027248321409765,5896.352358198223
0.408,1.031860281181707,5901.419909164813
0.412,1.0874341627459827,5895.586941561458
0.416,1.1639091984123118,5899.403459107049
0.42,1.2504920446104597,5905.635862680251
0.424,1.3324680800057753,5903.443880418358
0.428,1.393918485756309,5894.839801639166
0.432,1.421370941158884,5906.582512626714
0.436,1.4073684787936753,5891.833871616832
0.44,1.3528079291366852,5901.725177287248
0.444,1.2672666951941034,5901.764935564931
0.448,1.1671197520474597,5891.115342678879
0.452,1.0718692699427406,5896.997427546544
0.456,0.9996921992511865,5899.995223467418
0.46,0.9634724522549905,5901.235960864983
0.464,0.9682704561232949,5911.245679695276
0.468,1.0105391700741773,5896.284701959967
0.472,1.0789421766074025,5903.080452196329
0.476,1.1565520105593292,5901.451128227001
0.48,1.2242260326878824,5895.206356345811
0.484,1.2647193176357303,5897.933718073336
0.488,1.2666238937428276,5893.422492247194
0.492,1.2269629874001993,5888.599269525213
0.496,1.1515766132222796,5897.2968747792
0.5,1.053192951899317,5896.402991257775
0.504,0.9478898631264115,5895.073515725592
0.508,0.8511575597598798,5891.957734214063
0.512,0.7747890065092093,5905.211133062535
0.516,0.7254131916323805,5905.737398500933
0.52,0.7048697809715632,5900.4960385435215
0.524,0.7119553179861368,5902.777647295997
0.528,0.744529302961134,5905.625096967365
0.532,0.800882299900795,5910.755684983253
0.536,0.8797590802883999,5903.17584281105
0.54,0.9791575864855012,5900.165427259351
0.544,1.0945906575501534,5890.805816909136
0.548,1.2177814548847516,5910.739794498201
0.552,1.3366987737257225,5900.420922695366
0.556,1.4373180017247087,5906.228050881661
0.56,1.5066868871882952,5898.492370738276
0.5640000000000001,1.5362421718427228,5905.856824440233
0.5680000000000001,1.5241805868488052,5912.748137551397
0.5720000000000001,1.4760234926417646,5906.842310577441
0.5760000000000001,1.4031631752168232,5899.479082009668
0.58,1.3199032280635545,5901.859795703758
0.584,1.2400008859683127,5893.23791947196
0.588,1.1737803369997122,5903.554252939973
0.592,1.1265527139269618,5888.883690449326
0.596,1.0985519545211857,5902.09332988269
0.6,1.0860921304671702,5895.100596434642
0.604,1.0833605358686613,5904.175151612529
0.608,1.0842847371229083,5898.790464899078
0.612,1.0841394047421378,5905.903421157138
0.616,1.0807269996786384,5897.023565448315
0.62,1.0749520668189043,5900.89171631229
0.624,1.0705588627214382,5896.885445463226
0.628,1.0729428866001054,5903.781689667989
0.632,1.0873201818616183,5904.395148307015
0.636,1.1169108485325843,5900.22326257609
0.64,1.1618483612238901,5891.091193350347
0.644,1.2191599817729606,5903.536771107422
0.648,1.2835782461178806,5897.122361952856
0.652,1.3485331114903776,5898.229798941018
0.656,1.4067839172790584,5897.391857691054
0.66,1.4507174993607046,5900.61485766057
0.664,1.4728024262097825,5895.923400858687
0.668,1.4665710374620677,5903.181547490805
0.672,1.4280210760482117,5896.282958663584
0.676,1.3570515194223214,5901.384049193291
0.68,1.2585666617656428,5894.87940919936
0.684,1.1428721593736446,5903.469296505957
0.6880000000000001,1.024890224938757,5896.309262910514
0.6920000000000001,0.9218668313124952,5894.370034777446
0.6960000000000001,0.8498175728886207,5900.557589077195
0.7000000000000001,0.8196774543653328,5906.043116156975
0.704,0.8344717928235795,5905.020514549404
0.708,0.8885373143440972,5910.455775382969
0.712,0.9690558303551894,5908.75865229069
0.716,1.0593363811447278,5901.2365069842535
0.72,1.1427730382990995,5904.246524929962
0.724,1.2063454561555293,5899.461377446013
0.728,1.2427952438612502,5900.267236598833
0.732,1.2510355254730101,5901.528607220781
0.736,1.234897461968418,5902.578386709039
0.74,1.2009150052465172,5905.756361148568
0.744,1.1561703987868432,5901.390264719174
0.748,1.106978285347804,5898.409395362868
0.752,1.0585539294214898,5898.443902926192
0.756,1.0152528260278442,5901.039001182422
0.76,0.98077587022866,5894.804535992947
0.764,0.9579297128435788,5900.167304277327
0.768,0.9479574891149648,5910.315822992813
0.772,0.9498322765879542,5896.484352545006
0.776,0.960000051466707,5900.515625758842
0.78,0.9728539197427513,5901.930221216186
0.784,0.9819023088869956,5895.84028018984
0.788,0.9813626054899269,5900.130504592215
0.792,0.9678012146779277,5895.635324889053
0.796,0.9413599627693355,5901.290154951529
0.8,0.9060985694242988,5901.202152045691
0.804,0.8692332893812871,5894.729211904955
0.808,0.8395289073798792,5902.7567834778165
0.812,0.8254193247946453,5893.214459916356
0.8160000000000001,0.8333296969732018,5904.587741313861
0.8200000000000001,0.8663852152984284,5895.648554032883
0.8240000000000001,0.9236005982202842,5907.9315994427225
0.8280000000000001,0.9997686730206985,5904.823150169111
0.8320000000000001,1.086301752073786,5900.405925523558
0.836,1.173008194013089,5900.801384009191
0.84,1.250339725410225,5895.53137246324
0.844,1.311387191605582,5912.260633642733
0.848,1.353033680050604,5902.831916268038
0.852,1.3760183660878589,5907.51163082661
0.856,1.383960759434058,5901.026494561666
0.86,1.3816469732931707,5894.185706096519
0.864,1.373194163026,5911.406246274257
0.868,1.360912872059573,5901.8589897724805
0.872,1.3454420715366282,5893.582794649348
0.876,1.3270379440047033,5900.732891334541
0.88,1.3071701620611766,5899.152653387277
0.884,1.2892640401973388,5912.262718404346
0.888,1.277784564611541,5907.511732259389
0.892,1.2758461518606654,5901.724600604421
0.896,1.2825783546483225,5896.809526033031
0.9,1.2917953284951955,5899.557984063305
0.904,1.2929022757231023,5897.018989963365
0.908,1.2739213282882205,5904.565715384671
0.912,1.2256104558563778,5903.623088589251
0.916,1.1452137584079263,5898.097175369713
0.92,1.0385418192953,5898.192174308172
0.924,0.9197024306103787,5901.238909258746
0.928,0.8085441921798647,5897.683900963653
0.932,0.7264539287918252,5907.874862061546
0.936,0.6914821190355678,5900.610854792606
0.94,0.7138980208592292,5900.120766710807
0.944,0.7932302835382122,5895.902893122635
0.948,0.917601965319064,5913.108507748575
0.952,1.0656754205200547,5899.6693663950045
0.956,1.2108309943760718,5904.499597653958
0.96,1.3265399686426833,5910.1902129138825
0.964,1.391564416100601,5897.977339278822
0.968,1.3937819453504916,5904.877175529339
0.972,1.3319830342506664,5907.98535879354
0.976,1.2156163212262958,5893.596754936918
0.98,1.0628415906081112,5899.015255322879
0.984,0.8973202707521314,5897.284349393501
0.988,0.7441683987550711,5903.0855971172805
0.992,0.6256236371596692,5898.56421944351
0.996,0.5571515118709638,5904.031412924624
1.0,0.5447663341779538,5906.260097786191
1.004,0.5842191928404089,5900.286278526452
1.008,0.6623744605500402,5891.844411046736
1.012,0.7605357100867964,5899.721430229179
1.016,0.8588705815083195,5903.660066788573
1.02,0.9407381074930535,5903.651567759766
1.024,0.995805422714941,5905.286629550064
1.028,1.021266026403641,5907.497296376849
1.032,1.0210508935283942,5903.749901587645
1.036,1.0035078618070539,5900.785547118085
1.04,0.9784629426511758,5897.160933116649
1.044,0.9546714342519437,5899.343195442249
1.048,0.938325610670101,5902.899916144078
1.052,0.9326815802243962,5896.985499400433
1.056,0.9383675755510634,5884.735605742139
1.06,0.9538534034646875,5891.781284653302
1.064,0.9758804739327708,5899.511336585065
1.068,1.0000169298766068,5907.25706471236
1.072,1.0215794268504512,5896.990613837196
1.076,1.0369173832598941,5901.028500432805
1.08,1.0446628082368765,5902.400734676296
1.084,1.0462904301042948,5893.8298113242
1.088,1.045518671969588,5900.902186206625
1.092,1.0467132432251705,5897.797123909199
1.096,1.0530356669258178,5897.850115892966
1.1,1.065135048398388,5905.779257533402
1.104,1.0808172212088052,5899.649680273177
1.108,1.0957210444139267,5902.012999816425
1.112,1.1047148075462878,5895.089331076593
1.116,1.103487906455883,5909.154945364698
1.12,1.0897631385705724,5905.725985154659
1.124,1.063782207757006,5885.964547639906
1.128,1.028119872419187,5898.379915845942
1.132,0.9871847655650968,5903.250700803103
1.136,0.9466848501660364,5893.754895114964
1.14,0.9129349231672517,5902.06105443855
1.144,0.8916681373530122,5905.294205847717
1.148,0.8863578322414495,5904.836020699105
1.152,0.8966709415940457,5906.585825356621
1.156,0.9179547223524014,5898.523401088208
1.16,0.9423452228291437,5885.689905960501
1.164,0.9613506058489393,5903.574318247916
1.168,0.9689698072221713,5895.846003422724
1.172,0.964016195861833,5899.974527138637
1.176,0.9506529003650289,5900.961283381112
1.18,0.9370204880335995,5893.074854371527
1.184,0.932633186490842,5900.482768937583
1.188,0.9455112765048722,5899.254052836352
1.192,0.979873531107575,5906.756085903531
1.196,1.0348903942085383,5890.194693581353
1.2,1.1046568324216726,5903.893588731585
1.204,1.1792720885600394,5907.429384152709
1.208,1.2467371113425156,5903.534779807433
1.212,1.2952769772240942,5893.0635270460925
1.216,1.315681510421577,5900.5015633939565
1.22,1.3033018271193157,5889.077324077747
1.224,1.2593164645315604,5905.707756788202
1.228,1.190827918177533,5894.670013144524
1.232,1.1095416913873992,5898.644993000452
1.236,1.0292900931529767,5908.050716775516
1.24,0.9631480977097225,5899.523206639244
1.244,0.9209909864544595,5903.605799328131
1.248,0.9080654894187744,5892.594303334292
1.252,0.9247095492302314,5910.027765683832
1.256,0.9669519316650903,5904.758493901257
1.26,1.0275025805624916,5894.728798142682
1.264,1.0967229970226704,5906.583218973395
1.268,1.1634852966985434,5900.543857844053
1.272,1.216136255148461,5897.571438058235
1.276,1.243852370444759,5895.664529250031
1.28,1.2384700253306342,5892.085046224624
1.284,1.1964999071063673,5906.720492874168
1.288,1.1206715598248722,5901.684277203332
1.292,1.0202799218060083,5903.747489863507
1.296,0.9099657116524179,5895.040571005347
1.3,0.8071160079526579,5893.386886493594
1.304,0.7284482808585956,5905.458382895919
1.308,0.6864712431823948,5902.745142854321
1.312,0.6865658622480633,5900.946261370172
1.316,0.7254599611536886,5899.389246949083
1.32,0.791745656343156,5915.596810701096
1.324,0.8686298897606013,5902.673654204416
1.328,0.9383364319676167,5899.367114408533
1.332,0.9868662557786875,5894.688870829954
1.336,1.0076138351338635,5895.017092485287
1.34,1.0026937801354965,5893.851459694431
1.344,0.9815111200601747,5898.556017939948
1.348,0.9569532303969615,5904.120252070032
1.352,0.9404766671416362,5897.744489760549
1.356,0.937928734117613,5905.933171620946
1.36,0.9477455959265918,5896.426565381827
1.364,0.9622075097857864,5906.761540601566
1.368,0.9711586825647245,5898.889037356742
1.372,0.9665603556727271,5897.096904852134
1.376,0.9458890714026185,5899.338970019338
1.38,0.9129518247659002,5907.075700409117
1.384,0.875948465784799,5899.49727511834
1.388,0.843893285264628,5905.709437344688
1.392,0.8231169475685447,5900.984565079156
1.396,0.8152698299904741,5904.240361261858
1.4,0.817374330960915,5907.860342050938
1.404,0.8236070051500607,5911.24341284716
1.408,0.8279531504303793,5902.602553752989
1.412,0.8266633041241761,5901.86176669155
1.416,0.8195781260880826,5896.802038895208
1.42,0.8099222486926136,5904.706120467533
1.424,0.8028618028314606,5900.65485876956
1.428,0.8035956793272044,5898.717396429745
1.432,0.8158097103944011,5889.740531675766
1.436,0.8409570060268547,5907.4227026801
1.44,0.8782715711676947,5904.012185176986
1.444,0.925127486619104,5899.734438463368
1.448,0.9774847000412326,5905.734007721928
1.452,1.0304103074221878,5899.787749083405
1.456,1.0787807086803638,5901.6290264577965
1.46,1.118250140901338,5901.91147780183
1.464,1.1463852137732031,5902.153183663125
1.468,1.1635444273478006,5891.096002790042
1.472,1.1729078265253277,5903.349896579884
1.476,1.1793098355430351,5906.04023798979
1.48,1.1871531435151932,5894.360477381624
1.484,1.1983208517259347,5908.408463891911
1.488,1.2111851036147865,5893.830621508926
1.492,1.2212912771071442,5898.85944970386
1.496,1.223363305967188,5906.784765916594
1.5,1.2135874150643042,5906.199231807445
1.504,1.191120417208056,5892.956749056039
1.508,1.1582915690609747,5900.251191113915
1.512,1.1196201621449924,5893.384174861657
1.516,1.0802722799733713,5900.2552152319295
1.52,1.0447497416998652,5893.929030533476
1.524,1.016335948942183,5903.203691798594
1.528,0.9972540370886371,5897.062196223588
1.532,0.9890158960035353,5895.032975981248
1.536,0.9924050432933037,5904.152295950084
1.54,1.0069253483226144,5895.904524997922
1.544,1.0300345509654,5899.42334431078
1.548,1.0567650560452007,5890.113194473152
1.552,1.0802843997942582,5902.725064028817
1.556,1.093566548073779,5894.236380392431
1.56,1.0917791539017423,5911.171168630422
1.564,1.0744967175149769,5897.19497492734
1.568,1.0466921069667772,5897.751140605784
1.572,1.0178144785118168,5900.073701862732
1.576,0.9990430963128502,5893.596897324575
1.58,0.9996132859232512,5892.005187048997
1.584,1.0235140512800054,5910.108803994274
1.588,1.0677244546109685,5900.366071194495
1.592,1.1226343016540499,5896.626086267995
1.596,1.1745895778118651,5899.318025208931
1.6,1.2097950578740306,5905.714009918524
1.604,1.218307620836037,5899.291775395331
1.608,1.1967996496063695,5900.107942341216
1.612,1.1492595749459071,5900.234776427049
1.616,1.085611898572058,5902.435682355137
1.62,1.0189541585023691,5900.39373257986
1.624,0.9624102275849669,5910.46995942249
1.628,0.9264605200889644,5897.240673952649
1.632,0.9172120179442745,5898.76641376753
1.636,0.9356733912631319,5901.646538852681
1.64,0.9778945266027192,5895.789293124857
1.644,1.035822325943706,5900.426838694522
1.648,1.0987568688157543,5894.969288345109
1.652,1.155204985638082,5904.220905411696
1.656,1.1947573401124991,5908.029623777135
1.66,1.209584997041415,5899.934994260279
1.664,1.1953728631988918,5901.650543671662
1.668,1.1517649843911566,5898.184098176502
1.672,1.0824424139530333,5902.063571653949
1.676,0.9948608639548577,5904.156703373732
1.68,0.8996199539909557,5898.913805986197
1.684,0.8093968691707961,5900.902465791407
1.688,0.7373479942545065,5887.429611451293
1.692,0.6950177217533255,5904.297699853219
1.696,0.6900836102285102,5899.571151312817
1.7,0.7244528319003299,5894.4031288406
1.704,0.7931897814093117,5899.623947637031
1.708,0.8846371016114474,5898.707669459406
1.712,0.9819641150328221,5902.64536306018
1.716,1.0661389081777402,5892.611500331343
1.72,1.1199406584938658,5910.087854032104
1.724,1.1322043097312027,5905.366516766865
1.728,1.1011311770171133,5898.886257158929
1.732,1.035414267919852,5898.407022381938
1.736,0.9524115076058133,5906.728275985187
1.74,0.8736369693340827,5898.40948111719
1.744,0.8189269353877912,5896.486162603053
1.748,0.8011892756260274,5912.520060451431
1.752,0.8233960632789046,5903.814995662551
1.756,0.8785670496825404,5904.34256010972
1.76,0.9523840333506801,5897.354441019716
1.764,1.0273022151597566,5901.725263107923
1.768,1.086808691146408,5895.41890262299
1.772,1.1187235945136125,5904.690856254613
1.776,1.1169645279403255,5899.013636287063
1.78,1.0817718098538192,5897.024298094977
1.784,1.0187667670759066,5908.71452720475
1.788,0.9373365312695959,5897.442361102241
1.792,0.8488393175714267,5898.580831640242
1.796,0.7650061612807226,5913.462941861902
1.8,0.6966098213566252,5901.2513534082855
1.804,0.6521892799498183,5899.542090062857
1.808,0.6366980445041932,5908.947410791509
1.812,0.6503530164456058,5900.522457133588
1.816,0.6882781616395254,5901.8775545044455
1.82,0.7414132363343808,5903.679093504603
1.824,0.7986209148745389,5906.936787042058
1.828,0.8493348005726791,5900.841268758812
1.832,0.8858379393435665,5893.695223756517
1.836,0.9044842103680424,5892.698000040525
1.84,0.9057248773338938,5901.362375000489
1.844,0.8933369458356711,5898.798758831369
1.848,0.8733864493229794,5902.560704171737
1.852,0.8531573490754479,5899.039167480963
1.856,0.8399844391698195,5902.442630066003
1.86,0.8400012847336187,5907.833216740705
