时间(s),电压(V),幅值(高频80K)
0.0,1.6338067475886386,5904.571219726811
0.004,1.5031387553191322,5902.679586941968
0.008,1.3890663009136939,5904.226442853369
0.012,1.3055204552896154,5900.945950671968
0.016,1.2606059013606394,5898.923259119161
0.02,1.2542189715210958,5896.250369704189
0.024,1.2774006501422313,5898.140153544051
0.028,1.3141208266868527,5902.802252858292
0.032,1.3452341433358344,5891.312110395516
0.036,1.3534872759417143,5896.097060126877
0.04,1.3280886445487883,5905.370370996073
0.044,1.2675016847230647,5898.882805658804
0.048,1.179656681578133,5902.060052292118
0.052,1.0795649835945023,5893.005254165789
0.056,0.9851905242760124,5892.2091469344605
0.06,0.913031193714316,5903.743770769068
0.064,0.8747793737487713,5901.705557035381
0.068,0.875664274091417,5907.135439416555
0.072,0.9142257242056295,5891.367380098677
0.076,0.982982877703118,5895.056680168327
0.08,1.069747702405514,5906.735309520176
0.084,1.159629578580544,5894.176582881224
0.088,1.2376755428650088,5907.403678173306
0.092,1.291728481481466,5892.886126875112
0.096,1.3148391791933116,5899.897993432667
0.1,1.306603131689222,5900.137925854968
0.104,1.2730014265070468,5888.020444728899
0.108,1.2245944893124248,5895.653712710064
0.112,1.173337021292833,5899.176025932409
0.116,1.1289293360550832,5902.83875540403
0.12,1.0961375118494128,5896.528454246498
0.124,1.074270777653722,5900.498691817373
0.128,1.058927411497184,5903.73588876803
0.132,1.0449939803174386,5908.929964009785
0.136,1.0294902773075452,5900.543014436224
0.14,1.013197382175163,5909.826169396214
0.144,1.000617178660276,5898.000512392621
0.148,0.9983811736529381,5897.813388756111
0.152,1.012712190371459,5885.785800716677
0.156,1.0469081386896595,5894.602238665668
0.16,1.0998669823108587,5898.102861046632
0.164,1.166214095420564,5894.481339566354
0.168,1.2377990382730835,5896.528443751945
0.172,1.30572545991993,5898.793122331403
0.176,1.3620473082078732,5889.428123045421
0.18,1.4007186691708204,5899.082094638196
0.184,1.4179396422071857,5901.325304374418
0.188,1.4123100538460112,5903.169447795073
0.192,1.385015716436688,5898.626796867484
0.196,1.3398660209105049,5898.1334276642165
0.2,1.282880128008158,5905.663459967774
0.204,1.2214375052324906,5896.752426164661
0.208,1.1633081468099178,5896.241731975947
0.212,1.1157596615911602,5900.7986871459925
0.216,1.084661157506186,5905.256428640414
0.22,1.0735056841641173,5899.506225679651
0.224,1.0825116725981632,5900.027761727127
0.228,1.1081239885744822,5912.282953237056
0.232,1.1432185773333354,5901.9962289672485
0.236,1.1782061598442612,5911.165702652168
0.24,1.2030291987641122,5898.912075499607
0.244,1.2096992668794908,5901.597631985055
0.248,1.194649834656687,5892.088355496748
0.252,1.1600679019559696,5905.122971765041
0.256,1.1136689275119676,5907.380081996981
0.26,1.0669180232673232,5893.502292417536
0.264,1.0321732980123464,5902.44289349373
0.268,1.0195050506759606,5907.167147424002
0.272,1.034031133421991,5902.51396254386
0.276,1.0744751473532665,5895.295472399069
0.28,1.1333246933516397,5895.041930654253
0.284,1.1985709040214543,5903.918713556979
0.288,1.2566208502875287,5893.652589782094
0.292,1.2956237389419996,5898.014414909804
0.296,1.308292262889735,5899.3436559996335
0.3,1.2934842570649805,5900.876978239097
0.304,1.2562381191006475,5896.89316586019
0.308,1.2063626733984467,5904.024423094097
0.312,1.1559525935101476,5901.368965453112
0.316,1.1164092333789373,5888.973017361972
0.32,1.0957108368958253,5899.35377686314
0.324,1.0966704298282677,5907.440756075575
0.328,1.1166535119157945,5892.551201947996
0.332,1.1487745000561558,5898.513159182553
0.336,1.1841272694138214,5890.61590648871
0.34,1.2142978054656306,5903.390606755228
0.344,1.2333705696886759,5908.7963372790455
0.348,1.2389067422069506,5890.85342589388
0.352,1.231828464304205,5890.435102528617
0.356,1.215536184906126,5905.510323698208
0.36,1.1946908801727636,5893.08583731461
0.364,1.1739448461509894,5895.9959650705205
0.368,1.156793372164273,5900.944648484348
0.372,1.144807537348913,5895.674239915708
0.376,1.137580364965202,5893.330501002613
0.38,1.1335060138899011,5899.64405077994
0.384,1.1310853836987322,5912.598299724953
0.388,1.1301029544443006,5895.083854363516
0.392,1.1319924330309563,5901.867580911766
0.396,1.1391180799261031,5899.859102043272
0.4,1.1533792852757532,5900.983300268474
0.404,1.1749956185909183,5900.602758233058
0.408,1.2021480860472769,5907.251470879649
0.412,1.231523598558827,5894.249051018641
0.416,1.2593191883144375,5904.6661293627
0.42,1.2822427427412226,5904.891360578416
0.424,1.2982827094909226,5903.8809768091705
0.428,1.3071507339643755,5894.921280890093
0.432,1.3103028153478227,5893.139804267318
0.436,1.3105222016488711,5899.523821783526
0.44,1.31122659922806,5899.953706563022
0.444,1.3157321165024665,5901.6284788776165
0.448,1.3265624688481776,5912.30162215772
0.452,1.3447478326760334,5898.811048821028
0.456,1.3691663143551427,5892.750179207004
0.46,1.3962388603710951,5908.202301032355
0.464,1.4203589563271302,5891.599520677334
0.468,1.4351915410080633,5902.942705525252
0.472,1.4355562139663902,5903.412504286885
0.476,1.4192333767776704,5897.524885508612
0.48,1.3879289002139352,5900.695440212244
0.484,1.3469642837407751,5895.9451340262485
0.488,1.303872080101284,5904.313769406655
0.492,1.2665218439785269,5900.3667100377
0.496,1.2413847341048336,5904.594265996679
0.5,1.2322445975633223,5903.987588844148
0.504,1.2394668695720257,5902.359797591908
0.508,1.2599603086549302,5897.69971103044
0.512,1.287976919775145,5903.928072565905
0.516,1.316643310479204,5898.6103926726455
0.52,1.339688059681807,5893.835116040129
0.524,1.3526390375122785,5895.127886530113
0.528,1.3530986813009158,5903.266978022318
0.532,1.340313238127562,5889.408803470328
0.536,1.314594400006295,5903.163115419616
0.54,1.2770171679051667,5905.997987557573
0.544,1.22947373535017,5898.374087901669
0.548,1.1749381452551277,5898.497176863651
0.552,1.117739927906258,5903.375053970633
0.556,1.0636292485571415,5897.0918508864015
0.56,1.0193929567922393,5898.628848575585
0.5640000000000001,0.9918392138833639,5898.913667047838
0.5680000000000001,0.986196504209052,5902.709783191282
0.5720000000000001,1.0043091742786585,5895.190377096583
0.5760000000000001,1.0432651755188893,5893.993990837535
0.58,1.0951125161044877,5896.046422978233
0.584,1.1480653312125029,5911.233037547558
0.588,1.1891073340965677,5906.707788662535
0.592,1.2073535809101512,5898.598123776351
0.596,1.197199087574357,5894.14849422802
0.6,1.1602830580257457,5898.748392724772
0.604,1.1055696135465387,5894.285348506165
0.608,1.0473114550926306,5900.16779964701
0.612,1.0012511388313698,5906.861228257067
0.616,0.9800094965037113,5897.911037724269
0.62,0.9890446769785722,5895.501436344465
0.624,1.0246007832452455,5887.861406733321
0.628,1.0745021461840414,5898.888466846414
0.632,1.12161550174768,5902.546720526498
0.636,1.1488184061107973,5891.587458168285
0.64,1.1439042886941542,5897.177233559975
0.644,1.1030917446076451,5892.172621601099
0.648,1.0323066409300536,5904.432470376792
0.652,0.9458822213738645,5906.341823695699
0.656,0.8629019779907477,5904.972992296043
0.66,0.8021781038371847,5900.086214070945
0.664,0.7774277792463058,5892.388741145058
0.668,0.7941249909199836,5912.438139468039
0.672,0.8488159817792867,5897.722359850554
0.676,0.930829238515982,5899.001434825392
0.68,1.0256250425359437,5906.668740401319
0.684,1.1186223406858116,5893.902413316162
0.6880000000000001,1.1982944867239054,5887.942419448104
0.6920000000000001,1.2577269370382818,5899.787546436821
0.6960000000000001,1.2945502128377,5901.220421973811
0.7000000000000001,1.309800403627748,5906.247100530026
0.704,1.306457783932967,5902.077145168
0.708,1.2882034153950381,5895.524275088993
0.712,1.2586345027409975,5897.902796400916
0.716,1.2209753432197092,5899.725041728119
0.72,1.178158914211778,5895.999544693831
0.724,1.133024979170142,5897.802658820904
0.728,1.088404476331905,5903.706363971532
0.732,1.0470396931392587,5899.529377113854
0.736,1.0114195825281083,5904.679378829532
0.74,0.9835755878353564,5895.278045044211
0.744,0.9648399321041689,5900.664699862011
0.748,0.9556434424426565,5897.30324963555
0.752,0.9554924050769882,5891.970027387011
0.756,0.9631571765538957,5904.854737311995
0.76,0.9769147189027666,5907.164037161884
0.764,0.9946341625947728,5894.764970455358
0.768,1.0136727208694074,5906.412596164855
0.772,1.0308362844489827,5891.160280776547
0.776,1.042801726099983,5901.352577021461
0.78,1.0471881876332043,5907.457560767548
0.784,1.0439684949165224,5894.873005863103
0.788,1.036492158735368,5895.900798821722
0.792,1.0313830099270216,5901.976876022841
0.796,1.0370129640564991,5903.889222245831
0.8,1.0609143894095494,5905.458774437779
0.804,1.1070206910700704,5907.859444310449
0.808,1.1737106149107348,5900.076309428001
0.812,1.2532799750463788,5906.44556487147
0.8160000000000001,1.3329792125017874,5906.009580543782
0.8200000000000001,1.397388737247132,5905.554359473898
0.8240000000000001,1.4316650842817795,5896.701401468549
0.8280000000000001,1.4250065370348934,5902.945254360818
0.8320000000000001,1.373564070063534,5897.869253400332
0.836,1.2820279921046,5900.738188980299
0.84,1.1633128523562044,5909.920140226968
0.844,1.036169655829669,5900.94205540618
0.848,0.9211409615261225,5898.672795891214
0.852,0.8358767446300233,5903.771153416402
0.856,0.7911514110982788,5895.161234439686
0.86,0.7887637767355561,5903.112038380114
0.864,0.8219275467805821,5904.321629546777
0.868,0.8779559638879285,5899.952074499631
0.872,0.9422421790120236,5902.25640181029
0.876,1.0021018690239853,5898.29000915205
0.88,1.0492437918767663,5898.05695247843
0.884,1.0803289720812501,5904.726552725485
0.888,1.0959101665961621,5904.141694384943
0.892,1.0986809061244005,5904.508531759874
0.896,1.0920814644925316,5900.487942986777
0.9,1.0797786683874675,5897.354851839952
0.904,1.065740971088523,5902.509130514322
0.908,1.0542155376820417,5902.569431071251
0.912,1.0491674955218853,5900.675031203444
0.916,1.053340366897399,5893.70457738092
0.92,1.0674680308174171,5902.986962286233
0.924,1.0900715131001857,5906.129678146778
0.928,1.1179389321848994,5899.067965103343
0.932,1.1470950536259514,5892.246477109541
0.936,1.1738810286869674,5898.147362618611
0.94,1.195727866987973,5898.815485854874
0.944,1.211397158735686,5903.843784098274
0.948,1.2207532078771064,5902.85683871853
0.952,1.2242864350899516,5898.781842292314
0.956,1.2226237510983007,5898.943661268364
0.96,1.21626356662217,5892.832404712654
0.964,1.2057132090184999,5905.027229799805
0.968,1.1919799313029293,5903.273047895649
0.972,1.1770754243829655,5905.14643523536
0.976,1.164069846741162,5898.584520065707
0.98,1.1564124385410175,5907.595329501724
0.984,1.1566718583706554,5907.31996980187
0.988,1.165291711515568,5906.245116787708
0.992,1.1800643027665711,5897.234779951176
0.996,1.1966673592551527,5904.381016677766
1.0,1.2100432725712453,5902.803308995024
1.004,1.216022536913432,5898.872120049481
1.008,1.2125731590530482,5904.046955145138
1.012,1.2003028757386704,5893.094397615742
1.016,1.182150533842295,5906.534998126692
1.02,1.1624212980593878,5898.14602390677
1.024,1.145449096166217,5898.105631690434
1.028,1.1342954808103498,5893.402396557751
1.032,1.1299728087442058,5896.327965733978
1.036,1.131534059744812,5902.030465651164
1.04,1.1369514968786172,5893.544388995555
1.044,1.144250307795458,5902.917138653161
1.048,1.1522264576324137,5899.43960993548
1.052,1.160376841294591,5898.521306151863
1.056,1.1681840397388794,5897.703651328756
1.06,1.1743297238579637,5899.887606324406
1.064,1.1765350251457019,5896.570640568011
1.068,1.1723914216295719,5890.726574053309
1.072,1.1608860913677879,5907.161746910709
1.076,1.1438160531337858,5895.013277992323
1.08,1.126270890943177,5899.113637647612
1.084,1.1157498983359257,5901.477965292152
1.088,1.120026107698182,5895.19649631106
1.092,1.144428232903909,5890.9492341213445
1.096,1.1895637644857953,5900.994503129513
1.1,1.250390428437046,5894.678091926206
1.104,1.3170010263816188,5896.044341629273
1.108,1.3768732790282796,5901.312711273519
1.112,1.4179115715656503,5907.149085136169
1.116,1.4314012041564657,5884.009368942298
1.12,1.414034701527776,5893.799693958927
1.124,1.368501594315702,5898.422163374754
1.128,1.3026397809786048,5908.132578246227
1.132,1.2275805709357763,5896.160505728929
1.136,1.155513654256924,5902.55808711534
1.14,1.0976336124186037,5900.38265397294
1.144,1.0625752216519426,5902.946290756772
1.148,1.0553462499409498,5901.487621422479
1.152,1.076634469086645,5892.333917218104
1.156,1.1225033597628946,5904.843265120254
1.16,1.1847231051072282,5897.016596370358
1.164,1.252003078689987,5906.364125421192
1.168,1.312086629377175,5906.225142277196
1.172,1.3542384133850445,5895.834782728165
1.176,1.37142436274179,5907.646056327513
1.18,1.3615962817693128,5901.433588385074
1.184,1.3278012379628652,5899.519801820255
1.188,1.2771487358088673,5898.629510577454
1.192,1.218957200787092,5893.425968346488
1.196,1.1626501448741107,5906.425810574338
1.2,1.1160229913309665,5893.778890727154
1.204,1.0842639243964638,5899.500573221724
1.208,1.069770119921764,5897.704354714524
1.212,1.0725826786140649,5896.136060646808
1.216,1.0911611872168594,5904.621689580461
1.22,1.123135958854259,5902.673803285084
1.224,1.165697034917713,5902.323701459284
1.228,1.215542540183192,5904.430463827861
1.232,1.2686788744943631,5900.487779173569
1.236,1.3204947512117557,5910.210840666913
1.24,1.366303125121166,5899.132458757419
1.244,1.4021999604819053,5895.284275366905
1.248,1.4258798506942512,5907.175205590226
1.252,1.4370407658825435,5896.142403229832
1.256,1.4371852383999122,5899.77210398782
1.26,1.4289179911077552,5899.074155269303
1.264,1.4150976674102234,5903.867648246732
1.268,1.3982406340366362,5900.040706764263
1.272,1.3803403157112974,5898.662310935775
1.276,1.3629482616613726,5897.011631785848
1.28,1.3472510698986042,5887.766267280783
1.284,1.3340289175926003,5902.833622330819
1.288,1.3235950264011407,5898.899496198374
1.292,1.315870116243529,5899.607412378302
1.296,1.3105936578594088,5897.573066073077
1.3,1.3074967797146249,5889.406426483652
1.304,1.3062841518430168,5901.070519515258
1.308,1.30645948312591,5898.575856849994
1.312,1.3071539327836488,5901.813749081946
1.316,1.3070920744585757,5897.2356724778665
1.32,1.3047583568029604,5899.995181139724
1.324,1.2987722423826873,5888.416676538245
1.328,1.2883891965650789,5897.805288644756
1.332,1.273911539279258,5895.480541399621
1.336,1.2567609879632446,5898.13029109538
1.34,1.2391384919109882,5905.531341684996
1.344,1.223435186576976,5902.613993692325
1.348,1.2116324167485164,5899.121219782404
1.352,1.204841007647641,5906.934726005908
1.356,1.203066379219638,5894.175259047323
1.36,1.2052906595690875,5904.041041007228
1.364,1.2098985580294865,5904.200696268991
1.368,1.215301920004196,5898.537412751947
1.372,1.2204867945108557,5905.791633507053
1.376,1.2252377279881799,5896.613230675944
1.38,1.2299400572141481,5902.552547047121
1.384,1.2350155614608052,5897.705401957783
1.388,1.2401903625499393,5900.479115521399
1.392,1.2439439527059317,5902.858784210264
1.396,1.2435401640660817,5898.183774411401
1.4,1.2358128432258266,5899.611450640332
1.404,1.2184111466317897,5889.658732880229
1.408,1.190877830479954,5890.6617039366165
1.412,1.1550463346481383,5894.966174782816
1.416,1.1146485622446012,5900.873302355275
1.42,1.0743812841900497,5902.902255821002
1.424,1.0388636014266797,5899.10466283216
1.428,1.011921562322225,5897.500660729211
1.432,0.9963923483394554,5892.1078909790585
1.436,0.9942485089753953,5901.786926941421
1.44,1.0066280794102087,5894.1698287817735
1.444,1.0334991657469903,5907.051822550011
1.448,1.0730357067914538,5899.436064454645
1.452,1.1210849897584,5904.528480037549
1.456,1.1712124451446122,5904.473999091921
1.46,1.2156438719858726,5900.682362751957
1.464,1.2470113342400395,5909.9980077096525
1.468,1.2603286159181821,5900.073702340042
1.472,1.2543842261442417,5908.082665775452
1.476,1.2319563271439828,5899.690359316905
1.48,1.1987999973762917,5896.88830477687
1.484,1.161848081137787,5896.257524046414
1.488,1.1272372806791369,5908.579050790679
1.492,1.0987108536683756,5900.652071150745
1.496,1.0768684972245908,5895.135617309645
1.5,1.059585270678473,5901.892588301955
1.504,1.0435156717605565,5912.294287596711
1.508,1.026048509372975,5890.517921644402
1.512,1.0067760127150303,5894.528521439397
1.516,0.9877437727437008,5895.938493928861
1.52,0.9723930057835545,5899.173147828
1.524,0.9638443980992127,5910.002146976041
1.528,0.9635096346521105,5897.80520506486
1.532,0.9706940585565518,5893.747182655245
1.536,0.9831471881437818,5906.279703456961
1.54,0.9980056803613109,5895.602469558536
1.544,1.012581258788079,5890.956345920097
1.548,1.0247822844239027,5900.146803063153
1.552,1.0332285035042417,5895.423538907001
1.556,1.0371745509692887,5900.438194439356
1.56,1.0363092828978901,5895.832275748875
1.564,1.0304863174592145,5896.155832063841
1.568,1.019524983289339,5899.758105059195
1.572,1.0032966106832297,5902.318384726179
1.576,0.9821811042134698,5906.488381377815
1.58,0.9576791026803386,5901.343459050391
1.584,0.9328000370003101,5889.791611791943
1.588,0.9119514292498744,5900.226609695151
1.592,0.9002437292041382,5903.505898110111
1.596,0.9022655376813603,5897.88090556361
1.6,0.9205765149535147,5892.322299460768
1.604,0.954427386007762,5898.752435750372
1.608,0.9993105608602977,5908.6096342608
1.612,1.0476938154168212,5901.14936244267
1.616,1.090807307970419,5902.709597356254
1.62,1.120879770345085,5903.138546654012
1.624,1.1329886950702588,5903.045029337799
1.628,1.1258819641640245,5898.795823246563
1.632,1.1016609974352378,5908.250617808671
1.636,1.0647372119563814,5903.315410394922
1.64,1.020683071572168,5896.768895119494
1.644,0.9754181456746909,5898.388723845757
1.648,0.9347453497339651,5900.906644629165
1.652,0.903936552221666,5907.304969530211
1.656,0.887147294792317,5899.699827990715
1.66,0.8867722101211016,5898.385672994174
1.664,0.9030208654482665,5895.552312469697
1.668,0.9338501849606472,5899.281854380727
1.672,0.9751803226692182,5901.045667502409
1.676,1.02129834380178,5904.420997246345
1.68,1.065467856514361,5900.888702822601
1.684,1.1007881981936323,5902.32736171303
1.688,1.1212118199506678,5890.271590901727
1.692,1.1224764119217323,5900.92248154955
1.696,1.1026806162946303,5899.089278111408
1.7,1.0623625401549122,5903.406924458853
1.704,1.0041881273688102,5895.8760085717895
1.708,0.9325579498423671,5906.462743151025
1.712,0.8533838499666582,5895.03760457179
1.716,0.7740032975006121,5911.764662597174
1.72,0.7029657098453093,5904.167960715755
1.724,0.6493971536357487,5886.85598041024
1.728,0.6217702963695151,5900.872862925161
1.732,0.6261343109260615,5901.583390861254
1.736,0.6641866204544611,5898.8991962010205
1.74,0.7318684147018509,5900.467495932692
1.744,0.8192396242651301,5907.981526359677
1.748,0.9121054932819316,5904.9207345582245
1.752,0.9952345309602809,5900.983761663791
1.756,1.0562488793874627,5899.480362549431
1.76,1.0887971786563946,5904.581382320438
1.764,1.0937762775363085,5907.002494159196
1.768,1.0781373559487197,5899.019103725308
1.772,1.0518315423069122,5900.786945211922
1.776,1.0242134687930604,5907.1001108447645
1.78,1.0013196952411298,5902.418631251736
1.784,0.9848460236191874,5904.655195960373
1.788,0.9728142049455217,5903.8292831935705
1.792,0.9613647534731364,5893.2935612687725
1.796,0.9469285667164404,5899.267080789512
1.8,0.9279960756120892,5908.089358736873
1.804,0.9057880066806664,5898.960157323133
1.808,0.8835321581286844,5908.819301774188
1.812,0.864737203354444,5901.0765178058855
1.816,0.8513984052318391,5901.056266698554
1.82,0.8430619250703821,5901.6386353196085
1.824,0.8371609140677049,5905.555526126509
1.828,0.830394492172613,5901.215205445874
1.832,0.8204530253249113,5901.333954177707
1.836,0.8072256081084171,5903.052545508627
1.84,0.7928515379028362,5897.270970313686
1.844,0.7806124305366868,5904.841531862831
1.848,0.7733852616598175,5905.100523431855
1.852,0.7726127595736777,5895.501435321168
1.856,0.7782739454825024,5893.110552209406
1.86,0.7895973109490289,5913.522563676379
