时间(s),电压(V),幅值(高频80K)
0.0,1.0412743071639132,5908.973145083455
0.004,1.1360293197193112,5900.852533600699
0.008,1.2222769719592024,5905.7767015860645
0.012,1.2943279716462759,5904.275191731394
0.016,1.35082559023875,5894.898974380099
0.02,1.3944927026725344,5902.704381292806
0.024,1.430395464141405,5904.329008294892
0.028,1.4634984807730964,5911.525406633638
0.032,1.4964622565788004,5896.750777392498
0.036,1.5285384804814024,5893.040045938011
0.04,1.5560134476736571,5907.189342505191
0.044,1.5739771669939808,5897.256509848306
0.048,1.5785291413721922,5904.047581159664
0.052,1.5683096954609808,5903.99514431254
0.056,1.5447089478336304,5893.107958268925
0.06,1.5109347022049369,5904.957081745809
0.064,1.4706883132245507,5893.464313253651
0.068,1.4272134697673642,5902.21129984758
0.072,1.3831160608158768,5900.2922375905055
0.076,1.3408455952645777,5905.277408651876
0.08,1.3032790735241828,5888.08944761374
0.084,1.2737386149679697,5906.3457906132935
0.088,1.2551654840234363,5895.678014430315
0.092,1.2488153150563508,5903.494747079769
0.096,1.2532645827296183,5902.99199892373
0.1,1.2644586482999882,5904.684594095377
0.104,1.2770222502036574,5896.156385316749
0.108,1.2863415372810807,5899.274053313189
0.112,1.2904270515473313,5904.406986674477
0.116,1.2906409025499876,5911.204781848236
0.12,1.290973241445163,5914.491741770413
0.124,1.2962585260485282,5896.056846218851
0.128,1.310128878298347,5905.397865206101
0.132,1.3334759583365614,5905.738324594318
0.136,1.3638528941920143,5908.485348067049
0.14,1.3958725313711606,5903.161508653401
0.144,1.4224611351914491,5896.582355915091
0.148,1.4367187943792006,5897.705850811705
0.152,1.4339141088375928,5901.2137233779695
0.156,1.412918626155267,5904.183199081577
0.16,1.3765057773823541,5897.75542824736
0.164,1.3304174629563392,5903.758894920613
0.168,1.2815995036873986,5898.814454093502
0.172,1.236290792776754,5897.16410177545
0.176,1.1986973281525015,5904.025188570385
0.18,1.1707407591223515,5901.684165813056
0.184,1.1528207950750735,5905.401654852291
0.188,1.1449550412979048,5906.4014376148025
0.192,1.1475168246309055,5901.8545263428
0.196,1.1611879564092031,5892.222454884581
0.2,1.1862750225467853,5909.788801909227
0.204,1.221789023290559,5901.124734156697
0.208,1.264658658392207,5894.457958292496
0.212,1.3093731686178078,5906.794512102884
0.216,1.348324903664392,5899.210562690069
0.22,1.3730310908259524,5898.819071332914
0.224,1.3761562577960555,5896.536479839228
0.228,1.3538878193785528,5897.18102158607
0.232,1.3078889722438314,5899.300443836012
0.236,1.2459561954241987,5901.307163210151
0.24,1.1808240801767051,5900.38055886189
0.244,1.127239479780068,5911.139008539564
0.248,1.0981235834299343,5904.157053085464
0.252,1.101024737951289,5897.06967646524
0.256,1.1360409353403718,5899.284500342947
0.26,1.1959640163432994,5899.022774838342
0.264,1.2686226731785537,5903.531960010012
0.268,1.3405493318784447,5899.560686783336
0.272,1.4006125269838328,5902.839391973373
0.276,1.4424162310413986,5893.578612936395
0.28,1.4649331214503605,5898.7178037411295
0.284,1.4715672390771373,5897.900184160576
0.288,1.4682423322295644,5898.552985467777
0.292,1.461152550377992,5900.851972234593
0.296,1.4547350477873426,5899.141676693288
0.3,1.4503752143602462,5897.2202647908125
0.304,1.4462257788215074,5895.635356130218
0.308,1.4381909970391131,5887.81477462705
0.312,1.421722004683982,5893.058951363282
0.316,1.3938335271044795,5894.122875355111
0.32,1.354735112065155,5901.173133080321
0.324,1.3085386173317632,5902.506217659067
0.328,1.2626305600920475,5900.959799605612
0.332,1.2256304087395449,5893.857101858386
0.336,1.2044634775642071,5898.109797015713
0.34,1.2016955741338144,5903.729217891804
0.344,1.2143959039160552,5906.831161410412
0.348,1.2351545791281675,5900.562216472651
0.352,1.2548366648329319,5895.5737341517415
0.356,1.2658737171637053,5891.007168909347
0.36,1.2647598518184067,5908.470052370717
0.364,1.2528683437250856,5898.960203902743
0.368,1.2354560971555026,5909.589324220108
0.372,1.2194406288571429,5896.748649742741
0.376,1.2109118945378743,5899.859719741958
0.38,1.2132707824970923,5894.903464907825
0.384,1.226500438495879,5891.718070993162
0.388,1.2475988256303507,5894.1802930756585
0.392,1.2718191999843496,5896.667730957449
0.396,1.2941858177638417,5904.402639896513
0.4,1.3107859130669925,5902.00650706209
0.404,1.3195332662943124,5898.32780741932
0.408,1.3203463699701512,5900.652480146332
0.412,1.3148527215669565,5902.85275657397
0.416,1.3057917031702058,5899.449024692603
0.42,1.2963180396432106,5902.135342033972
0.424,1.289400683876901,5894.103203800833
0.428,1.2873930023565645,5896.764537464074
0.432,1.291694887885097,5901.585668957009
0.436,1.3024276378773576,5896.954303973364
0.44,1.3182070990146684,5900.447392400155
0.444,1.336200989105606,5893.196522246058
0.448,1.3525552106439036,5901.78071328788
0.452,1.363120564115858,5912.685970761559
0.456,1.364355053443639,5906.664625290327
0.46,1.3542225377484105,5904.963859942099
0.464,1.3327991063352025,5900.087215722407
0.468,1.302331276427243,5897.087736567219
0.472,1.2667546249119404,5904.243391248125
0.476,1.2309300210716116,5900.681108710322
0.48,1.1998580328404962,5917.00183770282
0.484,1.1779621646209861,5897.688909674218
0.488,1.1684042926318707,5903.953949538902
0.492,1.1724418214028471,5905.116299723286
0.496,1.1890062761093472,5897.95385308904
0.5,1.2147830057610813,5907.07012549181
0.504,1.2449495940189748,5902.554019630884
0.508,1.2744292394354566,5893.30045458846
0.512,1.2992161540192808,5899.439042720771
0.516,1.3172331691183452,5904.171552688322
0.52,1.3284034711573391,5902.881313063103
0.524,1.33405497461697,5903.080103840081
0.528,1.336112808760917,5896.898946226442
0.532,1.3365203174618487,5907.518607166352
0.536,1.3370234734266204,5892.303517534572
0.54,1.3391648715313735,5900.215147589479
0.544,1.344288006382814,5892.573513069974
0.548,1.3534725225260975,5901.177062235075
0.552,1.3673925598328247,5896.067113752843
0.556,1.3860755921559593,5894.278549737087
0.56,1.4085593447313065,5907.061790644538
0.5640000000000001,1.4325529046318062,5894.643541787187
0.5680000000000001,1.4543511388047992,5905.172603484287
0.5720000000000001,1.4693203487084205,5904.481030884205
0.5760000000000001,1.4731084861456945,5899.243777366747
0.58,1.4632817650173815,5892.625179847172
0.584,1.4406206423238705,5902.627078789987
0.588,1.4092592582599408,5913.357300984727
0.592,1.3753713181979292,5896.102519698907
0.596,1.3448757493043757,5900.2291489443305
0.6,1.3211736920949744,5899.096790805121
0.604,1.3039535117315288,5904.872410928666
0.608,1.2896359491755125,5894.845412103365
0.612,1.2732925791941943,5899.29201853013
0.616,1.2511714005178172,5899.934713164956
0.62,1.2226578989608736,5900.0772484636855
0.624,1.1907806396615497,5901.6526867414
0.628,1.1610818125198297,5895.805948085084
0.632,1.1394491073421573,5899.160704808862
0.636,1.1299908428655419,5901.81527136221
0.64,1.1339486113466255,5901.309607808569
0.644,1.149963969460834,5905.365606997578
0.648,1.1752080301280836,5901.371300942659
0.652,1.2065452513689847,5905.1215523531455
0.656,1.2411765065657763,5893.418091955417
0.66,1.2767214335995394,5900.040020907746
0.664,1.3110343547963645,5892.553870535062
0.668,1.3420731008477056,5901.749895741867
0.672,1.3679892510987144,5890.817180441628
0.676,1.3874452562579063,5905.944608658485
0.68,1.4000467002014925,5903.018822902293
0.684,1.4067183588377428,5889.725515192491
0.6880000000000001,1.4098615008753577,5895.619091446668
0.6920000000000001,1.4131731925293436,5897.662770766271
0.6960000000000001,1.421038846736947,5892.174956124199
0.7000000000000001,1.4374517610463895,5903.762208789792
0.704,1.4645561020561306,5912.570985995979
0.708,1.5011825717655656,5908.528717449283
0.712,1.5419983379027713,5901.453044752382
0.716,1.5778696307915567,5894.219415529824
0.72,1.597652643428289,5893.620425799482
0.724,1.5910866201628657,5904.611980402218
0.728,1.5520192843877811,5901.023759600136
0.732,1.480958783529756,5899.521999101244
0.736,1.385977928504326,5904.1078022403535
0.74,1.2814036514227207,5896.136802521417
0.744,1.1844851929374838,5896.811700486577
0.748,1.1110316595796108,5891.813093528073
0.752,1.0714243336990892,5902.1616718174855
0.756,1.0682575156997498,5906.802139302602
0.76,1.0962701006489926,5894.354139087039
0.764,1.1444643638352232,5904.290376201026
0.768,1.199624195326464,5900.330768566821
0.772,1.250039809470614,5889.415071151828
0.776,1.2882469306426192,5896.972428982982
0.78,1.3120229325881083,5885.131788104977
0.784,1.32359792707449,5892.862307445336
0.788,1.3276883203422702,5903.229866783656
0.792,1.3292226270645036,5906.902568169166
0.796,1.3314826358716483,5900.386907856551
0.8,1.3350814089504703,5900.094643387306
0.804,1.337966063588419,5897.19668300418
0.808,1.3364264246483717,5898.340555613769
0.812,1.3267704380772793,5897.928199395493
0.8160000000000001,1.3070198028694588,5898.643706087038
0.8200000000000001,1.2779991793457577,5901.085250653487
0.8240000000000001,1.2435563521660469,5902.5703543920645
0.8280000000000001,1.2099912825196784,5900.25114945997
0.8320000000000001,1.1848296746673652,5895.015941421751
0.836,1.175039877280989,5894.206536337839
0.84,1.1849938912789806,5899.995348900381
0.844,1.2148542528920363,5899.354274786444
0.848,1.2601608260157457,5899.993415615863
0.852,1.3129062683840167,5902.4984493248085
0.856,1.3636395533522663,5892.6032713140685
0.86,1.4037195553557529,5894.740340438465
0.864,1.4269910163954904,5908.216781285119
0.868,1.4306002767019357,5905.395691652474
0.872,1.4150427366633433,5904.246675194796
0.876,1.3837082249958639,5905.518384399967
0.88,1.3421858525625352,5896.282881951804
0.884,1.2974388801724943,5893.466855685829
0.888,1.256776813959935,5893.889201593855
0.892,1.2265493403894625,5897.517521968009
0.896,1.2107437627998987,5892.888434700579
0.9,1.2099689599285013,5910.417181207508
0.904,1.2213380718264355,5893.52039749239
0.908,1.2394285917733632,5905.513694248542
0.912,1.2580301922585102,5905.331447978093
0.916,1.2720910734179087,5901.711514229938
0.92,1.2792354744398016,5897.462056393574
0.924,1.2803598604105721,5904.368497027004
0.928,1.2790680900094504,5903.080659199179
0.932,1.2800843434353413,5903.567532513569
0.936,1.287212286404438,5909.64623144567
0.94,1.3016612391127018,5902.467308755428
0.944,1.3214135873431498,5901.208132123617
0.948,1.3418197066052355,5911.099595533907
0.952,1.3571000341067272,5900.292282402579
0.956,1.3621677670518828,5895.871860178285
0.96,1.354175079982993,5898.509323423542
0.964,1.3333238698573173,5891.976508727755
0.968,1.302705381385285,5898.354626364349
0.972,1.2672561842624002,5900.990888157912
0.976,1.2322914709389423,5893.226266893294
0.98,1.2022526531233273,5892.964136719418
0.984,1.1800710168382953,5898.710397577948
0.988,1.1671058978209612,5901.14738149864
0.992,1.1633994088857833,5899.366930808103
0.996,1.1680633695889981,5895.974567440213
1.0,1.1796640559075915,5898.236745740957
1.004,1.1964199285743542,5900.135921498294
1.008,1.2161408253845738,5903.721439086622
1.012,1.2361448856031245,5897.11797847065
1.016,1.2535270876814604,5898.058061366995
1.02,1.2658975812949782,5902.63674800466
1.024,1.272286930943847,5899.520235499828
1.028,1.2736938642782627,5898.7860462756
1.032,1.2728661241487154,5898.3210127402735
1.036,1.2732466809812022,5898.856860661254
1.04,1.2774048730885943,5901.135320685748
1.044,1.2855705128966728,5902.811001698119
1.048,1.294974457027518,5899.292363495505
1.052,1.300440196367035,5904.2850297835785
1.056,1.296112674861458,5906.118936266948
1.06,1.2776796342023324,5903.9002670742175
1.064,1.2442604664248835,5910.004531259233
1.068,1.1993201606447805,5899.029023986769
1.072,1.1503207172314311,5901.970501637496
1.076,1.1071970975022365,5905.511995144246
1.08,1.0800484867581912,5900.762707229425
1.084,1.0766116437383382,5901.6425990559865
1.088,1.1001485705960936,5898.26822137711
1.092,1.1483562970839032,5890.326810586774
1.096,1.2137135851195897,5908.027899683802
1.1,1.285258007255563,5898.120847484278
1.104,1.3512704880618804,5907.320130458329
1.108,1.4019871905178758,5899.600282220549
1.112,1.4314484185597278,5901.333960230277
1.116,1.4379744006844646,5896.815297528606
1.12,1.4233814631563368,5902.9948629423225
1.124,1.391564538627694,5894.418790452743
1.128,1.3471372319789627,5900.975230278955
1.132,1.294491309774984,5903.122512893367
1.136,1.237335617470424,5909.00278072651
1.14,1.178742393848835,5896.0949628075
1.144,1.1217021446551045,5896.661171757723
1.148,1.069884531754558,5896.588993196156
1.152,1.0279871110811745,5904.944970573334
1.156,1.0011951178845666,5894.234010481559
1.16,0.9938431769685632,5901.957914812818
1.164,1.0078937421377285,5906.78050467012
1.168,1.041987866822227,5910.390767321948
1.172,1.0915478217330699,5899.179090785629
1.176,1.1498525129861772,5898.169784462515
1.18,1.2094851736446073,5908.9713635405205
1.184,1.2634857897100493,5903.148947844576
1.188,1.3060020827113417,5903.07276976752
1.192,1.3327426964214848,5898.268304753505
1.196,1.3415591917113987,5899.6433338255165
1.2,1.3330455193685713,5900.399070206114
1.204,1.3106678309590911,5896.869177181756
1.208,1.2800458492070437,5902.083019517091
1.212,1.247506845962867,5903.030272780542
1.216,1.2184670970469451,5903.161389338761
1.22,1.1962381941303177,5900.896503192896
1.224,1.1815842984246263,5895.160391654032
1.228,1.173037792149891,5904.608147178681
1.232,1.1677683884609604,5901.650367163895
1.236,1.162709968780908,5899.168003572441
1.24,1.1556457540395744,5908.211578168589
1.244,1.1459712646458007,5903.499223891162
1.248,1.1348752436083067,5899.131166235302
1.252,1.1248092329024701,5905.507356900898
1.256,1.1184355471409542,5900.589354476861
1.26,1.117570717459579,5908.574490609844
1.264,1.1226668057220568,5898.676019746499
1.268,1.1330354437056889,5900.0369923974695
1.272,1.1475934059317858,5899.052959149743
1.276,1.165669262997708,5897.420082591138
1.28,1.1873916554335846,5901.764552641795
1.284,1.213343311823827,5899.7220539974805
1.288,1.243547609384728,5913.18383032357
1.292,1.2763421063215972,5899.642878937749
1.296,1.3079162541013496,5905.450707190747
1.3,1.3329881734023843,5903.94611172822
1.304,1.3464337624258933,5911.9646179247775
1.308,1.3451048491066706,5902.6938149680855
1.312,1.3289520645137705,5898.922483837681
1.316,1.3009592926909919,5903.5381724037
1.32,1.266030489098482,5892.510923786984
1.324,1.229457582072995,5901.405828370153
1.328,1.1956860208855167,5900.466422100213
1.332,1.167798658780855,5899.681814365306
1.336,1.147692759810361,5906.903276634438
1.34,1.1365819192958535,5899.779088437743
1.344,1.135355633903422,5901.146835586767
1.348,1.1445004712688196,5907.555220680213
1.352,1.1636178184335781,5895.014606352516
1.356,1.1908446018781673,5900.115920518881
1.36,1.2225465381849823,5894.989725424462
1.364,1.253531199491946,5899.635398684815
1.368,1.2778120072047405,5897.871828440219
1.372,1.2897332599820384,5891.660393646654
1.376,1.2851474024634122,5904.610204290111
1.38,1.262375330563433,5904.6610621171
1.384,1.22280275355575,5898.478513485528
1.388,1.1710400560908825,5899.902204644498
1.392,1.114546596445278,5895.938835188843
1.396,1.0625706611298913,5903.2764471997
1.4,1.024350860410149,5900.603050441805
1.404,1.0068535556064782,5895.4616484676735
1.408,1.0127239412211526,5906.351803598109
1.412,1.0392734059180555,5907.795251797891
1.416,1.0790103972615626,5900.246591362667
1.42,1.1215836612926144,5900.726971583577
1.424,1.1564341150944584,5904.257229009447
1.428,1.1752676394076258,5905.738746349043
1.432,1.1736686410306723,5903.184346882763
1.436,1.1515465044001656,5906.365262273352
1.44,1.112478270388145,5890.031960325181
1.444,1.0623338926161114,5896.815681907516
1.448,1.0077439770268466,5899.154477970832
1.452,0.9548675410600601,5900.723083299038
1.456,0.9086216248278017,5902.007980935366
1.46,0.8723020626546569,5904.557070241124
1.464,0.8474811479109775,5901.211358151996
1.468,0.8341304825507453,5906.64966835255
1.472,0.8309667707208707,5907.2376402481
1.476,0.8359889607948889,5900.6169832812175
1.48,0.847076796921179,5901.18213513159
1.484,0.8624446070435773,5896.148518635764
1.488,0.8807654806786147,5907.099408199989
1.492,0.9008950822978021,5903.9754971534485
1.496,0.9213054908018822,5898.820822408986
1.5,0.939557195838207,5898.844425215872
1.504,0.952273903817202,5898.258440826882
1.508,0.9559429983717059,5899.182011596444
1.512,0.9483944784128776,5901.210101078216
1.516,0.9302958589522805,5910.1806557175705
1.52,0.9058449562981599,5908.710020542745
1.524,0.8821664407468153,5902.322109562139
1.528,0.867482546245521,5894.824940573361
1.532,0.8686323954791492,5894.852185404153
1.536,0.8887937448882534,5912.499352093379
1.54,0.9262324234004423,5906.506433511674
1.544,0.9745653666865758,5901.346668399624
1.548,1.024512432627031,5898.841347881053
1.552,1.066606582570268,5903.746660018557
1.556,1.0939630191607086,5919.49388871132
1.56,1.1041335762095912,5908.370863834783
1.564,1.0994013025135239,5904.157634657247
1.568,1.0854798581853091,5908.042537848319
1.572,1.0691949019380202,5900.924409814394
1.576,1.056097913728717,5898.926824218668
1.58,1.0489307279564588,5899.527586278055
1.584,1.0474044163587344,5906.6037795662005
1.588,1.0491311540819832,5903.426097973923
1.592,1.05110432346096,5899.760070043567
1.596,1.0510172457096818,5906.492504923277
1.6,1.0479125466687973,5911.643944385514
1.604,1.0420730501008215,5918.126340725259
1.608,1.0345021789954243,5905.760647715887
1.612,1.0264877370973815,5897.357029847487
1.616,1.019465964076682,5909.785349617778
1.62,1.0149742216854996,5902.5480060597165
1.624,1.0143318944316946,5907.199162645826
1.628,1.0179544387205253,5904.578446489608
1.632,1.0246179605000256,5906.016783150477
1.636,1.0311856757452527,5906.949429959888
1.64,1.0331199244591698,5906.853529150671
1.644,1.0256638936521558,5901.504882523572
1.648,1.0052216261119433,5910.749614778407
1.652,0.9704493838683982,5901.974484058964
1.656,0.9228038133999273,5903.615475347143
1.66,0.8664926213806367,5902.277396221024
1.664,0.8078496817650814,5906.640091033162
1.668,0.7542065638662273,5912.082660681033
1.672,0.7124214308948943,5907.543239512893
1.676,0.6873677972561392,5895.62765537074
1.68,0.6808323148880718,5911.590879762968
1.684,0.691229409156526,5909.596398463247
1.688,0.7141844324498221,5913.467807862969
1.692,0.7436127028649779,5905.246149574738
1.696,0.7728338290779235,5906.159920792438
1.7,0.7955477073536149,5901.559933656603
1.704,0.8067773348708711,5912.0215572556845
1.708,0.8038396846516013,5914.643034721241
1.712,0.7871521250770228,5908.659241239759
1.716,0.7605419608053389,5901.655751996526
1.72,0.7308162922648376,5903.885458298215
1.724,0.7065424331409925,5899.121596795881
1.728,0.6961810039849613,5905.995897916346
1.732,0.705917703982017,5913.065812033738
1.736,0.7377619433370609,5900.651675819019
1.74,0.7885994533216288,5897.759401670731
1.744,0.8506967486945664,5906.232032290035
1.748,0.913614399920757,5909.51718274725
1.752,0.9668662687965803,5909.311140209966
1.756,1.0023453712847643,5918.037081190115
1.76,1.0157120634975807,5906.966374291612
1.764,1.0064980401506807,5909.414472964029
1.768,0.9772758764331189,5913.197931059905
1.772,0.9325216664857965,5902.843686791602
1.776,0.87765841863671,5902.696644899898
1.78,0.8184016303295548,5907.412216475301
1.784,0.7602338703097168,5910.6742981423
1.788,0.7078101700820202,5898.625964864064
1.792,0.6643125282007023,5911.968875475449
1.796,0.6310186379438799,5896.609730561724
1.8,0.6073881345000145,5912.452077049583
1.804,0.5917040469262911,5896.686428159132
1.808,0.5819294334624957,5900.123025348471
1.812,0.5763074111798537,5901.243150590668
1.816,0.5734814410669784,5922.165597966891
1.82,0.5723104306024874,5902.217552399387
1.824,0.5717785036554288,5902.187776065328
1.828,0.5712956453126384,5903.981614969125
1.832,0.5713028602510956,5908.076635110676
1.836,0.5736849858135005,5901.484561088921
1.84,0.5814158746015297,5906.327969275608
1.844,0.5972905325490757,5911.599908944418
1.848,0.6222742695741783,5905.3983838792565
1.852,0.6543712114008486,5906.381225010679
1.856,0.6886595936723156,5909.316550220629
