时间(s),电压(V),幅值(高频80K)
0.0,1.349576076579273,5903.489092691833
0.004,1.3432813415059186,5901.4165966517885
0.008,1.3311929091294004,5903.376878857418
0.012,1.3099596056911662,5897.515128395944
0.016,1.279045757302713,5893.556825475786
0.02,1.2409763915192351,5906.02206926584
0.024,1.2008528482510004,5895.447564992811
0.028,1.165309095146569,5893.870476676468
0.032,1.1410647221426946,5904.019100354984
0.036,1.1333959245160155,5900.473846244695
0.04,1.1449682456410732,5907.318692199986
0.044,1.1752883100050775,5894.316492958732
0.048,1.220697836419225,5888.159933196545
0.052,1.2747148868038995,5902.167412296506
0.056,1.32869871299212,5899.755064645574
0.06,1.3729928416272799,5898.733706858207
0.064,1.3985921680531503,5905.706113842977
0.068,1.3990175025436005,5900.38722429149
0.072,1.3718162361808999,5889.380621628372
0.076,1.3192337158451712,5899.750289385129
0.08,1.247994670762484,5898.575310709901
0.084,1.168370231314118,5898.853549525201
0.088,1.0925920559175655,5900.675380704962
0.092,1.0325653228737817,5900.249253595047
0.096,0.9971622509467376,5899.0221908343065
0.1,0.9899565320964343,5907.09485320353
0.104,1.0084009518360568,5905.498453718127
0.108,1.0448586930432222,5903.823561878448
0.112,1.089032390646296,5897.963155797729
0.116,1.1308251229457542,5899.745956190318
0.12,1.1627112006413975,5905.965385546646
0.124,1.1810616646014922,5913.396117363058
0.128,1.1862550402814778,5907.113728769473
0.132,1.181711836053012,5892.085399514649
0.136,1.1722835564966385,5906.259675397911
0.14,1.1626428181965867,5898.868929079382
0.144,1.1562551952757918,5893.850147517688
0.148,1.155123816922958,5888.504870522435
0.152,1.1600387836064876,5897.098094385628
0.156,1.170864271962912,5902.621754861307
0.16,1.1865922154127737,5892.091152930928
0.164,1.205291038941157,5899.861888804588
0.168,1.2242657440202949,5897.45450937668
0.172,1.2405265684848195,5902.599709084615
0.176,1.2513545400700328,5897.1194443351
0.18,1.2547452785119773,5896.406429598998
0.184,1.2497235987401945,5902.997604956808
0.188,1.2366109926138094,5899.560466662971
0.192,1.2172136311554609,5902.724513199972
0.196,1.1947534227155485,5908.090907187245
0.2,1.1733540792255237,5901.602395563564
0.204,1.1570801213299173,5893.843623822206
0.208,1.1488165837778346,5884.669018694717
0.212,1.1494359809365027,5902.794946045849
0.216,1.157585339308739,5898.974069463405
0.22,1.1701498825413652,5902.647671979244
0.224,1.183189093992807,5912.114093790315
0.228,1.1929710297945437,5898.447191782625
0.232,1.1967222121496903,5894.238534652782
0.236,1.1929188368453991,5906.079354287248
0.24,1.1812223411772043,5905.6447772582815
0.244,1.1622661454133705,5898.403143652358
0.248,1.1374035196997225,5901.118524349471
0.252,1.1084023049314817,5907.090381616378
0.256,1.0770657700196398,5897.547381338546
0.26,1.0448787928502343,5910.012943455998
0.264,1.012883335556386,5898.05529505524
0.268,0.9818982959013853,5898.723033901766
0.272,0.9529306277277375,5903.621533472259
0.276,0.9274137031672328,5906.002333856323
0.28,0.9069732557329345,5903.012323480325
0.284,0.8927589376810167,5898.460224088169
0.288,0.8847545973322329,5904.549877490775
0.292,0.8815793467262508,5898.350946498169
0.296,0.8810042105480517,5897.576124843767
0.3,0.880958488585517,5896.621704916823
0.304,0.880513444076815,5904.374950635965
0.308,0.8803558773617427,5907.505000968046
0.312,0.882549588633842,5900.795501846766
0.316,0.8897616065410408,5904.089315056932
0.32,0.9043584086296723,5907.5678089345065
0.324,0.9277115067661585,5907.037319716114
0.328,0.9598319632111344,5896.896636285387
0.332,0.9993189767689036,5888.686440053772
0.336,1.0435852724620733,5897.54806875722
0.34,1.0892909078296593,5901.707929992072
0.344,1.1328702162378528,5910.484000936417
0.348,1.171057098215391,5896.382472557224
0.352,1.2013685797399318,5899.682059257154
0.356,1.2224959501820492,5898.560895051832
0.36,1.2345090603438051,5907.162276094485
0.364,1.2387859988647179,5901.018093739021
0.368,1.237631153316163,5903.753138635276
0.372,1.2336532719266793,5901.797255208372
0.376,1.229149107407242,5898.198674978509
0.38,1.2257953924192238,5896.412090900828
0.384,1.2247330340017446,5904.305056516189
0.388,1.2268157161488031,5899.6006241913165
0.392,1.2326960386738595,5896.620263094706
0.396,1.2425900759467532,5896.683255367467
0.4,1.2558339020226137,5898.754869301425
0.404,1.2705335823245019,5895.638832589869
0.408,1.2835761188460513,5896.392777282654
0.412,1.2910408937470075,5902.722705840701
0.416,1.2888519913111622,5905.325401759091
0.42,1.2735046515223514,5905.453222058512
0.424,1.2427940610001555,5909.061764547432
0.428,1.1965006314462021,5902.985575497628
0.432,1.1369066349857542,5893.136211057718
0.436,1.0689183504067248,5908.486348916924
0.44,0.9995616970894954,5903.20712293498
0.444,0.9367913945972758,5901.895204885489
0.448,0.8878576243354211,5900.678240626515
0.452,0.8577171061761933,5899.103134399722
0.456,0.8480008377299473,5907.562688358789
0.46,0.8568697052329436,5905.223353500587
0.464,0.879779661518654,5895.134399422192
0.468,0.9108442397216892,5890.460794567324
0.472,0.9442985693194464,5898.674403404807
0.476,0.9756259414600879,5903.101896039323
0.48,1.002115404270942,5902.558382221645
0.484,1.0228708079352915,5909.3467477095
0.488,1.0385021844297153,5897.486725334946
0.492,1.0507580448875016,5907.655567981519
0.496,1.0621669903633033,5903.613941273595
0.5,1.0755545052624689,5892.4270570726685
0.504,1.0933044379705152,5885.93657103657
0.508,1.1164352963268687,5908.059658257324
0.512,1.143803232693904,5901.1558506725805
0.516,1.1718837423519002,5901.063483266324
0.52,1.1955113450899233,5904.689417373776
0.524,1.2095889298529736,5906.114214282441
0.528,1.2111904534068103,5899.08360715318
0.532,1.2010522750865464,5898.631273785884
0.536,1.183628754425026,5896.844098998219
0.54,1.1656416867228903,5907.6028179359255
0.544,1.1538171948046925,5892.48749945384
0.548,1.1527852106792558,5897.273246820044
0.552,1.1638722550450542,5901.824893973244
0.556,1.1850089825207162,5905.036953758702
0.56,1.211526345568617,5899.704327428492
0.5640000000000001,1.2374519677857498,5889.542359282632
0.5680000000000001,1.2570152262506513,5895.498332942271
0.5720000000000001,1.2661703645340265,5901.432423439152
0.5760000000000001,1.2638531194901999,5898.174305720474
0.58,1.2525201532485604,5895.419914218075
0.584,1.2375995405068525,5901.3796391588885
0.588,1.2259165843860595,5895.263985895133
0.592,1.2236770234859768,5909.387705603301
0.596,1.2347858058017005,5914.039353334915
0.6,1.2600070313176486,5904.079478738914
0.604,1.2969527876217641,5906.193975500968
0.608,1.3405287981817176,5897.343734397482
0.612,1.3835115322071647,5894.345413399884
0.616,1.4172484336244524,5893.63845169272
0.62,1.4327121709149697,5908.836644370321
0.624,1.4221088020600894,5901.967605505031
0.628,1.3809616382367842,5899.051245490647
0.632,1.310180715084592,5905.781615143514
0.636,1.2172920366404283,5901.116660234376
0.64,1.116002581719015,5897.893890093895
0.644,1.02373539194642,5902.582103690547
0.648,0.9575447456539307,5897.35204665885
0.652,0.9295732639102083,5904.424671585705
0.656,0.9435743897783014,5902.428441777918
0.66,0.9937891991175867,5903.10537031704
0.664,1.0666654195200251,5905.234250662314
0.668,1.1448118095655555,5900.934663593345
0.672,1.2116899457192944,5904.850765536789
0.676,1.2553802806699303,5893.926004074233
0.68,1.270437427342955,5904.635378068163
0.684,1.2578479602548096,5900.638792062609
0.6880000000000001,1.2237109254199356,5899.937268063225
0.6920000000000001,1.177289682282755,5896.59775718559
0.6960000000000001,1.1288899845662617,5898.433933087938
0.7000000000000001,1.087909106133422,5904.433660504987
0.704,1.0613488539040028,5901.528697610706
0.708,1.0529684920385598,5899.371020173591
0.712,1.0630698153831397,5898.568571734091
0.716,1.0887684760992584,5901.271481553154
0.72,1.12463376891976,5896.445216737903
0.724,1.1637214173260853,5903.463123118308
0.728,1.199015028043992,5899.698197846887
0.732,1.2250135085804315,5899.336946020972
0.736,1.238949895756155,5898.957911945066
0.74,1.2412242952470376,5902.021223119086
0.744,1.234991158582754,5901.547388894808
0.748,1.2251501449035977,5895.108521365812
0.752,1.2170936542869233,5905.0050510294
0.756,1.215502927022737,5897.047280086052
0.76,1.2233653604176795,5905.37840263645
0.764,1.241294247765183,5903.322470008505
0.768,1.2672205879028453,5900.159754142884
0.772,1.2965865882472989,5897.454333286462
0.776,1.323179878374731,5904.1303770781005
0.78,1.3405762882299097,5908.416804059945
0.784,1.3438594453948258,5897.303910448378
0.788,1.3310583858745442,5899.458428342204
0.792,1.3037539594829228,5906.881429021984
0.796,1.2665880254038697,5896.790254458145
0.8,1.225850396600611,5892.752873126608
0.804,1.187672500668521,5898.912649224459
0.808,1.1564384826314784,5899.825415724471
0.812,1.133873808658263,5908.413544667994
0.8160000000000001,1.1190278289309135,5903.673422354863
0.8200000000000001,1.1090850428780248,5904.992209608476
0.8240000000000001,1.1006640415037507,5896.764777878251
0.8280000000000001,1.0911269580512228,5903.551568863771
0.8320000000000001,1.0794978388408192,5899.886193955258
0.836,1.0667712113415295,5899.55793546894
0.84,1.055571794046335,5893.846332054426
0.844,1.0493075242832417,5902.028781150755
0.848,1.051134971898641,5903.899430327532
0.852,1.063133475286998,5898.560772749693
0.856,1.085968459063101,5897.951843891465
0.86,1.119036084686315,5901.624529380344
0.864,1.1608026975759838,5902.596734935725
0.868,1.2090146306602307,5914.622649971782
0.872,1.2606879219528908,5907.531559791841
0.876,1.3120561940430266,5893.57408587207
0.88,1.3587254291116257,5897.713567756935
0.884,1.3961746149389156,5900.966402946272
0.888,1.4205874361813842,5903.208638585041
0.892,1.4298297445194732,5897.015021111232
0.896,1.4242070180567976,5891.357664171713
0.9,1.4065823108229993,5899.706263226727
0.904,1.381629563771047,5903.660597443121
0.908,1.3543738298800276,5892.64350728417
0.912,1.32855074658155,5904.877290117477
0.916,1.3055110646818449,5887.769837714291
0.92,1.284229379690055,5892.843742946182
0.924,1.262443922410238,5899.021595861447
0.928,1.23835244125582,5902.140832963652
0.932,1.2120143516328257,5906.039363547174
0.936,1.1858031831087261,5904.571779325208
0.94,1.1637428318786327,5899.045210615422
0.944,1.1500561793242912,5895.34703488041
0.948,1.1475302458654328,5897.093038818579
0.952,1.1563149017012677,5902.022164538352
0.956,1.1736172445736435,5904.535871912351
0.96,1.1944699729266952,5902.0545155030495
0.964,1.2133367480224264,5905.728453831416
0.968,1.2259389375808754,5902.156857797972
0.972,1.2306045665043661,5902.419411461657
0.976,1.228682533223082,5898.539470627245
0.98,1.2239329880755339,5904.8315769383735
0.984,1.2211366961221017,5899.015456917575
0.988,1.2243977466117022,5905.704332683447
0.992,1.235676581985381,5895.144489150923
0.996,1.2539850219627482,5900.411034964325
1.0,1.2755152399136742,5895.375735605722
1.004,1.2947687704760846,5898.62044308931
1.008,1.306386018604037,5899.211837243543
1.012,1.3069777787879482,5894.247339738474
1.016,1.296193379656527,5899.855968231326
1.02,1.276631108732721,5895.419999550707
1.024,1.2527411578322893,5898.289860971522
1.028,1.2293051615846682,5897.00862066412
1.032,1.2102182856941186,5894.226453516461
1.036,1.198058038216397,5901.048779042908
1.04,1.1944239995121002,5898.9563465584615
1.044,1.2005908504476905,5894.803836530261
1.048,1.2178904490737028,5893.381722198775
1.052,1.2474441315707023,5900.371877615261
1.056,1.289230152816921,5894.260178894602
1.06,1.3408297132841864,5903.368726060733
1.064,1.396469409582701,5910.046041083017
1.068,1.4470563676840469,5893.221807923025
1.072,1.4816287263436976,5901.221937699575
1.076,1.4900176946827859,5898.777203152599
1.08,1.4658373358890986,5907.038228243338
1.084,1.4086343532234935,5901.160656916936
1.088,1.3243710386048508,5891.102654834282
1.092,1.224154751021856,5901.558362771792
1.096,1.1217912888531214,5906.384419848349
1.1,1.0310170629985154,5903.016814151733
1.104,0.9631399348401656,5907.72624671579
1.108,0.9254551226107104,5901.806582539804
1.112,0.9204769211572436,5904.760306718667
1.116,0.9459254096177994,5896.50895941866
1.12,0.9953978394773346,5907.610148320739
1.124,1.0595484520348157,5896.696062098085
1.128,1.127516206999308,5894.711051899737
1.132,1.1884424467565087,5900.244896217038
1.136,1.233043799634759,5893.737193169164
1.14,1.255104347559781,5903.960081307966
1.144,1.252513751114019,5898.303337382523
1.148,1.2274196163258826,5903.792041704271
1.152,1.1853439135329908,5898.011097697825
1.156,1.133580933991273,5903.8746741258265
1.16,1.0795113789756197,5899.914405163461
1.164,1.029403156780876,5908.677989613013
1.168,0.9879141757057858,5898.549882745419
1.172,0.9581642957182656,5898.925476367067
1.176,0.9420822227635162,5903.121558443148
1.18,0.9407261363940508,5895.391200364573
1.184,0.9543722702471347,5903.140170388956
1.188,0.9823380658607072,5894.335336987029
1.192,1.022664388251383,5899.518343141469
1.196,1.0718544731314785,5902.994438963019
1.2,1.124878157064967,5898.427348930049
1.204,1.1755984970601077,5897.407783128803
1.208,1.2176308171031378,5896.8332477342965
1.212,1.2454448119378967,5894.220667407602
1.216,1.255375606782639,5904.405765520743
1.22,1.246206738008942,5899.493539947674
1.224,1.2191507327030227,5899.6501596587805
1.228,1.1773135669258388,5905.95006085864
1.232,1.1249477805116188,5905.41576757673
1.236,1.0668446614590217,5906.389611407021
1.24,1.0080526990917702,5901.249398923967
1.244,0.9538442791862906,5905.46795433214
1.248,0.9096729430711988,5898.989840514595
1.252,0.8808659844275822,5895.202682407348
1.256,0.8719202837710072,5897.630312989636
1.26,0.8854451616912206,5907.490027234155
1.264,0.9210400724783012,5908.273160894553
1.268,0.9746382219732057,5894.90023383939
1.272,1.0388537438339875,5907.606542014368
1.276,1.104492402216228,5893.616857835668
1.28,1.1627950561346048,5907.988769354014
1.284,1.20755400944519,5904.427352403712
1.288,1.2362664763387514,5891.984323373725
1.292,1.249975697112774,5898.348164829403
1.296,1.2521122580791317,5903.932226800496
1.3,1.2470702158507874,5901.745974414521
1.304,1.2391664583925188,5893.629078394604
1.308,1.2321542424306922,5897.380727302931
1.312,1.2290215681101662,5897.411506704972
1.316,1.2317345739595107,5907.254029243154
1.32,1.2408372678647177,5901.610021107403
1.324,1.2550906377009616,5904.693469568297
1.328,1.2713862389961619,5890.7424044167365
1.332,1.2850374967668015,5895.249108330154
1.336,1.2904739433983532,5895.1430119004735
1.34,1.2824106624005567,5907.88540029346
1.344,1.2574876344368677,5907.755604652217
1.348,1.2160013822784124,5903.299181646128
1.352,1.1629403467980792,5894.660942671818
1.356,1.1075158997639987,5901.828662824705
1.36,1.0609199931447963,5908.790341172955
1.364,1.0328957865311321,5909.42708564203
1.368,1.0283712608039604,5891.605643433759
1.372,1.0454683941050655,5903.1471330063605
1.376,1.0756694247709084,5901.600063205589
1.38,1.1061320030138686,5895.323973118478
1.384,1.1234406885158037,5897.032445765328
1.388,1.1176672070034788,5903.6915930748855
1.392,1.085553157739398,5899.37140566674
1.396,1.0318779123551054,5904.139271519352
1.4,0.9685263458329285,5899.60258276983
1.404,0.9113548431047341,5904.955931142665
1.408,0.8756388494809447,5900.847620852013
1.412,0.871516722791411,5900.013275928096
1.416,0.9010471816010732,5904.377643948541
1.42,0.9579563161569032,5897.904727968129
1.424,1.0300273355659026,5903.485096171055
1.428,1.1030114829461484,5888.543511583962
1.432,1.1645062419046739,5891.1375394155
1.436,1.2065662729515652,5892.656540640863
1.44,1.2265498080489805,5895.891267223779
1.444,1.2264180862264822,5902.531519178921
1.448,1.2110979858849102,5909.660810940532
1.452,1.186548940636427,5898.923744734511
1.456,1.1580403770915313,5895.1591871223945
1.46,1.1290227577900431,5899.2832299893535
1.464,1.100835823186386,5903.926338362775
1.468,1.0732580811296422,5897.898582777134
1.472,1.0456064982688578,5896.968406874634
1.476,1.0178804046858743,5899.767140702703
1.48,0.9914345008673064,5906.522011156387
1.484,0.9688959171908968,5900.628597353028
1.488,0.9534003597505423,5903.049907369405
1.492,0.9475351615301203,5895.604492225956
1.496,0.9525110491382512,5906.0187833766495
1.5,0.967969854881499,5906.234379088443
1.504,0.9924687994773328,5902.16467840351
1.508,1.024220079851233,5907.993323465568
1.512,1.06145908279714,5892.202661206186
1.516,1.1021353977996398,5888.746392379713
1.52,1.1432554271471485,5899.134967631127
1.524,1.1805793477230517,5896.258389998509
1.528,1.20916420950329,5900.5811285628815
1.532,1.2246361429003272,5894.851454994702
1.536,1.2245023591878814,5889.489372120153
1.54,1.208692327063418,5898.522610925886
1.544,1.179008356378459,5902.150014373201
1.548,1.137934406808383,5898.462283910211
1.552,1.0876622218630239,5898.862144078838
1.556,1.0299307092594006,5899.1077407492685
1.56,0.9666353154948039,5899.561313722576
1.564,0.9006861693093938,5903.136101651863
1.568,0.8365466453412177,5901.372666597908
1.572,0.7801442174590694,5899.818983867805
1.576,0.7381299526348992,5900.370488665245
1.58,0.7166226349779596,5899.959748660707
1.584,0.7196744096402978,5890.865572637706
1.588,0.7478342923550022,5899.574109251996
1.592,0.797291798600445,5899.963926863781
1.596,0.8599911600443814,5902.101490280876
1.6,0.9248150140138243,5902.824027484367
1.604,0.9796301015967585,5897.535665290775
1.608,1.0137952786920073,5900.27392120011
1.612,1.0206140589072044,5893.9693772455175
1.616,0.9991220005543002,5908.736256242668
1.62,0.9546151422191588,5898.674294181407
1.624,0.8975658069481335,5902.055990028651
1.628,0.8410312966768106,5900.33236881703
1.632,0.7972036764803155,5892.430750704498
1.636,0.7741612790152537,5900.288569389721
1.64,0.773919630587883,5899.397411315113
1.644,0.7924333158369901,5900.473688881793
1.648,0.8214633459356234,5908.52602613312
1.652,0.8515687013856795,5900.262192073047
1.656,0.875175759647699,5903.813441534056
1.66,0.8887656674596008,5896.547720628319
1.664,0.893582348629101,5908.027099711058
1.668,0.8947497681799198,5896.807988126598
1.672,0.8991502349768319,5898.558219817219
1.676,0.9127440055440951,5897.847052063368
1.68,0.9381750981232121,5904.962488577642
1.684,0.9735029790293275,5902.382495266309
1.688,1.0126218845933568,5897.425621234123
1.692,1.0472961691873144,5905.225492553064
1.696,1.0699891623290663,5905.733411406781
1.7,1.0763152819044897,5906.219477052298
1.704,1.066274261312655,5906.8600063068825
1.708,1.0441098452042339,5901.280401960295
1.712,1.0171102954053124,5901.625682917675
1.716,0.993724977891326,5902.053803798624
1.72,0.9812839060527351,5905.490373762896
1.724,0.9837289105950997,5906.014324330087
1.728,1.0000634049188248,5896.486942226467
1.732,1.024300050100375,5914.945465375927
1.736,1.0472381039196996,5897.667405269076
1.74,1.059585367432249,5904.980345443652
1.744,1.055227713943439,5906.693514712483
1.748,1.033289337522911,5905.886247330268
1.752,0.9981397783529692,5898.9716592432615
1.756,0.957422342072309,5898.064007416978
1.76,0.9190430277496149,5899.64515939094
1.764,0.8884623395276319,5902.745658967362
1.768,0.867382900520562,5904.73934717065
1.772,0.8541566920465181,5902.33245323079
1.776,0.8453908390525047,5912.019189163561
1.78,0.8378025409959418,5900.963552358369
1.784,0.8295232110643372,5905.895859505834
1.788,0.8205118720067651,5908.422475844396
1.792,0.8121412642022956,5913.127792736164
1.796,0.8062443478991823,5901.495471797985
1.8,0.8040367445925505,5900.625266098803
1.804,0.8053762063822333,5899.628075737108
1.808,0.8086691232372685,5898.346950708568
1.812,0.8114044266846575,5911.043848375244
1.816,0.8110408014748699,5904.131484457861
1.82,0.8059552300891051,5895.204427109127
1.824,0.7962250361106802,5905.763702804961
1.828,0.783985916404161,5908.426747668128
1.832,0.7730919434297182,5904.440281187135
1.836,0.767989084830147,5896.688452380958
1.84,0.7720621699448791,5901.568154527926
1.844,0.7860442811985167,5901.584612418881
1.848,0.8072324132443137,5902.791994155884
1.852,0.8300668141019261,5908.133023094403
1.856,0.8480391693669271,5907.709685484522
1.86,0.8561867899460708,5900.8223014880095
