时间(s),电压(V),幅值(高频80K)
0.0,0.9593959654346182,5901.100663553725
0.004,1.000415011630768,5908.309658362337
0.008,1.0419006805756377,5903.345843647849
0.012,1.0844257267625141,5902.305429698913
0.016,1.1281627144255808,5898.980601182168
0.02,1.1723980064089403,5900.229712332083
0.024,1.2152075752884084,5906.600551028169
0.028,1.2535772538387144,5896.099707431789
0.032,1.2839382391462224,5903.680161701023
0.036,1.3029131165370023,5899.628002161632
0.04,1.3081172828751888,5899.17977170606
0.044,1.2989073595845866,5895.865563993914
0.048,1.2768585300255915,5901.27140808277
0.052,1.2456573663230686,5894.388084927055
0.056,1.2102741307686498,5897.083195374496
0.06,1.1757002377531178,5900.757686200651
0.064,1.1458632859277058,5894.348566072165
0.068,1.1232391167130038,5892.512835694058
0.072,1.109192998318783,5901.490494664079
0.076,1.1045932268528038,5904.885627948586
0.08,1.1101299180949835,5894.810380181667
0.084,1.1260401062208951,5900.110929025924
0.088,1.1513281159250615,5893.841232670551
0.092,1.1829047370407124,5900.877746570139
0.096,1.2152754211314658,5899.756810350449
0.1,1.2413205695420972,5889.19646542917
0.104,1.2541889993913269,5900.149067038189
0.108,1.2495937163996111,5896.9566183184415
0.112,1.227429887447868,5901.521841252815
0.116,1.1919836485990798,5898.742268550816
0.12,1.15075653373428,5890.825063064739
0.124,1.112469059649742,5899.802788673615
0.128,1.0848940714148352,5907.2586973619045
0.132,1.0730580762739117,5908.119736031112
0.136,1.0782702572496854,5904.206697407059
0.14,1.0982919511525102,5893.619290249117
0.144,1.128554632265367,5903.130992467477
0.148,1.1638205954928702,5902.987457718937
0.152,1.199504056934067,5901.75138003012
0.156,1.232232233378202,5903.498134082151
0.16,1.259801594175384,5891.074986048854
0.164,1.2809930376304968,5902.265825144689
0.168,1.2955630649602665,5904.426101532246
0.172,1.3043191522064865,5895.704720835822
0.176,1.3089165321651142,5903.108536923496
0.18,1.3111533556430992,5897.064413586232
0.184,1.311977882632663,5902.061361657584
0.188,1.3107643767455242,5898.086938906833
0.192,1.30535248674335,5900.697838579607
0.196,1.292920202529367,5900.428667267045
0.2,1.2713155875445936,5899.079033682699
0.204,1.2402887722454377,5902.303913069637
0.208,1.2021464531620443,5901.935453771771
0.212,1.16158755517059,5897.789460318752
0.216,1.1247964157818513,5895.16346743355
0.22,1.0981359791105911,5903.192622473238
0.224,1.0868191836060757,5906.489716855343
0.228,1.0937607564595524,5897.486086511132
0.232,1.1186853434089135,5894.074902330118
0.236,1.1576572969586107,5897.954977114426
0.24,1.20334221176729,5906.176432088317
0.244,1.2462371367408744,5894.901656078686
0.248,1.2767504652252792,5899.0884143746125
0.252,1.2875780347034176,5894.40869057627
0.256,1.2756025786955645,5905.002542435914
0.26,1.242677946728055,5905.197781997292
0.264,1.1950451338749912,5911.971166701326
0.268,1.1415777501946331,5899.268595658388
0.272,1.0914301529639419,5892.987499806352
0.276,1.051828327442796,5895.76523255968
0.28,1.026614835720609,5901.44707927141
0.284,1.0158268870607612,5894.111264477373
0.288,1.0162529938628326,5894.819753060721
0.292,1.0226978364453347,5901.294577665253
0.296,1.0295865187663056,5900.162859661732
0.3,1.032521028930692,5905.353964699811
0.304,1.0294476753274096,5907.130267060149
0.308,1.02120486172646,5902.771206848944
0.312,1.011359696235271,5896.168887672111
0.316,1.0053621167382405,5905.521844878214
0.32,1.009161343205725,5904.9617017739765
0.324,1.0275490235812959,5894.431304776707
0.328,1.0625665849704713,5908.673420599288
0.332,1.1123637179780455,5901.165653953717
0.336,1.1709619546211383,5904.246587215884
0.34,1.229292858524444,5898.697075482647
0.344,1.2774443418030115,5897.125023722631
0.348,1.3074389509697066,5898.199255926255
0.352,1.3155301071373653,5901.761542395363
0.356,1.303162129018985,5907.398338720338
0.36,1.2762604652258855,5896.8694244902
0.364,1.2431521781332984,5892.742349538851
0.368,1.2119574954199956,5894.604869306008
0.372,1.188509463914992,5899.679691872705
0.376,1.175549762492472,5898.298474694972
0.38,1.1732139576501555,5900.543905917419
0.384,1.1801344293106601,5901.521196905632
0.388,1.1943357005709168,5891.186797008257
0.392,1.2135124085770281,5906.587873294772
0.396,1.2348622895579138,5889.095684664652
0.4,1.2549681351215378,5900.2802385374025
0.404,1.270132259659546,5902.954640801316
0.408,1.2771832704082289,5900.897304666056
0.412,1.2743860505220308,5905.228613105499
0.416,1.261990780356972,5900.09990740278
0.42,1.242215588756672,5905.060655142618
0.424,1.2188038052010668,5900.475713653046
0.428,1.1964102437863862,5893.204667317119
0.432,1.1799224110493596,5896.854383530305
0.436,1.1736602314819535,5900.6339900033945
0.44,1.1804331510295716,5900.08682333286
0.444,1.20063594118213,5905.429895531641
0.448,1.2317286250018107,5895.7832998362455
0.452,1.2684042461699012,5900.912250879303
0.456,1.3035252397670858,5900.246648974647
0.46,1.3296544269514476,5884.357487625775
0.464,1.340817679203494,5901.541725901434
0.468,1.334031285062616,5899.403918137069
0.472,1.3101467920305612,5895.495670982394
0.476,1.2737552648936432,5906.2282467161895
0.48,1.2321846470035227,5900.039997665368
0.484,1.1938479684717391,5902.242594355411
0.488,1.1662816909380407,5886.47464131128
0.492,1.1542703382112427,5894.938699483177
0.496,1.1585662847319047,5899.601873451093
0.5,1.1757162487818447,5902.12475020158
0.504,1.1991995383194158,5900.024235746653
0.508,1.221546916645419,5891.821100762062
0.512,1.2366603529578741,5897.719152378447
0.516,1.2414864487924253,5902.631392374723
0.52,1.236551159790958,5899.075989708249
0.524,1.2253731059614488,5899.637405925809
0.528,1.213107212205392,5896.06346509678
0.532,1.2048503312764696,5894.662800594952
0.536,1.204020115318148,5899.865846567373
0.54,1.2112170802814182,5897.424841389955
0.544,1.2239350685258896,5900.882412980047
0.548,1.2372812053296227,5893.564660724683
0.552,1.245531752238892,5909.904772811495
0.556,1.2440379024083958,5899.637081032709
0.56,1.2308421704293298,5898.824964888449
0.5640000000000001,1.2074553396413807,5894.698726956695
0.5680000000000001,1.17855636377036,5899.243163089317
0.5720000000000001,1.1507362532476173,5899.512628149787
0.5760000000000001,1.130648934342418,5896.531163912101
0.58,1.123083809046212,5892.597577675378
0.584,1.129583641114786,5898.4598550902165
0.588,1.1481522387598826,5903.066749494274
0.592,1.174181447314643,5895.181794847221
0.596,1.20215534964563,5904.159601451582
0.6,1.227370403927028,5904.095851089502
0.604,1.2470467853293126,5900.450334882842
0.608,1.260619960382975,5898.118417679634
0.612,1.2693824504231102,5896.589224355008
0.616,1.2758057534194136,5896.505624991199
0.62,1.2827846827359208,5903.331763412492
0.624,1.292844768178511,5900.338899522711
0.628,1.307267944963678,5895.464815389415
0.632,1.3252327539367201,5908.52852640278
0.636,1.343308272019821,5900.623931133785
0.64,1.3557502960716286,5892.06265840244
0.644,1.355852529305647,5904.381230446795
0.648,1.3381266344921467,5904.51556810083
0.652,1.3005640618486984,5898.217506221136
0.656,1.2459917691264644,5906.7292047066985
0.66,1.18180135769953,5898.63485537105
0.664,1.1180691365596773,5896.7459643712855
0.668,1.064865578820829,5897.302496275602
0.672,1.0298334026471423,5906.390634274604
0.676,1.0167769391659922,5896.4836966860885
0.68,1.0254122942980453,5897.727528346184
0.684,1.051976270192232,5892.96436364151
0.6880000000000001,1.0902690174023346,5899.7908630128295
0.6920000000000001,1.1328805386830694,5907.163150141986
0.6960000000000001,1.172560503549234,5897.153810835536
0.7000000000000001,1.2036325768370213,5894.417904962232
0.704,1.2230775868368517,5893.630392268686
0.708,1.2308096106139794,5908.392082669412
0.712,1.228995527894397,5900.777949557032
0.716,1.2208019099911342,5900.356287933128
0.72,1.209233053730301,5896.991253209707
0.724,1.1965266294204713,5898.2136465272815
0.728,1.1841186656379896,5894.105082841343
0.732,1.1728760362078947,5902.342606025638
0.736,1.1632872759840942,5905.266023238249
0.74,1.1554785119778215,5905.8771127098935
0.744,1.1491322883856132,5899.910229420709
0.748,1.1435444220457853,5901.179973658737
0.752,1.1380214029910365,5895.427424072193
0.756,1.1325313486614885,5893.715297258511
0.76,1.1281947886683543,5897.721590047324
0.764,1.127178082252094,5908.775565862743
0.768,1.1318874620512391,5901.099165177422
0.772,1.1437726951420064,5902.206250074079
0.776,1.1622691626582018,5892.135019736778
0.78,1.1843927407149946,5900.728449673071
0.784,1.205288720068581,5903.880128648088
0.788,1.2196538431184396,5900.1862146616695
0.792,1.2235420708525422,5900.712999033875
0.796,1.2158581116755942,5899.017188637713
0.8,1.1989513323481016,5903.001580330551
0.804,1.1780775970214772,5906.038382919884
0.808,1.1599209596985927,5904.069467021757
0.812,1.150666753924906,5910.033527177605
0.8160000000000001,1.15420344943922,5900.5019149541695
0.8200000000000001,1.1709556596084032,5897.82275314583
0.8240000000000001,1.1976792851668914,5907.577448230242
0.8280000000000001,1.2282942556181526,5900.96510307656
0.8320000000000001,1.255529582731687,5900.012057102254
0.836,1.27289274478941,5909.815848327984
0.84,1.2763412194698553,5895.008384018907
0.844,1.2651152067138112,5901.728048559983
0.848,1.2415065979819886,5902.643240395292
0.852,1.2097716415767512,5899.589580458998
0.856,1.174737470910133,5907.024957252429
0.86,1.1407258282638055,5902.824914597552
0.864,1.1111599535495522,5905.765764332633
0.868,1.0887588873448546,5906.374012977272
0.872,1.0758512676759664,5899.39326551977
0.876,1.0743306037848939,5885.80418401096
0.88,1.0851271325192111,5900.283317404678
0.884,1.1074952102691007,5895.568355348887
0.888,1.1386123552257448,5901.063987317152
0.892,1.1738902711437538,5909.06882552536
0.896,1.2080824188264352,5904.12080743687
0.9,1.2368318049295792,5891.665519148704
0.904,1.2579509379271243,5897.902076471262
0.908,1.2717653364786388,5900.12931568148
0.912,1.2803453410027397,5899.614850501674
0.916,1.2860691411935683,5891.608426479047
0.92,1.2902835576659761,5899.824426151891
0.924,1.2927071256097302,5901.469636422309
0.928,1.2917915927984833,5901.588014652351
0.932,1.285776217101387,5900.830437132225
0.936,1.273873852167961,5901.3075321094175
0.94,1.2570462609959352,5906.642119819258
0.944,1.238094832158618,5898.913708523462
0.948,1.2211041091398291,5898.553663599937
0.952,1.2104397738495025,5901.711863090689
0.956,1.2095206629677668,5896.452402869452
0.96,1.2196383463805982,5900.478314261383
0.964,1.2392475665169727,5902.145174514096
0.968,1.264150164647138,5898.728600803138
0.972,1.2886397439124708,5903.34073678457
0.976,1.3071815023197495,5903.479091677324
0.98,1.315978412481618,5891.644124504219
0.984,1.3139194610379226,5897.938030778201
0.988,1.302679518582888,5898.632159289403
0.992,1.2859672196449483,5900.612715256186
0.996,1.268144939464089,5900.926450277818
1.0,1.2526977925535039,5899.55654150824
1.004,1.2411469284377872,5908.177895885374
1.008,1.2328341954131423,5894.234895227907
1.012,1.2256214058844748,5902.394026566759
1.016,1.2171614215670779,5901.432085824595
1.02,1.206170026880286,5896.842893677105
1.024,1.1931499148492573,5910.195694973751
1.028,1.1803213184767947,5893.959035868213
1.032,1.1709247847391457,5899.702895301695
1.036,1.168272811052498,5897.474875234278
1.04,1.1748505529311275,5903.413467745149
1.044,1.1916128709166343,5897.447912153003
1.048,1.2175786173411942,5893.83033280717
1.052,1.249835171397437,5906.268762344924
1.056,1.2840054703469745,5891.101199926039
1.06,1.3150784459138691,5904.74835800494
1.064,1.3383667273812174,5904.304712404494
1.068,1.3503343292280305,5903.081826991027
1.072,1.3491285502471566,5894.117829226116
1.076,1.3347653249004838,5897.345468958053
1.08,1.3089860774279574,5899.300498662039
1.084,1.2748420892358647,5898.295667917061
1.088,1.2361121601084204,5897.758765661793
1.092,1.1966988699077388,5896.819695490521
1.096,1.1601306292676996,5913.91211339293
1.1,1.1292489044336953,5903.396768104556
1.104,1.106130221411105,5899.154733971959
1.108,1.0922360404725535,5901.425797722723
1.112,1.088646650566069,5906.860161371485
1.116,1.096103524300111,5906.070245218941
1.12,1.114622491361817,5899.365161301327
1.124,1.1427095007629648,5901.754591395009
1.128,1.1765909197970499,5897.527504238416
1.132,1.2100985916712446,5897.750508363504
1.136,1.235673206797247,5900.172073284031
1.14,1.2463702327347188,5902.907899584442
1.144,1.238128658267196,5899.754146375767
1.148,1.211343152905524,5902.396179312795
1.152,1.1710985393053182,5909.8379740939135
1.156,1.1260108771154054,5905.440363563811
1.16,1.0861008037060973,5899.340584307096
1.164,1.0603416485347132,5894.825999258159
1.168,1.0545417986080314,5903.17083378709
1.172,1.0701294223247024,5899.883264635714
1.176,1.1041853304799778,5904.020372931066
1.18,1.1506598932978407,5898.604977251467
1.184,1.2022226083870364,5909.095156882765
1.188,1.2519347342469596,5904.799569440237
1.192,1.2941527174726062,5904.611921683199
1.196,1.3246610722095482,5899.762360286678
1.2,1.3405582829269407,5901.966693103298
1.204,1.3404494816593404,5898.634655597062
1.208,1.325015224684774,5894.386356589295
1.212,1.2974780084785729,5895.4187527770855
1.216,1.2633935731584764,5906.34316857098
1.22,1.229615435105756,5895.391322184178
1.224,1.2027911186578502,5904.553372078043
1.228,1.1879402728127646,5892.320083039887
1.232,1.1875324875507416,5904.118289998851
1.236,1.2012397806479422,5907.306103876402
1.24,1.2263099299626372,5897.9400824209215
1.244,1.2583348439933757,5898.6388145461415
1.248,1.2921360651174791,5901.426297801331
1.252,1.3225754404698946,5906.517146419245
1.256,1.3452301086124494,5900.64788332957
1.26,1.3569367082991013,5902.3378472566055
1.264,1.3561945770954331,5895.009309618697
1.268,1.3433872088967933,5897.3120684122605
1.272,1.320786028343113,5894.717277662483
1.276,1.292304203174453,5899.22332541239
1.28,1.262918956742522,5896.66452145256
1.284,1.2376801078990685,5898.357104099984
1.288,1.2204354513632956,5908.793427200271
1.292,1.2127235089971158,5896.220052559916
1.296,1.2133589471489163,5899.279599569927
1.3,1.2189236284079825,5897.245521379956
1.304,1.224934650021663,5894.702821173665
1.308,1.2272203316712924,5905.457343575422
1.312,1.2230583923239808,5892.447973451422
1.316,1.211774013411272,5904.985899205793
1.32,1.1946880539273728,5902.707246929321
1.324,1.174564584269859,5904.54027455021
1.328,1.1548951352311307,5906.748316431088
1.332,1.1392552147119956,5890.860624949395
1.336,1.1306955292335863,5904.793530585207
1.34,1.1310835229557339,5905.195621833463
1.344,1.140539197463974,5900.467470146154
1.348,1.1572320281435404,5900.240693568813
1.352,1.1776637058743418,5905.798622647282
1.356,1.1973951737865565,5901.458284364144
1.36,1.2121099725925941,5906.103979899272
1.364,1.2187982527769254,5896.832251426873
1.368,1.21668046990549,5899.827539174815
1.372,1.2074591553296048,5898.439638388118
1.376,1.194692144478072,5893.285646350103
1.38,1.1824456774085206,5893.774979514943
1.384,1.1737587807707452,5899.287254776803
1.388,1.1696026731792584,5891.966981783017
1.392,1.1687746569301392,5895.370350096085
1.396,1.1686544814956348,5895.869717869656
1.4,1.166332390992932,5900.368947862349
1.404,1.159538339522381,5907.983442043597
1.408,1.1470367805812098,5897.258753006254
1.412,1.1285057422557407,5896.333587755463
1.416,1.104183857043861,5899.411241858245
1.42,1.074633474921886,5902.1252495212375
1.424,1.0408414420974454,5897.324847810744
1.428,1.004629487872985,5898.114305253663
1.432,0.9690725942581866,5900.756988687095
1.436,0.9385067592101082,5896.713965012533
1.44,0.9178996440121225,5904.507376074034
1.444,0.9117274015221449,5894.968608221524
1.448,0.9227349018504944,5905.751435367016
1.452,0.9509653499950027,5903.357441051498
1.456,0.9933772929089807,5892.166329954381
1.46,1.0442642344102984,5902.235724267405
1.464,1.0964541392979714,5905.549452066424
1.468,1.142932975365584,5902.6090100385545
1.472,1.1783423099316126,5901.600731138246
1.476,1.1998874515532933,5898.900186196027
1.48,1.2074516389402306,5897.571877369533
1.484,1.2029773371760915,5903.490513684418
1.488,1.1893836821954702,5905.852595797623
1.492,1.1694068877881794,5901.88774382788
1.496,1.1447436832982572,5908.439183462603
1.5,1.1157698285809743,5907.5252657456695
1.504,1.0819403579442897,5895.033425019954
1.508,1.0427678816504473,5907.05110650292
1.512,0.9990602801262004,5901.759201869367
1.516,0.9539485184667124,5894.868649592323
1.52,0.9131769161654446,5903.862976150026
1.524,0.8842304071922644,5900.095088346679
1.528,0.8742741031405948,5895.315017365169
1.532,0.8875115169905715,5899.086217011646
1.536,0.9230355797875825,5896.174192301661
1.54,0.9741910896926539,5898.670729733649
1.544,1.0298933324276889,5895.60110450716
1.548,1.077558960949228,5899.616302559811
1.552,1.106670255506195,5905.055590268814
1.556,1.1117639812477789,5901.500660333932
1.56,1.0938553719768134,5905.865732926065
1.564,1.059855764646885,5901.97951538645
1.568,1.0202431420462088,5894.706259335167
1.572,0.9858742622543822,5910.449127012945
1.576,0.965094465249695,5901.826565908847
1.58,0.9620437262491507,5912.729506958156
1.584,0.9764484723043365,5903.814076820314
1.588,1.0045813774777754,5893.901692011424
1.592,1.0407137172297245,5898.384826421105
1.596,1.0783860843731496,5894.27155098274
1.6,1.1111788500328381,5891.693615870454
1.604,1.133157367330493,5907.960750828832
1.608,1.1394168004172063,5903.464330382459
1.612,1.1269430014218986,5904.654886952077
1.616,1.0955566720910566,5905.168313591846
1.62,1.0484581249897318,5909.531311915039
1.624,0.9920211689712461,5898.964360375393
1.628,0.9347933591495663,5913.065644967997
1.632,0.885894188130131,5897.535324829329
1.636,0.8531385778230594,5898.752804083056
1.64,0.841328362797637,5904.3909648463
1.644,0.8511966137790713,5905.00558347182
1.648,0.8793432040978335,5903.23211253683
1.652,0.9191927539047445,5905.47132976091
1.656,0.9626797220571022,5896.20427427906
1.66,1.002138011158964,5900.426443572753
1.664,1.0318250833468614,5905.174759959666
1.668,1.0486785751954213,5902.85750231429
1.672,1.052220900510623,5903.153664617543
1.676,1.0438460120654625,5903.5908975803095
1.68,1.025892158721002,5893.204807048362
1.684,1.0008583343442579,5904.439274358418
1.688,0.9709361031752697,5906.306211325327
1.692,0.9378692298916242,5897.69162943263
1.696,0.9031074643575903,5899.690615092382
1.7,0.8681950457394718,5901.680127746487
1.704,0.8352159790609356,5906.558406610215
1.708,0.8069970748483379,5894.20399096254
1.712,0.7868380582921878,5903.103228753333
1.716,0.7777941181004829,5904.286248368818
1.72,0.7817783870211452,5891.88147943203
1.724,0.7988299748014352,5911.569085164744
1.728,0.8268162860816812,5895.411056581081
1.732,0.8616840711179543,5912.154046593921
1.736,0.8982058560543378,5909.102265763763
1.74,0.9310218512778563,5899.15013308513
1.744,0.9556814445049866,5908.494633177418
1.748,0.9693949030286517,5903.808079195392
1.752,0.971336703550774,5894.231526042095
1.756,0.9625161353311847,5899.078961466287
1.76,0.9453403038599912,5901.27348140098
1.764,0.9230233279997068,5900.398228521834
1.768,0.8989892596827755,5911.335833859437
1.772,0.8763939774256448,5909.683375260649
1.776,0.8578397568169855,5902.164357753528
1.78,0.8452742396729974,5897.9563742834525
1.784,0.8399835809017306,5905.961027868348
1.788,0.8425449659070443,5905.287263716719
1.792,0.8526255279654642,5903.974064498455
1.796,0.8686430429070469,5901.772312790282
1.8,0.8875200308563483,5911.7770753595205
1.804,0.9048821937697935,5899.160969563895
1.808,0.9158822118491945,5908.733512521401
1.812,0.9164529076428222,5908.941247913986
1.816,0.9044953061035652,5901.972101113988
1.82,0.8804893510696862,5905.061679989563
1.824,0.8472959783825282,5897.447503187692
1.828,0.809342241424545,5900.43258565122
1.832,0.7716530014016744,5896.055577643907
1.836,0.7391005686050873,5901.42174676247
1.84,0.7158989312418695,5905.7811651948
1.844,0.7051176701973156,5902.2387530651295
1.848,0.7080518301609583,5902.108945853479
1.852,0.7235609147146047,5906.729577548786
1.856,0.7477236842784436,5902.640295110685
1.86,0.774171068961388,5907.67061818311
