时间(s),电压(V),幅值(高频80K)
0.0,1.314970142025132,5899.20316314229
0.004,1.2749519827321285,5901.836959407203
0.008,1.2394109473987829,5896.30965674666
0.012,1.2106616398248404,5895.990695048764
0.016,1.188193220197854,5897.200144739567
0.02,1.1686797292924433,5901.834677327339
0.024,1.1473304629724785,5908.4093334599065
0.028,1.1201836655220776,5895.768662568726
0.032,1.0862430346019378,5901.531464050414
0.036,1.0483199709231341,5897.762487810252
0.04,1.012207624401835,5907.473806023068
0.044,0.9847457658075102,5899.034875365137
0.048,0.9717410279992773,5909.257371069757
0.052,0.9764743459398024,5905.136391048573
0.056,0.9990548338320028,5896.539612437071
0.06,1.0365575996216396,5897.34723762828
0.064,1.0837787445411884,5895.073736379003
0.068,1.1344137874705076,5898.465413093763
0.072,1.182417555629484,5902.273343789
0.076,1.2232400629436302,5896.046682700088
0.08,1.254598702632316,5904.075691428169
0.084,1.2765050108775446,5913.525630349619
0.088,1.290489420282314,5897.065764102747
0.092,1.2983423216348455,5903.3515448844255
0.096,1.3009992787338993,5905.765625978112
0.1,1.2981538993586939,5896.850919985085
0.104,1.2887292355903435,5901.756692298271
0.108,1.2717975482840387,5909.760774529618
0.112,1.247336254655221,5906.130118800023
0.116,1.2164488004313927,5898.993812586135
0.12,1.181084186678347,5906.327692993685
0.124,1.1435466495835536,5905.805033804281
0.128,1.1060888359856356,5899.971432997235
0.132,1.0706967094464825,5898.0359432744
0.136,1.0389956226593522,5899.188637603986
0.14,1.0121960980669842,5895.011074368275
0.144,0.9910865138966239,5900.642404093036
0.148,0.9760950089285101,5899.754320590599
0.152,0.9673768361741935,5905.466440052828
0.156,0.9648548337902696,5899.80916921465
0.16,0.9681932005441266,5902.508621680451
0.164,0.9767598258348955,5911.045876430106
0.168,0.9896513927534039,5907.085270423044
0.172,1.0057838704263364,5897.4193947166295
0.176,1.023972240430701,5889.638401826031
0.18,1.0429739841458365,5902.38713219562
0.184,1.0615920385763236,5898.658965933367
0.188,1.0789033238864654,5912.075194328204
0.192,1.094495162152227,5897.755978046464
0.196,1.1084948044889924,5895.949771267938
0.2,1.1212743843898805,5898.161264572997
0.204,1.132897578456782,5905.432053513736
0.208,1.1425412443094907,5897.827826807566
0.212,1.1482117831893235,5895.585187295406
0.216,1.1470050309177953,5888.566857240637
0.22,1.135940253986521,5905.892178854263
0.224,1.113165329793503,5899.156213817334
0.228,1.0791743989917628,5899.106454293319
0.232,1.0375961904166502,5903.604102719605
0.236,0.9951367017942602,5892.985412348378
0.24,0.9604956181825949,5901.727426736675
0.244,0.9424846606263273,5908.207207109777
0.248,0.9478894429651878,5904.086455453919
0.252,0.97962583882565,5901.803310264612
0.256,1.0355894135473598,5897.046358559332
0.26,1.1085261107747626,5899.843119791769
0.264,1.187192617110298,5904.783429446688
0.268,1.2587796262509152,5900.486003427714
0.272,1.3120577222800336,5900.824553133593
0.276,1.3402857907343535,5899.494202079409
0.28,1.3428773585368137,5900.448045548803
0.284,1.325188039812825,5895.966040806996
0.288,1.2964127405928232,5901.48074872549
0.292,1.2662654831808533,5894.814045724208
0.296,1.241639905091369,5894.822227493079
0.3,1.2245418749957322,5910.942641561264
0.304,1.212082922603938,5893.804571661648
0.308,1.1984256908377398,5892.982476600883
0.312,1.1777678961692168,5893.652657727262
0.316,1.1471274505613072,5894.195285370063
0.32,1.1079060723947112,5897.691784823654
0.324,1.0657592353485918,5896.790092732282
0.328,1.0289096388488785,5904.533598737439
0.332,1.0055233093123108,5898.017172815421
0.336,1.0010685831514043,5902.913750197175
0.34,1.0166313963918563,5905.622273441925
0.344,1.0488086224912119,5904.412634366862
0.348,1.0910775349364987,5899.855587364098
0.352,1.1358731361708356,5899.752369928113
0.356,1.1764528974835515,5892.098623153662
0.36,1.20800992359451,5903.369442577271
0.364,1.2280392500320052,5899.728306723458
0.368,1.236258270332146,5896.3799361285855
0.372,1.2342865137332653,5892.762803462023
0.376,1.2250352488138438,5898.291209915019
0.38,1.2117205662116353,5902.040081878014
0.384,1.1966902378024469,5907.152391092127
0.388,1.1805501292897291,5903.981382515446
0.392,1.1620556151658343,5903.869359240416
0.396,1.1388753557524782,5910.336606230156
0.4,1.1088884418707772,5903.006212189646
0.404,1.071409572279745,5898.124229774206
0.408,1.0278073399369811,5900.548470542582
0.412,0.9813696703012821,5901.140406092911
0.416,0.9367137939064979,5890.094730575939
0.42,0.8991654651699049,5894.062002489844
0.424,0.8742374725834914,5901.450918220325
0.428,0.866966407627475,5900.361085667783
0.432,0.8808785433683736,5903.57868417377
0.436,0.9167703955967017,5892.302612006688
0.44,0.9718518090050803,5914.7380228618495
0.444,1.0397439063364373,5902.474543684459
0.448,1.1114531206642537,5902.326404781021
0.452,1.1770838985082195,5906.932081414562
0.456,1.2278616740130341,5894.603694202193
0.46,1.2579453365193445,5901.949896137088
0.464,1.2654865153014128,5894.384807018258
0.468,1.2525913426846569,5899.339257193564
0.472,1.2243026468604676,5902.6929381398895
0.476,1.1871370614013088,5902.929694720439
0.48,1.1477264981342612,5899.166238371263
0.484,1.1117719110523174,5899.128030754423
0.488,1.083218382822336,5906.705709809832
0.492,1.0636151361583444,5899.17678352684
0.496,1.0519193190183616,5908.258510681139
0.5,1.045106759264323,5896.626274489639
0.504,1.039589847255979,5901.427941417382
0.508,1.0328448521337896,5897.249378878874
0.512,1.0243608663599555,5899.816359369595
0.516,1.0153662169293074,5900.042989338519
0.52,1.0075838109187603,5903.382007006812
0.524,1.0019324717231308,5898.888192049292
0.528,0.9980656240566865,5899.907844204146
0.532,0.9949234322892692,5896.8804370090975
0.536,0.9917226490389262,5894.652704537827
0.54,0.9886675931362813,5894.354871824927
0.544,0.9871069456717141,5898.447186372116
0.548,0.9893226362246444,5894.732569427801
0.552,0.9981928141055786,5904.554981286308
0.556,1.0167042813080391,5903.224078585834
0.56,1.047128404388642,5907.795469438457
0.5640000000000001,1.0898855944375323,5894.536257285372
0.5680000000000001,1.142487673809059,5899.055969118238
0.5720000000000001,1.1991004541339592,5903.889714535081
0.5760000000000001,1.25114656670343,5892.968946069488
0.58,1.289055645708568,5907.858025502856
0.584,1.3048006017576068,5892.538194164518
0.588,1.2944055847038087,5895.382638309049
0.592,1.2594790192046077,5894.303597089451
0.596,1.2071498180574907,5898.265996417124
0.6,1.1484162030280713,5895.822871500499
0.604,1.0955177064898243,5899.236361299554
0.608,1.0591688623665032,5898.873639087104
0.612,1.0462937846145473,5907.128184861226
0.616,1.0585854115630222,5887.714961439029
0.62,1.0920741459723498,5903.771396386502
0.624,1.137868821986371,5899.23999139852
0.628,1.1840797509546008,5895.351186135375
0.632,1.2185721923634105,5906.231596031431
0.636,1.2318335065788095,5904.61745278038
0.64,1.21914599817565,5907.1523817092175
0.644,1.1814989730958771,5900.703339342694
0.648,1.1250593987283954,5904.483486188913
0.652,1.0593983353648293,5903.270154781184
0.656,0.9950280117131337,5902.332129123625
0.66,0.9410339254291611,5901.293444682099
0.664,0.9034860942492016,5898.472086245799
0.668,0.8849140922644587,5893.918639109176
0.672,0.8847181585601708,5898.5306501672885
0.676,0.9001763448979686,5900.975945597288
0.68,0.9276571327116726,5888.496422285456
0.684,0.9636321796082042,5906.637545920095
0.6880000000000001,1.005151619006337,5901.554657086763
0.6920000000000001,1.0497386249633678,5899.439588656132
0.6960000000000001,1.0950346248821397,5899.762251043366
0.7000000000000001,1.1385886615177667,5896.976928703887
0.704,1.1778858314226812,5902.553313679195
0.708,1.2104663544082106,5898.187394049407
0.712,1.2340588839870923,5902.543472888999
0.716,1.2468258775567607,5906.218051233724
0.72,1.2477966056817744,5895.3272812562445
0.724,1.2373486324469778,5899.564120403899
0.728,1.217434646181492,5907.141810246282
0.732,1.1913267623215196,5903.150536773431
0.736,1.162931932181096,5903.685067119695
0.74,1.136009501538244,5901.340879062875
0.744,1.1136535958584173,5897.450756709096
0.748,1.098143064733098,5902.562954093647
0.752,1.0909582655413577,5902.89585499986
0.756,1.0926900884970723,5896.933982740826
0.76,1.1027530322051602,5899.724253866908
0.764,1.1190998057634645,5897.273147103319
0.768,1.1382924906347556,5900.244690585094
0.772,1.156160883143686,5906.56707320648
0.776,1.1689461512898478,5893.864991975928
0.78,1.1745086689871493,5906.248396587879
0.784,1.1730541750020245,5902.119908906174
0.788,1.1670008277128567,5902.94656242326
0.792,1.1600311517026127,5897.925277186555
0.796,1.1557957696152474,5890.701578758913
0.8,1.156861333837656,5901.206669237407
0.804,1.1642596877000537,5901.384541376567
0.808,1.177605781540717,5896.558337911249
0.812,1.1954660919179598,5890.28632491914
0.8160000000000001,1.2156191645465968,5907.2727552452325
0.8200000000000001,1.235058961961568,5900.432761876751
0.8240000000000001,1.2499074058304867,5907.601166543529
0.8280000000000001,1.2555848708551696,5900.269921470528
0.8320000000000001,1.247486042024969,5896.318736887336
0.836,1.2221042990779785,5900.935163613534
0.84,1.1782619636018228,5890.433959116429
0.844,1.1179992054429573,5902.292802668218
0.848,1.046777825269116,5905.761039634362
0.852,0.972898185901188,5893.185893853425
0.856,0.9062763363304787,5890.14281100626
0.86,0.8568600201196556,5894.550529916731
0.864,0.8329650029757302,5892.69069910724
0.868,0.8397593477271398,5900.0738016386695
0.872,0.8780711291541246,5912.169983562652
0.876,0.9436759951315395,5907.824351744487
0.88,1.027255296168498,5897.865403709442
0.884,1.1152865085252808,5901.326977926592
0.888,1.1921031132736095,5890.136541712252
0.892,1.243024488129482,5902.6735396166405
0.896,1.2578416462382165,5897.031541387177
0.9,1.233508270445352,5889.120121287936
0.904,1.1750302951419458,5896.167238221571
0.908,1.0941693206747092,5891.275974966851
0.912,1.0063228659616692,5894.809591792193
0.916,0.9265644321333665,5902.44782118645
0.92,0.8661034391771966,5901.47537188922
0.924,0.8302047138102905,5900.59780000036
0.928,0.818029926812054,5899.006290903572
0.932,0.8242577187554704,5895.000004895213
0.936,0.8418582245068407,5896.885146197937
0.94,0.8650304586112597,5907.663543052326
0.944,0.8911816967828632,5902.459505089279
0.948,0.9211545033808853,5902.973312557676
0.952,0.9576432036573771,5893.195523443434
0.956,1.0025406648900073,5895.124235435556
0.96,1.054489056043212,5901.831467178029
0.964,1.1079386394149602,5907.008150684613
0.968,1.15436546101694,5904.075085081519
0.972,1.1851627641367581,5901.80341302309
0.976,1.1948003612441367,5893.465418939683
0.98,1.182748933085398,5902.921819743807
0.984,1.1534026001121884,5897.179082022752
0.988,1.1143142408769482,5893.77942731292
0.992,1.0738151366091964,5901.368048655296
0.996,1.0390844001154589,5900.888948398212
1.0,1.0151355016137433,5889.617303016203
1.004,1.0045726173215292,5898.994999425473
1.008,1.0077113368641422,5899.337606455966
1.012,1.0227549318236724,5906.538827139108
1.016,1.0459865745205403,5896.008821289472
1.02,1.0721243819822357,5895.333498991646
1.024,1.0949657684712224,5907.051230207733
1.028,1.108370845193999,5904.445531386629
1.032,1.107603719978282,5909.687077085771
1.036,1.0908890212989977,5891.433326596834
1.04,1.0606721877736784,5898.7954184694045
1.044,1.0238244830041583,5902.008266892465
1.048,0.9902798778174613,5892.919324741704
1.052,0.9702678258979522,5901.906138060153
1.056,0.9709953457744798,5896.089634135507
1.06,0.9939811748378173,5900.570515013164
1.064,1.0341409302693574,5905.614645158455
1.068,1.081173055064967,5906.205898817333
1.072,1.122905244278407,5902.0976507610985
1.076,1.1493785754235784,5908.091574549711
1.08,1.1560680438095632,5904.632121283849
1.084,1.1450027126349989,5897.356311079439
1.088,1.1234722360314227,5907.851747349529
1.092,1.1010360685425398,5899.805449106785
1.096,1.0861479226495376,5902.596315434565
1.1,1.0836045455869385,5904.338155838284
1.104,1.0934967018347286,5906.721631189581
1.108,1.1117915473689133,5894.743950947564
1.112,1.13220913106463,5897.629220584913
1.116,1.1486761681962239,5907.068340625149
1.12,1.1574891774391538,5900.610933689874
1.124,1.1584665285524156,5897.5053377576605
1.128,1.1547260407290514,5897.554632410859
1.132,1.1512102777304238,5912.7043938839215
1.136,1.1525874486986156,5905.524874276586
1.14,1.1614180969058039,5896.587357097576
1.144,1.1772673185110107,5900.128567676771
1.148,1.1968849577303526,5896.955266382141
1.152,1.2151200891667606,5898.8868750655565
1.156,1.2262077974446541,5908.34748394626
1.16,1.2252890061172657,5894.511239556809
1.164,1.210034302174917,5903.51733438254
1.168,1.1819170354684045,5906.614735729078
1.172,1.1464286557342163,5909.90469845299
1.176,1.1117798015259064,5904.049967736876
1.18,1.086328744387662,5897.176265832139
1.184,1.075680117819462,5903.606437957554
1.188,1.080682508087138,5895.17185085334
1.192,1.0972457249335537,5906.404694309903
1.196,1.118090082325548,5900.360511812213
1.2,1.135616953388951,5900.384452276951
1.204,1.1445901865453274,5899.473432051003
1.208,1.1435451821241522,5904.522190321548
1.212,1.1345996496907653,5896.305513356334
1.216,1.1221053034533328,5900.26170204301
1.22,1.1109370919170583,5903.880349987738
1.224,1.105108557210461,5906.72939190668
1.228,1.1070352330850564,5892.181665927945
1.232,1.117393087048622,5907.429538971351
1.236,1.135321252750126,5903.250793755196
1.24,1.1587654545136699,5904.732374288516
1.244,1.184920546485353,5902.372689332266
1.248,1.2107630609484965,5904.067186754553
1.252,1.2335176493121827,5897.075153526679
1.256,1.2508300615996761,5898.428688067847
1.26,1.2606346714848458,5900.65574933195
1.264,1.2610286439822695,5901.6514730726285
1.268,1.2505184631653592,5898.929783872142
1.272,1.2286811588660267,5895.438262332928
1.276,1.196873540558808,5899.693022181038
1.28,1.1584919500516626,5902.820709977535
1.284,1.1185219246675988,5887.504490786888
1.288,1.0824866359320324,5893.184767450431
1.292,1.0551096076541089,5898.084074909014
1.296,1.0390152238106967,5905.879625952698
1.3,1.033782353893665,5901.742255388915
1.304,1.035697146638714,5896.395052938235
1.308,1.0384728703615809,5900.493057896358
1.312,1.0349289872590444,5894.154186341534
1.316,1.01923839029269,5900.49555529324
1.32,0.9890411439854202,5895.1111957655085
1.324,0.9466701918927644,5906.814878633728
1.328,0.8990151429734143,5896.055085450032
1.332,0.8560315045204416,5897.545540846008
1.336,0.8283341236270978,5894.981853224577
1.34,0.8245385225876897,5893.043982887293
1.344,0.8490372239108135,5891.17147620606
1.348,0.9007616314380331,5894.562729261983
1.352,0.9732128643809844,5898.99159820797
1.356,1.0557445134845802,5903.516089443314
1.36,1.1358372216620825,5894.276212037144
1.364,1.2018848157511566,5900.316593414091
1.368,1.245807732313969,5897.145796620661
1.372,1.2647728822159428,5894.16447897983
1.376,1.2615423256872487,5900.865157637494
1.38,1.2433937065260805,5897.24881813054
1.384,1.2199464803737037,5884.042760632369
1.388,1.2004634093933149,5910.764052598525
1.392,1.1912918975034537,5897.510799232102
1.396,1.1941211239289593,5904.733847370961
1.4,1.2056038930895583,5901.766149176103
1.404,1.2185290759978713,5903.058906575005
1.408,1.2242165005089143,5903.950276655334
1.412,1.215373484139689,5898.216090556228
1.416,1.1884605557548094,5886.26790583711
1.42,1.144726942448129,5893.997660197425
1.424,1.0895197685137392,5902.698424296385
1.428,1.030159922025106,5899.321050336668
1.432,0.9733389896101045,5905.176007018258
1.436,0.9232286507314279,5896.216714154965
1.44,0.881061833875635,5906.5068375365
1.444,0.8460727010709987,5893.161428760765
1.448,0.8169864423076784,5896.3292782837625
1.452,0.7931918373377976,5896.544634514316
1.456,0.7752177261722043,5901.451226079593
1.46,0.7646668163327736,5894.695356412069
1.464,0.7639048323303501,5905.491608141639
1.468,0.7755903534603811,5895.957662601521
1.472,0.8019540342932683,5902.124185698988
1.476,0.8438316674466289,5897.495860316165
1.48,0.8996908069664741,5893.694615785848
1.484,0.9650698378792302,5905.213366220332
1.488,1.0328685705660159,5899.032900437029
1.492,1.094673953811461,5905.775693622493
1.496,1.142792876988342,5905.833711739057
1.5,1.1722432287225493,5896.365838910395
1.504,1.1819899467212511,5900.771626497838
1.508,1.1751388532380964,5896.578806255725
1.512,1.1582061229448262,5896.053466640945
1.516,1.1397016736985937,5900.052483742885
1.52,1.1282302601795218,5900.387445047949
1.524,1.1303841243827886,5898.738561847559
1.528,1.1488955950028705,5908.603923498567
1.532,1.1816304601783438,5900.062565268092
1.536,1.2218793253111173,5901.764324868313
1.54,1.2600380609414648,5905.064925884039
1.544,1.2862496850131748,5905.149065138571
1.548,1.2931497281219264,5896.732341232729
1.552,1.2778186560133677,5897.220478243697
1.556,1.2424282948887586,5895.574035332106
1.56,1.1935948669627867,5897.073267218145
1.564,1.1408611333460124,5905.451672280475
1.568,1.0948878479901913,5899.194285693591
1.572,1.0657544669311896,5899.147973499474
1.576,1.061402035986638,5897.903864810914
1.58,1.0861158838435796,5894.51029591455
1.584,1.1392212080543436,5893.294416802269
1.588,1.2144870485104444,5898.10596568547
1.592,1.300674081952371,5898.216414088543
1.596,1.3832703416880912,5901.126580381177
1.6,1.4471058875640495,5904.102099012159
1.604,1.4793808865471145,5909.902087262061
1.608,1.4725145372654749,5903.131805402121
1.612,1.4260332020952429,5897.220670593249
1.616,1.346717064103221,5896.876874802602
1.62,1.2467057820461325,5895.723743983829
1.624,1.1401020099499326,5902.922347337071
1.628,1.0393118581650447,5896.60743738303
1.632,0.9524857865949854,5898.330624591096
1.636,0.8828792887917205,5903.9365476702005
1.64,0.8300205613590399,5900.009529849815
1.644,0.7917839181189591,5900.928182556012
1.648,0.7662610928102664,5897.468988149324
1.652,0.752702155630548,5905.623848205142
1.656,0.7514151323632979,5904.164952996837
1.66,0.7629972501538179,5900.319834462219
1.664,0.7874236757026742,5898.602822378962
1.668,0.8233796480272112,5898.757637676485
1.672,0.8680052935011798,5898.990483953507
1.676,0.9170968196274271,5898.543096189237
1.68,0.9657222011818885,5898.581242822518
1.684,1.0090576756406535,5908.03992296719
1.688,1.0431338687749143,5895.014557170971
1.692,1.0652924697963722,5898.439224480942
1.696,1.074450001256391,5903.81710097213
1.7,1.0714296376840615,5898.455376165142
1.704,1.0594035374437938,5899.276946781713
1.708,1.0440336304178939,5904.019097460448
1.712,1.0327161774179188,5908.122714283384
1.716,1.0327584166870152,5899.17982651228
1.72,1.0490410393077263,5904.341032232661
1.724,1.08211470516795,5897.328988186522
1.728,1.1274816503946692,5898.808375502358
1.732,1.1763015989316294,5901.668220164836
1.736,1.2173073160187453,5906.678978064503
1.74,1.2394312881301497,5899.638638021689
1.744,1.2344884285918878,5899.552744388303
1.748,1.199262522144779,5892.59216239865
1.752,1.1365332234711365,5905.094152277556
1.756,1.0548239609401857,5910.622497871312
1.76,0.9668364514328878,5906.535859559807
1.764,0.8867561944260656,5907.905864336953
1.768,0.8269603683838286,5904.045239067409
1.772,0.7949985240794263,5910.998529353504
1.776,0.7917839846552673,5899.133756893986
1.78,0.8115978726184844,5893.730289151888
1.784,0.8439030867692392,5900.785193260816
1.788,0.8764003594498934,5888.798527751487
1.792,0.898440360514949,5901.004761893057
1.796,0.9038264406551584,5901.66535874973
1.8,0.8921810493337416,5908.985984511668
1.804,0.8684722050065088,5900.264808580092
1.808,0.8409465895616608,5905.997981603148
1.812,0.8182947375710574,5900.256680777499
1.816,0.8070678001848018,5900.9541741435805
1.82,0.8101247341240565,5895.605991617138
1.824,0.8264206223784215,5898.23244015074
1.828,0.8519741487617601,5909.610661956478
1.832,0.8814868167366595,5901.233365648776
1.836,0.9099135972416578,5901.278068926364
1.84,0.9334118412510388,5900.323149536703
1.844,0.949517810199025,5908.58457300871
1.848,0.9568632026412767,5903.508292874079
1.852,0.9549020910996174,5901.04370774653
1.856,0.9439109569273192,5904.842206960294
1.86,0.92522517610038,5896.1387374478
