时间(s),电压(V),幅值(高频80K)
0.0,0.7933456963852034,5892.01845776241
0.004,0.8922661204175403,5901.535744530797
0.008,0.9887642237250703,5900.132320506273
0.012,1.0798231727212126,5904.414006175497
0.016,1.1615247244033835,5899.217022136006
0.02,1.2293788208645895,5882.838114082128
0.024,1.2792981290492684,5899.848524343124
0.028,1.3089380669579773,5894.098174426075
0.032,1.318741218443922,5901.910740377271
0.036,1.3121018124958939,5899.84658144692
0.04,1.2945861255227982,5898.283574339151
0.044,1.2726082062668391,5896.415019104983
0.048,1.2520471593731672,5903.164024052763
0.052,1.2371479344189162,5900.960466274928
0.056,1.229900018638742,5900.966509802094
0.06,1.2299828100764343,5904.472478275994
0.064,1.2352667888041269,5894.633647289514
0.068,1.2427367051261509,5902.34142154027
0.072,1.2495522318473409,5905.516551080698
0.076,1.2538670816166233,5910.668636327483
0.08,1.2551176927231291,5899.231300985157
0.084,1.2537534740782093,5901.187945148141
0.088,1.2506384242994644,5903.38557036826
0.092,1.246476447188508,5898.231857678841
0.096,1.2415815646650228,5901.293409720924
0.1,1.2361159093114145,5901.202735371447
0.104,1.2305885780943342,5901.69612340053
0.108,1.2261748397173093,5902.535247004225
0.112,1.2245224029353312,5900.8910812729
0.116,1.2270848454589467,5902.764503361546
0.12,1.2343258201048946,5904.933037560361
0.124,1.2451536913857355,5892.925143752085
0.128,1.2567611420008713,5906.682456240722
0.132,1.264899943691219,5900.762184093859
0.136,1.2646366471051187,5896.363373477205
0.14,1.2516463357518912,5892.688020905977
0.144,1.2238552070559854,5897.207216207808
0.148,1.1828184219562492,5900.820872128187
0.152,1.1340689139827653,5897.541266676286
0.156,1.086074456790344,5909.42921253322
0.16,1.0481238684015703,5907.315811422024
0.164,1.0279286029181853,5900.822693444327
0.168,1.029735943467554,5899.210193389708
0.172,1.053425393498976,5901.010865486445
0.176,1.0946706094572802,5900.486678086357
0.18,1.1459772515807634,5894.398636443248
0.184,1.198269840151583,5906.046942810895
0.188,1.2426580700004002,5896.685961959079
0.192,1.2720388697485985,5904.950853481682
0.196,1.2822605011572974,5901.219733873643
0.2,1.2726926886827747,5901.504728321069
0.204,1.2461957258642251,5906.027720372853
0.208,1.208558250137749,5905.719564886403
0.212,1.1674489915142303,5900.073358134759
0.216,1.130951518036892,5900.983013067725
0.22,1.1059027529542962,5899.300628506936
0.224,1.0964034451150724,5895.114338654896
0.228,1.102887695387822,5893.647456145601
0.232,1.122038893579361,5900.953753775998
0.236,1.1476406641037267,5899.457971627496
0.24,1.1721664074915856,5891.1031188916695
0.244,1.18865240108726,5901.378392540792
0.248,1.192315763044018,5899.789181854443
0.252,1.1814927252280218,5898.520943139189
0.256,1.1577071016191582,5895.12455296382
0.26,1.1249702601161151,5900.439630311686
0.264,1.0886733143249787,5897.785539098189
0.268,1.05449963157125,5893.233347697126
0.272,1.0275946133933185,5904.660858039792
0.276,1.0119579389815447,5901.0668931873015
0.28,1.0099220268198557,5897.811644430764
0.284,1.02168513254603,5895.146051946012
0.288,1.0450195207547026,5889.280655462221
0.292,1.0753522440586087,5902.67895619255
0.296,1.1063950442907604,5895.396726713891
0.3,1.131375252356964,5897.735464468572
0.304,1.144684685232059,5909.701590966414
0.308,1.14347800436252,5901.286608446601
0.312,1.1286054580607823,5899.610996591044
0.316,1.10445982601807,5899.67102827329
0.32,1.0777842175982648,5904.317347767175
0.324,1.055870856874256,5894.382662741379
0.328,1.0446600570775484,5893.806288462939
0.332,1.0471807629239547,5897.996678531227
0.336,1.062757496361002,5903.010238205015
0.34,1.0873289180409476,5898.470225130406
0.344,1.1148698933868197,5901.870668853156
0.348,1.1393930992838766,5895.681486635366
0.352,1.1567135267164197,5892.629997457208
0.356,1.1653169611299974,5899.275990605644
0.36,1.1661419336238346,5900.313788750423
0.364,1.161560813121473,5896.898678460124
0.368,1.1541160509567985,5898.721401613031
0.372,1.1455789486153918,5903.661924174131
0.376,1.136714801773238,5902.65633360702
0.38,1.1278306236406193,5909.900674703702
0.384,1.1197844713475273,5899.897107488055
0.388,1.1147917498136943,5901.347128190689
0.392,1.1163465902900924,5904.5044854874495
0.396,1.128001504478255,5894.430274711041
0.4,1.1514130117309869,5906.731706464545
0.404,1.184606813101781,5894.076722384458
0.408,1.221516166346745,5898.867825578515
0.412,1.2533524456346459,5907.454603195593
0.416,1.2714659328411102,5904.237496064391
0.42,1.2705341576742741,5893.515058207399
0.424,1.2506731241266287,5890.35660866968
0.428,1.2175707848828026,5898.898838393299
0.432,1.1806620239130334,5905.495679457066
0.436,1.1501411628616278,5902.113825824298
0.44,1.1339259208063523,5899.66266955655
0.444,1.1355571295807625,5892.019653965465
0.448,1.1535636687730353,5894.192530045457
0.452,1.182236831722322,5899.074837236043
0.456,1.2133261226100003,5901.147706822308
0.46,1.2380671321070253,5898.622094327569
0.464,1.2490952580706127,5894.441777803838
0.468,1.24196613510603,5898.176376462443
0.472,1.2160756394724175,5898.852091797833
0.476,1.1748066330331504,5895.632565278218
0.48,1.1248378598716866,5894.286387139822
0.484,1.0747381605313129,5908.008989108281
0.488,1.0331491005992044,5909.689275591749
0.492,1.0069791488315536,5890.263621580918
0.496,1.0000654346857902,5903.605106052444
0.5,1.012643537553738,5900.681174991899
0.504,1.0417032108150694,5894.111730379063
0.508,1.0820209588699388,5899.024454363203
0.512,1.127474985350139,5898.378015441822
0.516,1.17221783751282,5901.989065765968
0.52,1.2114098578682437,5900.338050535035
0.524,1.241449927126375,5894.462582239966
0.528,1.2598734540066805,5893.812951935754
0.532,1.265204711218804,5908.459382065144
0.536,1.2569868214023139,5902.105329233978
0.54,1.2360184695032668,5908.24150107978
0.544,1.2046235223162802,5899.728003765815
0.548,1.166667617427616,5900.520832053652
0.552,1.1270981791911876,5906.253988189483
0.556,1.0910376729161428,5882.733757539127
0.56,1.0627393512463554,5900.403018109079
0.5640000000000001,1.044804760754918,5899.855830051701
0.5680000000000001,1.0379275648418038,5900.625429289732
0.5720000000000001,1.041187015696962,5897.155654905791
0.5760000000000001,1.052691183003797,5892.889748953839
0.58,1.0702546347436046,5897.558042763686
0.584,1.091839781147642,5897.216200516007
0.588,1.1156755119614559,5898.264602821336
0.592,1.1401759242868743,5896.079863795706
0.596,1.1638635323650337,5900.7382826673565
0.6,1.1854106210198647,5895.702405024621
0.604,1.2037700304777277,5899.578346219352
0.608,1.2183075954193938,5900.59580041907
0.612,1.2288740259833772,5895.755740023374
0.616,1.2357946532183735,5895.615158164404
0.62,1.2397842741819414,5906.451741192606
0.624,1.2418023115476484,5900.081666070867
0.628,1.2428213534431332,5897.028341935567
0.632,1.243431900290415,5899.465330198353
0.636,1.2432902055006654,5903.124934083862
0.64,1.240656157505311,5900.581270472533
0.644,1.2324356659670335,5898.541678387332
0.648,1.2150224906682936,5909.882213843157
0.652,1.185857202109391,5899.773566050432
0.656,1.1451649139197355,5905.141227453559
0.66,1.0970421963970103,5902.744541633806
0.664,1.049181629059969,5894.179938955406
0.668,1.0110724244022429,5893.291830317608
0.672,0.9912199130609087,5899.345248757236
0.676,0.9944192798700283,5903.1333412773165
0.68,1.0201565439125881,5902.088088875018
0.684,1.0627655665774023,5901.714814952616
0.6880000000000001,1.1132496414514703,5903.290684406888
0.6920000000000001,1.1620230091423,5905.28233881854
0.6960000000000001,1.2015376061970122,5898.566804542249
0.7000000000000001,1.227921318647173,5897.575324130304
0.704,1.2412303575654764,5889.849508686715
0.708,1.2444836307676919,5892.667266952182
0.712,1.2420803231577988,5897.150268119155
0.716,1.2383056102050802,5893.0390046491975
0.72,1.2363600954017062,5898.6865240587385
0.724,1.237953268626554,5895.89656925502
0.728,1.2433020583721082,5895.352602483187
0.732,1.2514066530566297,5902.434980887191
0.736,1.2605208973068778,5901.346613791588
0.74,1.2686754903749633,5896.929859143598
0.744,1.2740614223625588,5903.80450481283
0.748,1.275182231665996,5905.314494608057
0.752,1.2708933014925798,5899.796991884372
0.756,1.2605541218837952,5900.998975493682
0.76,1.2443784068977946,5908.389666348017
0.764,1.2237871597587142,5907.134225295289
0.768,1.2014333486542386,5898.6678395396175
0.772,1.1807217259533431,5898.0730191943385
0.776,1.1649500519859803,5889.32491415029
0.78,1.1564122443195968,5899.3505047626895
0.784,1.1558396100646555,5899.431998379994
0.788,1.1624189335718709,5892.355924776157
0.792,1.174325268123994,5916.051831886758
0.796,1.1893900625421083,5902.719788031751
0.8,1.205478073149162,5881.53747345159
0.804,1.2204484390914538,5899.12885142937
0.808,1.231940059932499,5899.012615173139
0.812,1.2373359666269987,5900.205421904281
0.8160000000000001,1.2341049996327038,5906.004846345718
0.8200000000000001,1.220468191466357,5893.457252727759
0.8240000000000001,1.1961472726297397,5899.370729891565
0.8280000000000001,1.1628990237955867,5908.379588228055
0.8320000000000001,1.1246159672871756,5905.439699600085
0.836,1.086908570545573,5905.485738028882
0.84,1.05621526900304,5897.253491979983
0.844,1.0385982282124946,5905.228369476854
0.848,1.0384662593800584,5895.357911980213
0.852,1.0575093746117126,5900.7637231594135
0.856,1.0941176632680105,5896.9573496578205
0.86,1.143475481118956,5896.86614416334
0.864,1.1983844106351063,5897.548257806992
0.868,1.2507008275400542,5896.289729233151
0.872,1.293079556896202,5909.429316780592
0.876,1.320549934811644,5906.365815025961
0.88,1.3314536378342008,5903.440923799611
0.884,1.3274918552155544,5904.188470238806
0.888,1.3129182848826157,5896.225000277796
0.892,1.2931326827758667,5901.942968474556
0.896,1.273092375119338,5904.48443826929
0.9,1.2560752957513193,5898.230439517877
0.904,1.2432498679371249,5898.880442683923
0.908,1.2341356565689727,5903.22206442374
0.912,1.2275880003587716,5899.94687347798
0.916,1.222761769643779,5901.006662324939
0.92,1.2196702705974536,5900.519933066256
0.924,1.2192046740834248,5895.592776665858
0.928,1.2226330801643799,5893.645083058675
0.932,1.230722129759026,5905.216248803276
0.936,1.2428123983859016,5898.021837600331
0.94,1.2563350259554382,5904.058841953483
0.944,1.2671771732453927,5908.516776145806
0.948,1.2709338921202515,5901.388037875439
0.952,1.2646160527798247,5895.53526723163
0.956,1.2480862970602744,5903.357935225521
0.96,1.2245256576919605,5906.988520656222
0.964,1.1995973265173234,5895.305262114899
0.968,1.1795287021560295,5901.701305252058
0.972,1.168821760191698,5889.284229571625
0.976,1.1684806237253194,5897.936654531084
0.98,1.1754507709693311,5890.063789397053
0.984,1.1835362919348125,5909.33646801894
0.988,1.185556025179457,5906.484841613849
0.992,1.1760056759317317,5904.885313716085
0.996,1.153205518514791,5916.22434262378
1.0,1.1200954059273032,5904.304715659482
1.004,1.0834402890063901,5893.717129309352
1.008,1.051823875437307,5904.5953891120935
1.012,1.0331438922427878,5890.243131026518
1.016,1.0323983342724579,5902.87923264863
1.02,1.0504174034223346,5900.211434865986
1.024,1.0838483015540337,5897.677615201072
1.028,1.126264673453186,5904.644601925676
1.032,1.1699423438750136,5907.237278430222
1.036,1.2077013747332563,5908.004931987331
1.04,1.2342794450783239,5888.2985067838745
1.044,1.2469732420320574,5905.199069522904
1.048,1.2456296219605856,5903.436398208517
1.052,1.2322534959708247,5905.420457473524
1.056,1.2104442843148782,5897.939118404765
1.06,1.1847257758308576,5895.165533940552
1.064,1.1597673044571257,5892.345217742523
1.068,1.1395446447300281,5908.194670837455
1.072,1.1265841711014621,5894.9602015862965
1.076,1.121488194837588,5909.639605301547
1.08,1.1229257326568183,5899.273990608077
1.084,1.1281779233554774,5898.429821948946
1.088,1.1341192949588215,5898.488097180271
1.092,1.1382885336949702,5895.671859362403
1.096,1.1396667817333863,5888.041622880231
1.1,1.1389515295773733,5903.760703671524
1.104,1.1382682355446196,5904.804364731145
1.108,1.1403296817718274,5892.642012579546
1.112,1.1472073029812635,5896.735310450076
1.116,1.1591594174817834,5900.971941840379
1.12,1.1741108890061829,5893.6461613836345
1.124,1.1881615223826087,5897.19697405633
1.128,1.1970037045461648,5901.57395219832
1.132,1.1976626911598804,5900.565279454287
1.136,1.1897999375938986,5911.705187029223
1.14,1.1760191938464122,5892.893750540295
1.144,1.1610607569895068,5899.887242925064
1.148,1.1502354433473714,5897.178367256486
1.152,1.1477564051042162,5896.52367669763
1.156,1.155639905909422,5903.728440691281
1.16,1.1734952092641222,5892.064847129655
1.164,1.198998859880467,5904.174455441533
1.168,1.2285623242370798,5903.857624071676
1.172,1.25785349691188,5893.669688130215
1.176,1.2821977962970363,5905.841473532448
1.18,1.2971100398358706,5902.272540473354
1.184,1.2991232532364392,5902.998130380866
1.188,1.2867666760103016,5893.8696580995065
1.192,1.2612773237017212,5903.386674179933
1.196,1.2266453536407382,5899.030086999987
1.2,1.1888495121718152,5890.147370743043
1.204,1.1544341086092207,5901.299968018078
1.208,1.1288276058211284,5894.081234041273
1.212,1.1149810363365649,5903.64256275327
1.216,1.1128837748294715,5904.280313071766
1.22,1.120180083575444,5913.690245136764
1.224,1.133581967135811,5897.293523448421
1.228,1.1503641843966161,5905.509594627358
1.232,1.1691816564947302,5902.39081758574
1.236,1.189805721007819,5893.140604498266
1.24,1.2119915073518994,5899.114994141482
1.244,1.234246038379576,5895.81258086241
1.248,1.2533735851997914,5891.06525407023
1.252,1.2652131679879604,5899.209720890865
1.256,1.2662796780774448,5900.408633753179
1.26,1.255526944615207,5906.129207502487
1.264,1.235383370562718,5895.04389692513
1.268,1.2115330692189956,5895.805801549566
1.272,1.1914472025814067,5904.586018102322
1.276,1.182152689273379,5894.333733984722
1.28,1.187972177177835,5903.920063069589
1.284,1.2089713647252773,5891.619436609442
1.288,1.2406582614499646,5901.336770664699
1.292,1.27510228039638,5892.084378656017
1.296,1.3031610167076082,5897.458774500053
1.3,1.3171305188916156,5895.8915224386255
1.304,1.313026021343183,5901.338172989437
1.308,1.2918361412253636,5906.928762527213
1.312,1.2593931749758442,5901.045988472927
1.316,1.224887583304243,5896.909548798849
1.32,1.198412223985925,5897.163625681887
1.324,1.18816586284102,5903.487876785283
1.328,1.1980753551616992,5897.116003131953
1.332,1.2265693475906476,5897.163427209541
1.336,1.26693953437157,5893.844151960732
1.34,1.3091858152197207,5896.223192818254
1.344,1.342713633926489,5901.715450208233
1.348,1.359018827470653,5904.48711320528
1.352,1.3536393743904862,5898.307849447569
1.356,1.3269983390773397,5899.511088735504
1.36,1.284066747634665,5903.029364116314
1.364,1.2329799643571968,5902.890426629225
1.368,1.1829333545011707,5907.405487548625
1.372,1.141881733875878,5905.891160369404
1.376,1.1146744313526271,5900.690379044581
1.38,1.1021734984547893,5896.981468840876
1.384,1.1016130228975145,5902.737142917973
1.388,1.108034311028388,5899.035343821024
1.392,1.116216315833711,5896.146436054574
1.396,1.1223281942212873,5894.21808315324
1.4,1.124730171066078,5898.587223736548
1.404,1.123835480200787,5900.73868777462
1.408,1.1213654163137505,5903.318790381901
1.412,1.119434577888213,5909.5937920109045
1.416,1.1197626841966415,5895.402417413906
1.42,1.1231099800309672,5902.061435079179
1.424,1.1288928831982785,5899.123601540315
1.428,1.134944430563649,5893.604315842645
1.432,1.137546058132517,5909.569747164907
1.436,1.1319776656701532,5903.902511213015
1.44,1.1137052669748844,5889.714228203006
1.444,1.0800005388256937,5901.458970149869
1.448,1.0314841395989414,5890.958745722882
1.452,0.9729641971449582,5897.219844815897
1.456,0.9130733793416478,5897.834061601879
1.46,0.8626073393606875,5900.743324658971
1.464,0.8320007699990905,5896.914480688383
1.468,0.8287397662552041,5901.152464219898
1.472,0.8554714901628039,5906.603730068019
1.476,0.9092323839240343,5901.090536404205
1.48,0.9818780567822871,5904.154022395624
1.484,1.061615089969531,5899.779042439783
1.488,1.1353910087587966,5906.090093612109
1.492,1.191664968770527,5893.456995746394
1.496,1.2228675850459385,5895.890237545025
1.5,1.226872409874392,5899.669399137012
1.504,1.2070606543340436,5893.299597433404
1.508,1.170932433669432,5908.310866585146
1.512,1.1276497417598876,5896.273839591439
1.516,1.085335628286786,5898.852481026325
1.52,1.0491349479696421,5901.741538214977
1.524,1.0206959190003428,5897.683352836522
1.528,0.9990106266115991,5912.427564144875
1.532,0.9819658745955175,5906.401439147256
1.536,0.9678386513200523,5890.372224351323
1.54,0.9562110210943239,5893.147813333493
1.544,0.9481010599991074,5904.442577432049
1.548,0.9453878624441333,5905.949829104171
1.552,0.9498241739064094,5909.212061218013
1.556,0.962017273998026,5904.152838762386
1.56,0.9807075506863241,5903.27179407843
1.564,1.00258539790215,5898.662018357445
1.568,1.0228073626971954,5898.253377534293
1.572,1.0362044041956702,5898.501078831118
1.576,1.0388752401417183,5907.45512786557
1.58,1.0296021636849078,5905.754378768166
1.584,1.010525082770328,5896.49622835313
1.588,0.9867633105106203,5904.716286805121
1.592,0.9650474807420759,5908.018962777945
1.596,0.9517890116892297,5904.202843122314
1.6,0.9512300583759961,5893.797090034104
1.604,0.9642610552813664,5901.700870343797
1.608,0.9882070298781572,5908.1802725970565
1.612,1.0175459082045861,5909.719735632924
1.616,1.0452871394403105,5898.476947574249
1.62,1.0646551416322163,5900.154488130835
1.624,1.0707241086606352,5895.773359755603
1.628,1.0616519409534353,5901.912522117484
1.632,1.0391925400647692,5902.213001677228
1.636,1.008319618539793,5904.917319202767
1.64,0.9760416520574655,5899.794177219313
1.644,0.9497075462253194,5905.188243623352
1.648,0.9352503730327288,5897.471811331694
1.652,0.935875588599869,5903.952059858631
1.656,0.9515729134118365,5892.6031928056
1.66,0.9794861417372395,5899.187097740348
1.664,1.0148224554560397,5898.149777527776
1.668,1.051886067031297,5902.108647250478
1.672,1.0849843834861364,5905.323549473184
1.676,1.1091586594792957,5898.779721232552
1.68,1.1207745046573059,5904.955771140249
1.684,1.1179847442716446,5902.411026781147
1.688,1.101034351979647,5905.219085954554
1.692,1.0723654470909856,5908.4607536229205
1.696,1.0364838710499682,5897.7571569796855
1.7,0.9995080994225083,5911.24801457082
1.704,0.9682480844861234,5898.576893676833
1.708,0.9487337347472545,5905.94357199858
1.712,0.9444612676189249,5900.933404471079
1.716,0.9550222256263696,5907.650135278925
1.72,0.9758225207758383,5909.06669911362
1.724,0.9992024902588972,5905.722254973856
1.728,1.01669799921458,5901.517242771731
1.732,1.021711445074329,5887.179780722627
1.736,1.0116511068553282,5912.038271466816
1.74,0.9887395945389529,5901.842627621692
1.744,0.9591722403223999,5904.477383367276
1.748,0.9309514932127444,5905.633538482084
1.752,0.9112281466868276,5906.769458014613
1.756,0.9040894969906927,5902.093260225046
1.76,0.9094743957386587,5908.6973457784925
1.764,0.9234860207726682,5908.155042376675
1.768,0.9399447142269438,5903.85807740514
1.772,0.9526101044392447,5907.129356824713
1.776,0.9572345601016139,5910.6539222422825
1.78,0.9526813964736325,5904.358517973709
1.784,0.9407721539128703,5905.634319352479
1.788,0.9250950006486065,5909.732222935881
1.792,0.9094243706412491,5912.071597120292
1.796,0.8964935962803982,5897.231535786017
1.8,0.8875987129826022,5908.140998040914
1.804,0.8830197792682334,5908.003397698758
1.808,0.8827907920284854,5917.807345871915
1.812,0.8871987763668322,5902.090189611055
1.816,0.8966297366258292,5910.859191520733
1.82,0.9108422358554858,5900.365561270718
1.824,0.9281530932328057,5909.137007550217
1.828,0.9451206987004085,5916.180536170456
1.832,0.9570391336539454,5901.0452809913295
1.836,0.9590944189165457,5912.215534836145
1.84,0.9477156001103835,5914.454003428212
1.844,0.9216560485414222,5901.356693279124
1.848,0.8825378997234956,5910.392609329509
1.852,0.8347688474018637,5907.496364741899
1.856,0.7848460087139575,5905.745464257592
1.86,0.7401699644185937,5910.107441200781
