时间(s),电压(V),幅值(高频80K)
0.0,0.7307447963478423,5903.677567628639
0.004,0.9366572562096984,5896.464221098034
0.008,1.1275302569658414,5906.370171627475
0.012,1.2912300819949751,5902.0101061288815
0.016,1.4198742499158503,5897.982805443096
0.02,1.5105972189913492,5905.769966504076
0.024,1.5655438798815737,5897.062650965654
0.028,1.5912549478364946,5903.852070113035
0.032,1.5972495847223012,5902.28993555434
0.036,1.5937564039790975,5903.456907899184
0.04,1.58921270692219,5904.142210203436
0.044,1.5885556485613357,5894.365805696189
0.048,1.5928996357223888,5899.948385716355
0.052,1.6003584951818564,5908.447100950809
0.056,1.6073451533131538,5906.563728241596
0.06,1.609841888656747,5896.300506141798
0.064,1.6044369780903978,5896.462964953481
0.068,1.5890361681576353,5894.60465505922
0.072,1.5631440599594588,5891.337874395875
0.076,1.5276757298692476,5893.281854318661
0.08,1.4844685100632775,5901.661879233087
0.084,1.435859412343171,5900.288598401678
0.088,1.3846395648632082,5897.330099500217
0.092,1.3343591552746552,5900.311987338877
0.096,1.2895973358827104,5899.145264463932
0.1,1.2557465239956134,5903.826638593832
0.104,1.2381329253215487,5906.140193035106
0.108,1.2406597631261398,5903.420501829748
0.112,1.2643915823244862,5900.058754970252
0.116,1.3065822193029282,5893.3201179354255
0.12,1.360605447643039,5904.369470326534
0.124,1.4169965987390176,5896.678468929777
0.128,1.4653699210136422,5901.669727560294
0.132,1.4965819320670497,5904.227904223317
0.136,1.5044531592061836,5892.475761893865
0.14,1.4867016561358422,5896.143751336667
0.144,1.4451978909163539,5902.005228008379
0.148,1.3858098181654508,5895.549641316114
0.152,1.3178688666595084,5898.7496440176565
0.156,1.2529792304170917,5893.74435816431
0.16,1.2029192168362735,5896.921170561297
0.164,1.176858746349562,5903.848979485858
0.168,1.1787489614776894,5903.756650933295
0.172,1.206015592778396,5903.192536201067
0.176,1.2502960178217761,5899.128674033999
0.18,1.3000733167153575,5908.866568341858
0.184,1.3441965088000174,5908.086760233219
0.188,1.37491162812672,5896.803964250545
0.192,1.3893218385819377,5892.666421703028
0.196,1.3889706564645181,5903.553516056846
0.2,1.3780927433296981,5898.492699507608
0.204,1.3615297265070898,5903.999410269919
0.208,1.3431654367018482,5893.490969224118
0.212,1.3252508931974942,5896.535968458641
0.216,1.3085554143272586,5902.615586906265
0.22,1.2930459344094485,5899.676148782874
0.224,1.2787029215779409,5903.58333169578
0.228,1.2660868226720337,5905.642341937132
0.232,1.2564164605843295,5900.562128966337
0.236,1.251198797984583,5898.58016260806
0.24,1.251693309576046,5907.7831072004265
0.244,1.258539082640919,5910.243416169456
0.248,1.2717195166065896,5909.888220251634
0.252,1.290786657354484,5900.257033659698
0.256,1.3150535153245335,5898.837244719216
0.26,1.3434821494359412,5895.167848404684
0.264,1.3742907864958012,5899.015897062691
0.268,1.4046100751067931,5900.247338001805
0.272,1.4305670099666679,5898.378032351126
0.276,1.4479759904370106,5899.841913585101
0.28,1.4535212141163685,5911.790518323814
0.284,1.4460491420142287,5902.843956493338
0.288,1.4274671902509841,5901.6954254012335
0.292,1.4028364425017863,5899.573665263682
0.296,1.3795060993827415,5898.912120847723
0.3,1.3654346535977788,5899.085904627632
0.304,1.3670868559645861,5900.100842076378
0.308,1.3874700699513896,5895.962487771726
0.312,1.4249347344250767,5903.74479945581
0.316,1.473207254181052,5903.533857016689
0.32,1.5227234974802324,5891.616662140838
0.324,1.562866940939389,5902.40860861856
0.328,1.5844601223468127,5897.396671478575
0.332,1.5818959796001104,5899.198938597817
0.336,1.5544579807331065,5893.855510479199
0.34,1.5065106339924657,5903.766094012728
0.344,1.4464034904335392,5905.180248603072
0.348,1.384247400573919,5898.358120333314
0.352,1.329161699200098,5897.822046263002
0.356,1.2869391152943046,5893.454951519957
0.36,1.25903177137527,5896.009563972171
0.364,1.243180399577149,5896.838985018742
0.368,1.2351878500591715,5901.886829616892
0.372,1.2308810045911882,5900.523140082005
0.376,1.2275073787527497,5899.012426383271
0.38,1.2243522714015458,5896.365328288241
0.384,1.222707719032737,5896.758004262085
0.388,1.2253134086979138,5901.507154069379
0.392,1.235306169416418,5892.803505533611
0.396,1.2548382313358284,5901.945313314535
0.4,1.283790052504758,5890.311547425392
0.404,1.3191574647271076,5900.759259944438
0.408,1.355549383918942,5898.862162822171
0.412,1.3867578852347908,5901.719985673524
0.416,1.4077728482790854,5899.355107866318
0.42,1.4163439853370292,5902.929206513775
0.424,1.41349585982482,5900.171730566346
0.428,1.4030075751288638,5900.192358071947
0.432,1.3902706272953995,5903.667668477989
0.436,1.3809469022583298,5896.106668356874
0.44,1.3796852291161696,5903.2783514948105
0.444,1.3890746131427256,5896.451991201378
0.448,1.409027208581862,5902.268212762794
0.452,1.4367559000391392,5892.700142935316
0.456,1.4673807874312659,5904.045604915578
0.46,1.4950200855223739,5901.247329146399
0.464,1.514056753701104,5904.264623890419
0.468,1.52020926391828,5910.102870819291
0.472,1.5111793990558129,5894.075178517235
0.476,1.4869235015236175,5905.634162196611
0.48,1.4497175253164554,5898.6078610166805
0.484,1.4040506532877153,5904.629907967587
0.488,1.3562150344629738,5896.976432304296
0.492,1.3134907620542622,5899.333828425549
0.496,1.2830126441381817,5906.084944333909
0.5,1.2705720751802552,5896.836063314533
0.504,1.2796316385951794,5898.034602195758
0.508,1.3106831960833485,5897.00388791588
0.512,1.360908059387362,5905.789131199487
0.516,1.424157581836523,5910.278379772025
0.52,1.4915200639975301,5902.54602499264
0.524,1.5527371524031721,5902.382605757225
0.528,1.5982732116475302,5902.338899558392
0.532,1.6213270545520144,5889.887470019042
0.536,1.6190154590934867,5907.003452113043
0.54,1.5924089669721722,5894.199241133436
0.544,1.5457276556084756,5894.934706393513
0.548,1.485391242392748,5901.16281855575
0.552,1.4194728928861466,5888.196147735976
0.556,1.35748026222415,5892.911580073237
0.56,1.3097955576666864,5901.028876833749
0.5640000000000001,1.2861544183107152,5904.41698481537
0.5680000000000001,1.2932677134230899,5901.896359408245
0.5720000000000001,1.332480971951983,5894.494940179128
0.5760000000000001,1.3986115347116976,5903.867517514115
0.58,1.4806848811882727,5889.031114393505
0.584,1.5644958627773529,5899.16171217014
0.588,1.6361636988380632,5896.316403966614
0.592,1.685466953077213,5906.804405862281
0.596,1.7078565918742452,5894.648334219123
0.6,1.704575260593626,5902.005063028943
0.604,1.6810658598793464,5898.818716813244
0.608,1.644514124930438,5906.291445570081
0.612,1.6015868296502704,5904.6588131159415
0.616,1.5571094735774937,5893.300101473526
0.62,1.5138496808811779,5906.868571845795
0.624,1.473095448529993,5906.035897511545
0.628,1.435525248703432,5906.938870864114
0.632,1.401956510330994,5891.10281846962
0.636,1.3737918970384277,5902.884774853924
0.64,1.3531512388879134,5906.248443259167
0.644,1.3426708163364407,5903.096851424818
0.648,1.344892747824933,5901.4640385955845
0.652,1.3612766613285632,5901.35019709838
0.656,1.3911590988647553,5904.076769547892
0.66,1.4311985039440371,5903.751240125797
0.664,1.475720340077197,5894.914421828083
0.668,1.5179564763449016,5913.066435537652
0.672,1.5517316122008782,5909.998358253445
0.676,1.5729456414584313,5901.534085380094
0.68,1.5803160398626794,5906.17423013854
0.684,1.5751872016233095,5895.821159138607
0.6880000000000001,1.5606047982421178,5904.49186180213
0.6920000000000001,1.5401102232760677,5895.406357030591
0.6960000000000001,1.5167219179790496,5893.519145645605
0.7000000000000001,1.4923668255750642,5905.159643386823
0.704,1.4677537220876096,5902.776133795097
0.708,1.4424981144545752,5893.018760708621
0.712,1.4153204171987206,5904.990221678686
0.716,1.3843376866880572,5887.53577029353
0.72,1.3476530229548116,5904.064080081062
0.724,1.3043445565431895,5902.057641892716
0.728,1.2555717052989925,5899.014879267259
0.732,1.2052162213048172,5900.116406261183
0.736,1.1595867130647337,5898.683058872926
0.74,1.1261618217540448,5899.811259131476
0.744,1.1117720627752565,5898.751614210913
0.748,1.1207590831713523,5897.090835151324
0.752,1.1535476082887306,5903.063821523399
0.756,1.2059530836222323,5904.734107656816
0.76,1.2695278926424698,5896.256502980427
0.764,1.3331567657352228,5904.886622872869
0.768,1.385743003462118,5888.8892316658
0.772,1.419247373311579,5892.801754858166
0.776,1.4309441938998653,5897.967364821183
0.78,1.423943385061612,5900.199758636157
0.784,1.4057634011253264,5910.705033928829
0.788,1.3855593278617881,5895.900360450254
0.792,1.3710808928371605,5902.517811913216
0.796,1.3664563055109054,5894.938444799412
0.8,1.3715182163482278,5904.021979917082
0.804,1.3827021494929923,5898.863111670033
0.808,1.394865938396331,5909.48897993957
0.812,1.4031213134131877,5906.615055930592
0.8160000000000001,1.4040434083097395,5908.850441281624
0.8200000000000001,1.3961203834438856,5897.862066310727
0.8240000000000001,1.3796524990628047,5906.2339958847815
0.8280000000000001,1.356381651314768,5904.3131397795405
0.8320000000000001,1.329031268831911,5898.719028443082
0.836,1.3008378890363133,5900.839074411248
0.84,1.2751415830576733,5904.533481774727
0.844,1.2550795164233888,5909.127603314812
0.848,1.2433030362510509,5897.462007671178
0.852,1.2415504743363086,5902.443173346584
0.856,1.2500576928267484,5902.552424699459
0.86,1.2670718335811182,5904.890141787096
0.864,1.2888237459588407,5898.595115110831
0.868,1.310133080899343,5894.227557575407
0.872,1.325579629891622,5894.579893635931
0.876,1.3309734544217158,5888.440908420655
0.88,1.3246460315866595,5890.873924848944
0.884,1.3079875251591437,5905.816103798374
0.888,1.284893449407855,5906.501897596679
0.892,1.2602949606395695,5894.807746709444
0.896,1.2383910883822424,5897.810729545263
0.9,1.2213318042835557,5900.55545760811
0.904,1.208890150853823,5896.515938613396
0.908,1.1992018496659091,5898.936500784767
0.912,1.1901574949056168,5903.08338129814
0.916,1.180772556345159,5897.253737742326
0.92,1.1719564100500626,5905.623072810068
0.924,1.166463606769131,5893.350754854808
0.928,1.1681876630948222,5901.954972042574
0.932,1.181108558018316,5897.890439662112
0.936,1.2081401058275478,5900.110018526809
0.94,1.2500537966450445,5900.543245640742
0.944,1.304683885152117,5902.586904476712
0.948,1.3666757378498453,5901.529530508674
0.952,1.428050973349128,5891.488432653347
0.956,1.4797300971653733,5899.624565862339
0.96,1.5137646458469807,5891.363382403366
0.964,1.5255556122305516,5899.628696472594
0.968,1.51519808888259,5898.634640153108
0.972,1.4874426205045248,5905.56859366521
0.976,1.450325701873351,5899.296703512368
0.98,1.413002384353436,5889.308996714504
0.984,1.383570891977489,5894.564676684719
0.988,1.3676040116510948,5898.348100731128
0.992,1.3676902422038386,5897.980905894082
0.996,1.3837532660531848,5896.62852182251
1.0,1.4135963401544902,5896.861405171733
1.004,1.4532288986198203,5908.529857677248
1.008,1.4969645130881415,5898.740255721247
1.012,1.5376483416073028,5895.499701407203
1.016,1.567394230194471,5902.71989743678
1.02,1.5789325341522928,5902.978476860952
1.024,1.567302554368582,5897.009795973487
1.028,1.5313504043390278,5899.713288967871
1.032,1.4744547775864691,5904.667184720817
1.036,1.4041485250822354,5897.2353221217545
1.04,1.3306980218904625,5908.708537827818
1.044,1.2650285903630933,5897.934785482311
1.048,1.2165265509634686,5899.55621666272
1.052,1.1912174018292223,5906.435213606496
1.056,1.1906824158844607,5899.810098641441
1.06,1.2119020299283336,5893.270637379131
1.064,1.248047253442457,5904.142167912251
1.068,1.290080852479783,5912.576972176018
1.072,1.3288429532390194,5899.355216219231
1.076,1.357081628313796,5892.568051212634
1.08,1.3707687954351655,5896.87755259337
1.084,1.3692052228598146,5902.274894640852
1.088,1.353920600522169,5896.020803209737
1.092,1.326984228554978,5905.2592212135205
1.096,1.2896681078232104,5915.53664973371
1.1,1.2422111778659157,5898.801498937397
1.104,1.1848145654567943,5907.296933583153
1.108,1.119303857462628,5904.262249683
1.112,1.0505163608103536,5901.186644004214
1.116,0.9865765331264389,5905.750873109752
1.12,0.9376870548929295,5904.143282626435
1.124,0.9136828307177842,5905.488619195002
1.128,0.9211885519583731,5902.10776851744
1.132,0.9614989351922758,5901.899289161695
1.136,1.0299971455360426,5908.304808227464
1.14,1.1171869740042342,5900.838047442966
1.144,1.2107627513586225,5905.978780233056
1.148,1.2979388296865164,5905.229029934044
1.152,1.367436560158039,5906.159260201232
1.156,1.410865937100983,5901.671161612729
1.16,1.4236063844398352,5907.736854297007
1.164,1.4054915603801967,5900.090307670462
1.168,1.3613904593379285,5899.938652497415
1.172,1.301248500555571,5900.810541553273
1.176,1.2388835010743033,5897.8706772279465
1.18,1.1892841184743443,5907.591362007596
1.184,1.1650505975638985,5902.421465970933
1.188,1.173192664379037,5893.851083745479
1.192,1.2133586825039953,5893.982339395653
1.196,1.27796785396915,5906.813934821539
1.2,1.3541172161829444,5906.99746038885
1.204,1.4267567537350088,5905.927593230334
1.208,1.4824137721357218,5898.6907764325415
1.212,1.512597950979234,5898.300376982812
1.216,1.5159590264323968,5904.606071195619
1.22,1.4984500013727997,5902.472999428589
1.224,1.4712763463304717,5898.260032653298
1.228,1.4471753047934586,5904.994911268484
1.232,1.436247761939296,5899.972559890158
1.236,1.4428197994857541,5896.913467139616
1.24,1.4644683045723936,5893.392054256095
1.244,1.493479333748815,5901.625430766961
1.248,1.5199806110241587,5904.997594237926
1.252,1.535338161121935,5905.895726580214
1.256,1.5344946830447326,5901.422829143735
1.26,1.5166308273655709,5905.09242707102
1.264,1.4843520905487548,5893.621425410152
1.268,1.4421020731322085,5903.727126257454
1.272,1.3945596515095702,5913.388183601667
1.276,1.3455398750761793,5898.324191664301
1.28,1.2976117341919287,5899.636664691653
1.284,1.2523895684236124,5900.510086192533
1.288,1.2112318299572555,5903.737925161494
1.292,1.1759298507954978,5908.107444098692
1.296,1.1490195002007981,5903.638262549059
1.3,1.1335618904292641,5899.202517116845
1.304,1.1324012562604222,5896.9807774935325
1.308,1.1469917039560529,5901.026933881917
1.312,1.1760859185092123,5898.311107525632
1.316,1.2148686313343544,5898.988215133951
1.32,1.2551356859000085,5904.006938497722
1.324,1.2866962792921077,5911.492004386757
1.328,1.299613569554489,5899.500020107064
1.332,1.2865810147189998,5910.9021508066335
1.336,1.2447497446303861,5901.71494816661
1.34,1.176568094999331,5902.344116611619
1.344,1.0895415016438879,5903.071745016436
1.348,0.9951134808804025,5907.497402758621
1.352,0.906956036744393,5902.997367016764
1.356,0.8388689236161521,5905.905793874083
1.36,0.8024287176750273,5905.976893763594
1.364,0.804645025959288,5907.448974466764
1.368,0.8461074041533498,5905.620044474446
1.372,0.9202408982032462,5904.756051140281
1.376,1.014149311901354,5902.589748597977
1.38,1.1110842315072882,5903.296726489749
1.384,1.1939865264697107,5897.970262083064
1.388,1.2490870061988975,5911.404746751815
1.392,1.268506503665248,5912.254018915919
1.396,1.25121260709016,5902.210025787774
1.4,1.2023195062998095,5903.325078032717
1.404,1.1312580225296798,5896.4839606838
1.408,1.0496078566329399,5897.670928485935
1.412,0.9692447750873996,5905.913955458669
1.416,0.9009684298583213,5902.247477987883
1.42,0.8533489067284773,5899.085973297828
1.424,0.8315778910059337,5899.470938014145
1.428,0.836533175812997,5905.3556372927615
1.432,0.8645444152462892,5904.648126138175
1.436,0.9081643742055624,5909.420290612255
1.44,0.9577905167350146,5909.6033204839205
1.444,1.0036408333814009,5914.363085143033
1.448,1.0375661174205064,5905.03664436094
1.452,1.0543986970051973,5903.456865131797
1.456,1.0527593587100166,5907.760309541452
1.46,1.0352777720262387,5907.937925876009
1.464,1.0080732119887632,5904.3747986806175
1.468,0.9793360394498213,5900.747298922362
1.472,0.9571154301361919,5910.219955115137
1.476,0.9468693849249972,5900.409968676152
1.48,0.949672762691544,5908.542179895595
1.484,0.961892858211846,5906.125374261759
1.488,0.9765691928644141,5900.269685029645
1.492,0.9859762352558407,5906.632363353207
1.496,0.9843291918327273,5906.675363130592
1.5,0.9695700903634975,5902.9236161349045
1.504,0.9436366902835734,5908.614471283378
1.508,0.9113105394236677,5905.439245965986
1.512,0.8783019116044951,5909.118681731132
1.516,0.8494348967690941,5906.1802528899225
1.52,0.8276087599529346,5908.731885731818
1.524,0.8137323589299299,5893.711280289741
1.528,0.8073300251798358,5911.34069428176
1.532,0.8073102958838915,5903.357301355928
1.536,0.8125144177805675,5902.089053585774
1.54,0.821906172180448,5900.450108467829
1.544,0.8344646030658082,5899.673036003839
1.548,0.8489569143992632,5899.981206984066
1.552,0.8637762760179358,5899.498912163863
1.556,0.8769418594872452,5906.891221052696
1.56,0.8862505416624455,5900.656940881997
1.564,0.889522586688813,5904.9448840584055
1.568,0.8849406682296982,5912.9475924211
1.572,0.8715558061285092,5901.675379387817
1.576,0.849931334304722,5903.937990403779
1.58,0.8226201405344722,5902.160200439037
1.584,0.7940340965275565,5900.581671257471
1.588,0.7695075361838253,5905.914537835196
1.592,0.753837560450322,5902.607628203582
1.596,0.749948169178947,5903.980360784204
1.6,0.7583149912306385,5901.716541238402
1.604,0.7774035844518845,5902.841332563674
1.608,0.8048470690389063,5901.279019456499
1.612,0.8386941312352011,5908.349151549007
1.616,0.8779907221631665,5907.760357855528
1.62,0.9223009524831823,5904.984162418453
1.624,0.9703946922590017,5900.670470237531
1.628,1.0188716330718932,5906.729247396481
1.632,1.0616113432617094,5919.225285873243
1.636,1.090558721453838,5905.978554426919
1.64,1.0976909234733236,5902.810344763016
1.644,1.0774350634591572,5910.283592486994
1.648,1.0285988674877622,5905.344189623818
1.652,0.9550700419941192,5906.289485772416
1.656,0.8649861625869341,5910.287939311859
1.66,0.7686142676724707,5906.369768464642
1.664,0.6756669347319312,5903.361833915077
1.668,0.5930425530356849,5904.861946565918
1.672,0.523849323827278,5903.274788345695
1.676,0.4680416867102051,5902.649774863471
1.68,0.42425355936685033,5907.846300521693
1.684,0.39181319362619965,5907.251510280999
1.688,0.37184741152692985,5914.252820918713
1.692,0.3669250719821521,5906.1781617007655
1.696,0.3795223571413698,5907.390072276312
1.7,0.41020367555379855,5906.4061468369855
1.704,0.4564616063359388,5910.625503210548
1.708,0.5126786779466236,5907.157454331481
1.712,0.5710515022637122,5907.785061874074
1.716,0.6230020924762839,5904.682787697667
1.72,0.6606931893786228,5906.686914519923
1.724,0.6784781922798641,5913.899642392139
1.728,0.6741566759615587,5907.682317927942
1.732,0.6497560278766364,5908.67390111693
1.736,0.6114362180866972,5919.354605665332
1.74,0.5682721137282178,5908.966929329064
1.744,0.5301469981690518,5901.630750546915
1.748,0.5054762378396643,5906.8151790946185
1.752,0.4995314273736245,5899.7176526689045
1.756,0.5136872232609051,5904.493268824446
1.76,0.5454106091403106,5914.875275212912
1.764,0.5886937700097072,5909.842422652479
1.768,0.6348617473462927,5910.0555528064415
1.772,0.6739250224133628,5908.180096274463
1.776,0.6966071838361817,5908.772970096768
1.78,0.6967927442749635,5904.523409475757
1.784,0.6736541529881102,5901.577140793303
1.788,0.6325309666415888,5910.238143797215
1.792,0.5839411070975659,5908.937826686282
1.796,0.5407742340953118,5913.983542284598
1.8,0.5144585359491756,5909.014249795284
1.804,0.5113818941260355,5913.854586516231
1.808,0.5308383655299304,5915.662028635277
1.812,0.5652429794469008,5907.622609589579
1.816,0.6025570941854865,5900.801192995267
1.82,0.6301147616321864,5903.601200381173
1.824,0.6385647824341698,5909.967781659139
1.828,0.6245986967157385,5907.991872934062
1.832,0.591610765676929,5910.344363915272
1.836,0.548273826958977,5903.616981005416
1.84,0.5057487109170612,5903.230853828554
1.844,0.4744949629422453,5910.011546077066
1.848,0.4615272969684195,5904.858014016674
1.852,0.46877972275895413,5905.400506716398
1.856,0.49300153462868135,5914.518395638601
