时间(s),电压(V),幅值(高频80K)
0.0,1.0667711168222984,5899.811920300234
0.004,1.0270556926190242,5906.874765634561
0.008,0.9941797630123493,5893.549957243908
0.012,0.9726247043712869,5901.969717246445
0.016,0.9630064508390362,5895.41503243838
0.02,0.9620524977546091,5892.501347080735
0.024,0.9638954128726246,5902.973745007765
0.028,0.9621119147380696,5908.457973597296
0.032,0.9516991308087918,5911.389846146453
0.036,0.9303780767625736,5902.829552162672
0.04,0.8990934416455412,5900.626185521565
0.044,0.8618643453248952,5893.409280737189
0.048,0.8250190710538826,5901.947101609954
0.052,0.7957142151746006,5899.253965428353
0.056,0.7799511583107749,5895.124314950092
0.06,0.7808271203481688,5897.296262526401
0.064,0.797814222329683,5900.683967623231
0.068,0.8272657961903137,5892.114463688564
0.072,0.8636639247600042,5898.282476376172
0.076,0.9009517109415255,5902.517757713044
0.08,0.9336616745696629,5897.876283385622
0.084,0.9579256404796734,5897.763017944873
0.088,0.9723455691036517,5901.192161869574
0.092,0.9783141974023516,5901.313947511033
0.096,0.9793683139815131,5905.436266677295
0.1,0.9797370297223208,5895.886567393127
0.104,0.9828202618050846,5894.773447630801
0.108,0.9902986401183378,5901.785630258045
0.112,1.0020434632335937,5896.197928779187
0.116,1.0165195905891073,5897.855425594314
0.12,1.0312895774377888,5904.5742651561
0.124,1.0434275553145664,5897.767542895175
0.128,1.0498521907049425,5893.565456731907
0.132,1.0476598581068781,5893.901840789255
0.136,1.0345735028648575,5902.90506119236
0.14,1.0096728036183227,5909.062550719876
0.144,0.9744555168674112,5894.965064722915
0.148,0.933856484787839,5895.884180300847
0.152,0.8964208724806857,5900.13997157117
0.156,0.8729365302162915,5904.062573191421
0.16,0.8735848502632519,5896.240695409552
0.164,0.9045331459070554,5899.606829369124
0.168,0.9652603232893445,5901.400609840984
0.172,1.0476608045850684,5897.358908120043
0.176,1.1373603835729211,5902.637721187037
0.18,1.2169513160822936,5895.298667535386
0.184,1.2702064133989939,5912.492228995891
0.188,1.2860084289999598,5905.084408813692
0.192,1.2608850121324375,5897.355455226269
0.196,1.1995356457883506,5898.087247283913
0.2,1.1133122673552496,5902.707856061678
0.204,1.017154467534638,5895.236479409774
0.208,0.9259329957938445,5892.8872822907615
0.212,0.8513305504856796,5897.409878288305
0.216,0.800112595315348,5894.9450086976885
0.22,0.7740370999707269,5901.877363841802
0.224,0.7710513053372423,5904.132449939188
0.228,0.7870731302096149,5902.147602707883
0.232,0.8176166947747066,5899.748459109031
0.236,0.8587317552561664,5897.9958698672535
0.24,0.9070707985181763,5890.561817866564
0.244,0.959264219690676,5905.604110720647
0.248,1.0110874146397386,5890.169436590948
0.252,1.0570554857974235,5902.5280779181885
0.256,1.0909554451504249,5897.492875496482
0.26,1.1073583425611264,5911.215622241084
0.264,1.1035356007522943,5894.221138912656
0.268,1.080832552894976,5896.987116251894
0.272,1.0447001878908653,5895.766343936581
0.276,1.0031810952936966,5900.419332916222
0.28,0.9643668754927976,5899.897035897233
0.284,0.9338363533518634,5902.2447237424585
0.288,0.9131100046462046,5901.569759728072
0.292,0.8997083922021941,5891.358974909325
0.296,0.8887235238645628,5893.243701009741
0.3,0.8752305812892094,5892.784421596335
0.304,0.8565892209687487,5896.371507277113
0.308,0.8337565270312216,5898.499458810398
0.312,0.8111385360314387,5901.410038980697
0.316,0.7951457940384633,5903.470713006886
0.32,0.7921901304567909,5913.969109551577
0.324,0.8069744799663736,5909.964918482809
0.328,0.8415255130364446,5907.058370878598
0.332,0.894902790124431,5892.8505981361495
0.336,0.9633135365767911,5892.663958777942
0.34,1.040504178849015,5903.577386975115
0.344,1.118503552754971,5901.891676448805
0.348,1.188792432456162,5902.901672607901
0.352,1.2437728809337782,5902.739107190177
0.356,1.2782208968964501,5897.010870185425
0.36,1.2903655476168405,5908.461010275098
0.364,1.2822960435852944,5898.238581724231
0.368,1.2594895559232546,5895.51016083671
0.372,1.2294334386262922,5900.502869540836
0.376,1.1996338090220904,5904.038180376079
0.38,1.175615971548664,5905.881919655743
0.384,1.159578245694305,5900.493945566767
0.388,1.150088282805508,5891.007844152828
0.392,1.1428329633522525,5896.928787136743
0.396,1.1322003455564815,5894.872602111505
0.4,1.1133654740175274,5909.434948908115
0.404,1.0843753050913658,5908.593505031117
0.408,1.047478723149049,5902.22797577299
0.412,1.008944816807423,5896.99365531709
0.416,0.9771407940083726,5900.307553541838
0.42,0.9595166641946388,5901.4396321316335
0.424,0.9597852092000395,5898.488626383492
0.428,0.9765317957814293,5899.813347127989
0.432,1.0037845541528336,5903.122473237395
0.436,1.0331823939008424,5899.785883692517
0.44,1.0567766424125855,5904.5265940610825
0.444,1.0693917652672815,5907.604753694525
0.448,1.0697801157620022,5905.515832828521
0.452,1.0603382020028715,5905.31907231493
0.456,1.0456858937512905,5906.945700122072
0.46,1.0307691912738108,5893.295272509785
0.464,1.0192353298186598,5897.054328903564
0.468,1.0126341819670157,5895.157802203907
0.472,1.0106054708206487,5898.009934751664
0.476,1.0117766281119493,5906.387078728958
0.48,1.0148148968745743,5900.653279886366
0.484,1.0190976244623848,5892.217421593814
0.488,1.024749884922238,5902.267600829484
0.492,1.0321375561561992,5901.081999516365
0.496,1.0411340131260758,5899.603419786407
0.5,1.0505632414852546,5904.871192273064
0.504,1.058132553709202,5903.456280547126
0.508,1.0609231189161998,5903.036393124735
0.512,1.0562637180657466,5892.422123918058
0.516,1.04269567619795,5903.778194084673
0.52,1.0206912931232506,5893.239133642958
0.524,0.9927831788299223,5897.606177661959
0.528,0.9629387375041685,5903.796173887721
0.532,0.9354074484882824,5902.988963314367
0.536,0.9135696104338422,5890.964017171577
0.54,0.8992274840712114,5897.060910535414
0.544,0.8924363038329346,5896.478970467114
0.548,0.8917105344130752,5906.193371179509
0.552,0.8943888678839683,5887.740026219597
0.556,0.8970357043745721,5904.792273502177
0.56,0.8959206587254045,5892.83147932549
0.5640000000000001,0.8877411262731218,5901.466557159599
0.5680000000000001,0.8706495027229897,5896.016792086866
0.5720000000000001,0.8452829807791563,5899.064288620592
0.5760000000000001,0.8152026278317653,5900.420840916987
0.58,0.7862908640296453,5899.104984276505
0.584,0.7651498345888869,5900.111215601404
0.588,0.7570268738924613,5896.7317834254245
0.592,0.7640439504294125,5897.328214556717
0.596,0.7844464993154353,5904.83853319177
0.6,0.8132020892460541,5898.856809414884
0.604,0.8437277984379217,5895.958896284849
0.608,0.8700654106531698,5897.182877017594
0.612,0.8886441918211095,5901.804182572949
0.616,0.8989810745575635,5911.298074504398
0.62,0.9032139500911165,5900.905990787787
0.624,0.9049077606068162,5900.220441508082
0.628,0.9077668415526683,5905.41199051545
0.632,0.9147338497255452,5894.412212427554
0.636,0.9276717497774074,5895.942768354933
0.64,0.9475320968298382,5893.625669785087
0.644,0.9746776665879909,5904.802959048218
0.648,1.0089844116488693,5900.427096180891
0.652,1.0495645082577036,5900.064061068995
0.656,1.094278098645029,5908.340106339067
0.66,1.139375569098434,5895.73139510113
0.664,1.179532655167986,5902.709839041278
0.668,1.2083650047311743,5903.782509658461
0.672,1.2194212960801913,5898.883531580001
0.676,1.207606845243447,5903.21702021117
0.68,1.1708260994008222,5893.137640736863
0.684,1.1113812335483284,5901.493411749085
0.6880000000000001,1.0365191861124563,5891.524845286247
0.6920000000000001,0.9576239594522383,5889.663180601626
0.6960000000000001,0.8879531876705888,5899.737304373126
0.7000000000000001,0.8394461453333694,5896.906223047979
0.704,0.8196653286222717,5902.581171607576
0.708,0.8299642898852769,5896.100190891311
0.712,0.8654370566948724,5903.554707463709
0.716,0.9164868863417994,5899.479962729993
0.72,0.9713894260631337,5904.030465148264
0.724,1.0191218081955098,5894.885844616886
0.728,1.0518101893705494,5896.023730119402
0.732,1.0662664906049963,5902.092985924313
0.736,1.064253054689455,5895.372178294279
0.74,1.0513882049373098,5900.612996657445
0.744,1.034981026493186,5893.724999906574
0.748,1.0214665507448515,5899.213367306487
0.752,1.0143301525749961,5894.461432765594
0.756,1.01329720887427,5899.517191272685
0.76,1.015083067764432,5893.517087973301
0.764,1.015319774863242,5904.228607697965
0.768,1.0107550117640351,5894.5463578632925
0.772,1.0007725646890873,5909.057932809644
0.776,0.9877074708247375,5902.385684686578
0.78,0.9759933711331324,5898.577066483175
0.784,0.9705795711115149,5901.122681791717
0.788,0.9752499814104458,5903.331065991482
0.792,0.9914751421383684,5894.117327827683
0.796,1.0181325176022886,5901.724350112402
0.8,1.051942549821515,5895.922292710007
0.804,1.0881956870361837,5894.201105205324
0.808,1.1214919142854207,5901.121882402043
0.812,1.1465085731109161,5896.242830961581
0.8160000000000001,1.1589075202119523,5905.426917450908
0.8200000000000001,1.1563357700243337,5894.469972248292
0.8240000000000001,1.139240603670875,5894.004855878902
0.8280000000000001,1.111111703789624,5912.743060713938
0.8320000000000001,1.0778830031353244,5901.055061958559
0.836,1.046533797121653,5905.6172383624025
0.84,1.0232750228914542,5900.806929896248
0.844,1.011923653608734,5904.178760746607
0.848,1.0130295663467848,5904.238712118691
0.852,1.0240436011122054,5902.53480460001
0.856,1.0404640819622033,5904.432457145431
0.86,1.05756821822884,5902.1826400180325
0.864,1.0720623055217984,5901.012074823578
0.868,1.0829598168705254,5903.575787923592
0.872,1.0913748436055852,5898.268769206998
0.876,1.0994882633089238,5896.969892298936
0.88,1.1093050502726205,5897.05792953787
0.884,1.1217842551543762,5905.59220225154
0.888,1.1365990866362246,5894.042788927792
0.892,1.1524220849529832,5908.066475464771
0.896,1.167413589725155,5908.8657398365785
0.9,1.1795529944551095,5895.790261378269
0.904,1.1865838867063003,5905.631277725624
0.908,1.1856617763833486,5895.3857290082415
0.912,1.1731708190723145,5894.503592691966
0.916,1.1452736061409852,5902.194875621272
0.92,1.0993433601851856,5898.341899253414
0.924,1.0357541975812874,5900.008275858283
0.928,0.9591308362647292,5904.733844336692
0.932,0.8783459989404085,5894.990659459451
0.936,0.8050852487299616,5891.080386474209
0.94,0.7513541966987272,5905.389011544481
0.944,0.7266847991890937,5897.96783767028
0.948,0.7358682964569312,5896.548517163842
0.952,0.7777908171363375,5892.155167155781
0.956,0.8455744366266241,5901.208504263364
0.96,0.9279321236954006,5898.246779213433
0.964,1.011442293419977,5895.607331703217
0.968,1.0832818734031469,5895.109288712518
0.972,1.1338136767209133,5897.404158181263
0.976,1.1583511185012885,5909.836768968191
0.98,1.1575764526649914,5901.618514364934
0.984,1.1365589266844809,5898.976816421666
0.988,1.1028637428148975,5892.235535453528
0.992,1.0645018175558802,5893.354462830782
0.996,1.0283603897750013,5892.060530794964
1.0,0.9994098397062912,5900.24831307087
1.004,0.9805832113468664,5898.185959432536
1.008,0.9729832360943776,5892.171540766553
1.012,0.976095433165264,5899.936255836956
1.016,0.9879024358115605,5900.7478987896
1.02,1.0050593137183206,5898.299616431833
1.024,1.0233913110232766,5889.7879084791775
1.028,1.0387360114588955,5903.501690289657
1.032,1.0477504596333924,5901.574018891925
1.036,1.0482025266336126,5905.363764382441
1.04,1.0386481063721922,5899.727165578756
1.044,1.0179272202814784,5899.97311526049
1.048,0.9851173205883009,5899.683815277031
1.052,0.9402818470199017,5897.635557049867
1.056,0.8857443013382967,5902.669404032219
1.06,0.8270981221580083,5896.734529775383
1.064,0.7730915027574093,5904.924546999199
1.068,0.7340120264297686,5902.142092918182
1.072,0.7189724064022871,5896.785147172544
1.076,0.7330850059511478,5893.871073913535
1.08,0.7755962496612196,5899.528939237381
1.084,0.8396751219171043,5894.785089623362
1.088,0.9139341952538041,5904.997587837112
1.092,0.9851227723322088,5893.014592774932
1.096,1.0410150519677839,5899.725879141216
1.1,1.0725765182713083,5901.008042604865
1.104,1.0750132423432308,5904.411280026313
1.108,1.0478831424686308,5894.887585728416
1.112,0.9946892197854286,5897.167321921462
1.116,0.9222926426867667,5900.700541521389
1.12,0.8402630381970271,5903.401377491959
1.124,0.7600357130522506,5906.6371917198885
1.128,0.6936333669468241,5896.011002341297
1.132,0.6518837202818522,5899.832387118121
1.136,0.6423862768880282,5902.194057955455
1.14,0.6677013711131112,5901.062424615733
1.144,0.7243340738638905,5894.226486769362
1.148,0.8030532963243288,5905.662105747824
1.152,0.8907146374845373,5901.026931080611
1.156,0.9731080631049147,5894.270938553324
1.16,1.037937037318894,5899.099000369082
1.164,1.0771385289856297,5905.953081597873
1.168,1.0881118288550256,5899.480497335238
1.172,1.0737328313595202,5920.132990479716
1.176,1.0412674605984098,5899.833971941798
1.18,1.0005219601550202,5903.630784541921
1.184,0.9617311341752808,5898.2286359294685
1.188,0.9336806982027278,5892.737537492025
1.192,0.9223669155161545,5904.332847733149
1.196,0.930255666967297,5897.673817577371
1.2,0.9560815442094563,5896.417768746856
1.204,0.9951624900628157,5895.807998276077
1.208,1.0402999483922026,5894.106299526589
1.212,1.0833223718904834,5894.033553523375
1.216,1.1170894954520088,5904.17594714025
1.22,1.137383979197587,5906.004291161282
1.224,1.1438955770228056,5900.097067547181
1.228,1.1397846616217164,5904.22966607618
1.232,1.130022110360534,5895.501633311045
1.236,1.1192964750248484,5897.488852741501
1.24,1.110323520500765,5903.639946269588
1.244,1.10301953701634,5905.05142370175
1.248,1.0946290443818227,5895.116761266309
1.252,1.080732063569979,5891.564851749575
1.256,1.0569542829715435,5906.614857766733
1.26,1.020974341126323,5902.8742577126695
1.264,0.9741439149214389,5896.923463050106
1.268,0.9219645936778621,5902.354806789756
1.272,0.8729478730937396,5900.662311806392
1.276,0.8360063352374644,5901.341019761929
1.28,0.817292675068133,5896.132661163976
1.284,0.81786581523992,5892.959464448966
1.288,0.8332908974902655,5902.69713582734
1.292,0.8553702628044181,5891.805672912944
1.296,0.8752432760905364,5900.9355265987015
1.3,0.8865892024215588,5898.202850068418
1.304,0.887713069038773,5902.245703670341
1.308,0.8817450653429709,5902.546882964672
1.312,0.8748890987704985,5905.672055204741
1.316,0.873456321204679,5903.425768773591
1.32,0.8810179378433807,5903.815689236316
1.324,0.8970109624926469,5896.841471752346
1.328,0.9173900678687947,5899.320460199224
1.332,0.9368426917328521,5893.426568156887
1.336,0.9513408348548246,5908.676127528009
1.34,0.9597659260494923,5903.961427924049
1.344,0.9639286824223079,5901.273525933773
1.348,0.9671653701791723,5898.177459165705
1.352,0.9723751683184623,5898.633324703817
1.356,0.9805031749499769,5904.927466110938
1.36,0.990056870160281,5900.978042850747
1.364,0.9976405414477758,5897.9777807015225
1.368,0.9991125762556988,5899.273684163869
1.372,0.990926448768724,5902.486746851373
1.376,0.9713325753842119,5903.076881444496
1.38,0.9411994044198327,5890.202084189429
1.384,0.9042409456830085,5896.185823418693
1.388,0.8665339472538965,5900.396766651768
1.392,0.8354201694551029,5906.882755498562
1.396,0.8180829747059932,5901.643814607231
1.4,0.8201169973736923,5892.877402198817
1.404,0.8443223021108407,5907.5564993159605
1.408,0.8898834436331808,5907.294094396779
1.412,0.952088022111967,5903.470796213774
1.416,1.0227813294258237,5897.196318201716
1.42,1.0917258870686004,5900.348539307163
1.424,1.1487507037438258,5899.1306864893895
1.428,1.1861094109182198,5904.933541858353
1.432,1.200224563202767,5901.5600781974
1.436,1.192235955386015,5896.684000867334
1.44,1.1672854293733081,5901.985492167898
1.444,1.1328712812911341,5895.306955911611
1.448,1.0967719334239687,5897.763154701519
1.452,1.065104402493379,5905.341388178646
1.456,1.0410701154017086,5901.713511082294
1.46,1.0247347496289023,5895.636158879966
1.464,1.0138244308381095,5892.721227578517
1.468,1.0051644112992584,5893.380187656407
1.472,0.9961596302197889,5889.756952760158
1.476,0.9857210926050018,5905.124221350977
1.48,0.974344823861998,5898.022251855527
1.484,0.9635224230062299,5901.601112953509
1.488,0.9549846590873552,5896.160696451451
1.492,0.9502206594725242,5902.384830444044
1.496,0.9503831640186671,5901.267392182785
1.5,0.9564051202992414,5899.195258765205
1.504,0.9690876544825632,5897.396579483521
1.508,0.9890045971313869,5897.802731263911
1.512,1.0161911779276214,5900.835478014489
1.516,1.0497143470118717,5903.109375008679
1.52,1.0873431596696839,5907.773146884392
1.524,1.1255602114088348,5903.133699835852
1.528,1.1600034393463856,5899.353810465309
1.532,1.1862025904470543,5896.000393890547
1.536,1.2003807749425655,5900.653710564806
1.54,1.2001705817032473,5900.136743013494
1.544,1.1851799696110736,5896.199672742514
1.548,1.1573073881138987,5905.415432218289
1.552,1.1206187380883375,5898.932556921636
1.556,1.080628119985295,5895.6494633258735
1.56,1.0430437511863762,5889.755581084441
1.564,1.0123249261352836,5904.088100294953
1.568,0.9905151133319887,5892.395169422135
1.572,0.9766977075746855,5886.5818367046495
1.576,0.967224904742659,5899.579691716798
1.58,0.9567248832774776,5902.424209046153
1.584,0.9397392588910852,5898.446751822939
1.588,0.9126131256956422,5893.24678831106
1.592,0.8750442514022908,5897.646371648337
1.596,0.8307077308175497,5902.908770165699
1.6,0.7867104554796118,5897.386049148168
1.604,0.7520686786468296,5902.13692478615
1.608,0.7356039865497164,5906.342114625152
1.612,0.7436334013072674,5896.994482189749
1.616,0.7778851121830833,5899.162268427128
1.62,0.8342522344066708,5901.498603168428
1.624,0.9030004494450586,5903.186492022862
1.628,0.9706706929170085,5900.872277981273
1.632,1.0233149928587795,5897.9581122437385
1.636,1.050156050924935,5885.60249800238
1.64,1.0465092805985277,5903.354854679128
1.644,1.0150157576011964,5891.606777243792
1.648,0.9648530695518497,5893.1841765557865
1.652,0.9092896922678791,5892.0377789721415
1.656,0.8623739657014126,5892.849130918179
1.66,0.8356095529145724,5894.618837166452
1.664,0.8353446389158682,5894.730070696674
1.668,0.8614483180824766,5907.348470275434
1.672,0.9075946001095113,5904.534020557165
1.676,0.9630620894491808,5900.203571434968
1.68,1.0155394365268162,5902.071970786879
1.684,1.0541595028714947,5904.493945584197
1.688,1.0719218459175954,5890.537708916461
1.692,1.0668665212321642,5904.148856661481
1.696,1.0418008957256715,5889.4984881836535
1.7,1.0028485779996457,5896.7939409623705
1.704,0.9574111678852254,5896.073252859613
1.708,0.9122604932267652,5898.250482593738
1.712,0.8723682427332926,5899.437922303991
1.716,0.8407121583838579,5904.052575914556
1.72,0.8188231437601623,5899.137574266021
1.724,0.807535060187618,5895.926024278799
1.728,0.8074381430927171,5892.894015278045
1.732,0.8188283363049279,5901.724238766263
1.736,0.8412396706383551,5903.7135628796295
1.74,0.8727900323350746,5902.273078727102
1.744,0.9096361267585505,5895.8449706788415
1.748,0.9459076937003253,5901.287330517498
1.752,0.9744358642212678,5900.433534736511
1.756,0.988277977848791,5898.197163086761
1.76,0.9826412132113689,5900.185591789343
1.764,0.9565676961166025,5903.373707509884
1.768,0.9137326281570433,5894.524873892856
1.772,0.8619312198261754,5908.738444941854
1.776,0.8112897480430301,5896.93030530614
1.78,0.7717573134367836,5905.458399885399
1.784,0.7507168821148508,5902.907808282744
1.788,0.7514550111636008,5896.719100405475
1.792,0.7728463744107392,5906.919384017681
1.796,0.8101309609139681,5900.6139740742665
1.8,0.8563208843210595,5899.352534032843
1.804,0.9037652373442822,5903.509527606386
1.808,0.9456350883695587,5901.784674572658
1.812,0.9772329061647038,5903.937887442539
1.816,0.9969342635773016,5899.437541071853
1.82,1.0064347358764023,5900.0139736857445
1.824,1.010042536805732,5895.387065613267
1.828,1.0130719493087896,5903.1163631864665
1.832,1.0198332180429897,5907.406442424676
1.836,1.0320336142666897,5900.1202763141055
1.84,1.0483019410064445,5898.078019961615
1.844,1.0649654664034487,5898.130256943837
1.848,1.0775315681496116,5889.4496137164415
1.852,1.0820756300710612,5891.141065853542
