时间(s),电压(V),幅值(高频80K)
0.0,1.015142996124646,5898.913898746574
0.004,1.1792769019505054,5898.991706788799
0.008,1.3138471831296243,5899.32354267466
0.012,1.3968716895341686,5902.022718455422
0.016,1.4183507959235664,5892.706957866609
0.02,1.3817387711003672,5900.387924595919
0.024,1.3020499924480031,5907.1092285398345
0.028,1.2015038593335747,5902.707930935883
0.032,1.1041091641782639,5897.387072342795
0.036,1.030557521382901,5898.891532732628
0.04,0.9944730634916371,5906.125409928163
0.044,1.000629477276897,5898.063761707444
0.048,1.045230318001013,5903.191536655263
0.052,1.1178674773891268,5894.532563679795
0.056,1.204512774769405,5904.593349201552
0.06,1.2908437289059185,5903.184101746168
0.064,1.3651642671845978,5888.710664046925
0.068,1.4201796731361813,5901.803917068411
0.072,1.453226360341421,5893.694635486502
0.076,1.4652853492266014,5897.284377695918
0.08,1.459688579682436,5894.468978483891
0.084,1.4412759443600256,5900.708287674985
0.088,1.415970869997053,5902.920695963335
0.092,1.390079662392555,5905.295976912853
0.096,1.3688119865933344,5891.361325283825
0.1,1.3544874433310312,5899.344822584563
0.104,1.345676085374383,5900.9260323066965
0.108,1.3381962614784497,5898.733745518266
0.112,1.3276270062221118,5905.479030984998
0.116,1.311926446218515,5902.929770126433
0.12,1.2927758719531395,5899.509960209161
0.124,1.2751796234162158,5901.587220536791
0.128,1.2657741548612866,5889.177278334522
0.132,1.270676050191539,5898.591670119358
0.136,1.2935937979668375,5892.070492184635
0.14,1.3346537051464282,5893.837306630341
0.144,1.3901245911990472,5900.67125915964
0.148,1.4530010211056181,5893.946043497729
0.152,1.5142580688017748,5906.971224682726
0.156,1.564547137027616,5902.019497239769
0.16,1.5960658037747943,5888.495343246947
0.164,1.6041942195686307,5897.567260906199
0.168,1.5883524494722983,5897.638976490544
0.172,1.5516744351374163,5900.061084047888
0.176,1.499614211702917,5889.473709294749
0.18,1.4381991856744774,5907.562890343395
0.184,1.3728331752640628,5896.521646757848
0.188,1.3081242788243765,5905.406041304215
0.192,1.2485007844679998,5899.746321567516
0.196,1.198912991910925,5898.171180119246
0.2,1.1649075170531937,5898.261455763527
0.204,1.1516826814953953,5899.0299824465765
0.208,1.162271529612419,5899.813356515036
0.212,1.195616253254565,5895.480282891575
0.216,1.245621518015539,5896.526383111428
0.22,1.3019409864497058,5904.92937729632
0.224,1.3524091468376034,5894.843604877848
0.228,1.386275958262367,5905.547846948926
0.232,1.3971526043029363,5900.313312028263
0.236,1.3847607590996658,5907.929834960663
0.24,1.354954975901092,5898.247681736984
0.244,1.317959785455567,5900.274822399159
0.248,1.2852790274589079,5895.916230122395
0.252,1.2661613156132625,5896.620579036021
0.256,1.264706497957873,5893.852196892804
0.26,1.2785704530991857,5902.223286115089
0.264,1.299688702483762,5903.406098657598
0.268,1.3166559198337924,5910.645051947086
0.272,1.317863350369478,5900.462590739357
0.276,1.2945379491006739,5898.460107360904
0.28,1.2431858217202914,5896.140080597753
0.284,1.1671317162201313,5905.699763635483
0.288,1.0767549268075347,5902.091381434636
0.292,0.9879968466181427,5902.729339987317
0.296,0.9191143880299318,5901.703893411269
0.3,0.8863671778800295,5898.244260286629
0.304,0.8998683360203353,5904.093432239964
0.308,0.9608720385041268,5899.620193436389
0.312,1.0613442242886628,5901.794941821153
0.316,1.1859514706854737,5904.256710850566
0.32,1.3158641233766042,5903.514239559224
0.324,1.433265393260222,5905.071978409224
0.328,1.5252961982503586,5890.39907196572
0.332,1.5863361282847068,5901.713671261369
0.336,1.6180174838916246,5896.224803588733
0.34,1.6271018573538052,5902.690268159548
0.344,1.6220702701785799,5899.330195106867
0.348,1.6097066446836994,5898.695053217468
0.352,1.5929017200966478,5896.500734332747
0.356,1.570376360440491,5903.254453320898
0.36,1.5382750892961052,5899.320976988221
0.364,1.4929298045644694,5899.994546167579
0.368,1.4336925817642272,5905.398826425584
0.372,1.3646570393692712,5896.40596509211
0.376,1.2944480412541628,5907.641152659143
0.38,1.2340593107578952,5891.802374352353
0.384,1.193629986618362,5902.07629417406
0.388,1.1795247438702865,5894.910199350064
0.392,1.1927788109271462,5900.185346777114
0.396,1.2291392058381831,5895.731101898374
0.4,1.2802406844222178,5896.122950727121
0.404,1.3353371185455065,5899.80856959111
0.408,1.383287093702141,5909.553547970214
0.412,1.4146494634544293,5900.8320126005365
0.416,1.4235558650423137,5904.807975209729
0.42,1.4088073078700332,5901.652858302356
0.424,1.3737774575389863,5896.558057122432
0.428,1.3251602339829682,5894.687117311572
0.432,1.2710691044753,5897.951105330707
0.436,1.2192398850649466,5896.259518241435
0.44,1.1759497139964974,5901.5551737537
0.444,1.1457401127813098,5900.456245410363
0.448,1.131473304613197,5891.076804692422
0.452,1.1341581090820734,5901.094622983192
0.456,1.1524642360210964,5898.21377104248
0.46,1.1824276125995186,5892.388907575769
0.464,1.2179253283997142,5897.88615630798
0.468,1.2519683713059166,5902.143867615984
0.472,1.2782568697300911,5902.965882111242
0.476,1.2923410216105011,5905.315225333511
0.48,1.2921327094517103,5900.595923669475
0.484,1.2779510472187003,5898.133750639893
0.488,1.252401852873176,5901.203072671961
0.492,1.2201992571941134,5895.926137778091
0.496,1.1877748296594035,5896.727494595776
0.5,1.1624458123999024,5901.86196340532
0.504,1.1511059393547196,5898.888110449562
0.508,1.1586832627236745,5899.788230886666
0.512,1.1867880590384863,5900.708857762135
0.516,1.2330111630723786,5891.684131952483
0.52,1.2912061809044766,5901.907012044755
0.524,1.352769709478387,5900.31022253983
0.528,1.4085418235088953,5896.577021947178
0.532,1.4506981779091372,5901.633127875191
0.536,1.474054186800616,5893.276212149712
0.54,1.4765707691785914,5898.944119016137
0.544,1.4592755700406432,5903.477058422111
0.548,1.4259112199255202,5893.397811312054
0.552,1.382409297293041,5898.205736778628
0.556,1.3361396265822538,5896.965780563147
0.56,1.294943159453818,5899.089286706916
0.5640000000000001,1.2660365221925631,5896.640163364505
0.5680000000000001,1.2548704268812672,5911.979624444384
0.5720000000000001,1.2640382060456157,5890.633723617894
0.5760000000000001,1.2924476276387231,5906.995916099145
0.58,1.3350910110919605,5894.021291525235
0.584,1.3837002281880613,5903.0051949796725
0.588,1.428304862843292,5898.774251762701
0.592,1.4593681790549393,5894.903555329585
0.596,1.469953993620374,5896.331186662567
0.6,1.457353672808738,5894.621878794543
0.604,1.423732842104264,5903.749302597514
0.608,1.3755928207913952,5897.449777346048
0.612,1.322143122105821,5896.485315785021
0.616,1.2729758129688378,5903.650608450446
0.62,1.2356539778991351,5906.756999371592
0.624,1.2139326907515822,5899.3514572254935
0.628,1.2072283679280422,5900.279951023123
0.632,1.2115406110809164,5899.148667812163
0.636,1.221409520874939,5904.151586227716
0.64,1.2320331324167528,5895.042352105269
0.644,1.2407247949632456,5900.931807283508
0.648,1.2473804399493897,5899.929736520118
0.652,1.2540982020983473,5897.817802069911
0.656,1.264244308983526,5898.868299101067
0.66,1.2811905046948169,5897.826878311328
0.664,1.306895401697281,5902.88174484232
0.668,1.340581165074218,5906.419906047847
0.672,1.3779444945395398,5903.199168863597
0.676,1.4114572472345175,5904.992151431143
0.68,1.4320832967192565,5899.418113062199
0.684,1.432085852077703,5892.510560746272
0.6880000000000001,1.4078664579643225,5902.72120100027
0.6920000000000001,1.3615324718698452,5900.984758628521
0.6960000000000001,1.300429120215885,5903.432442220514
0.7000000000000001,1.2349024831975501,5898.785623688547
0.704,1.1753867338187802,5902.614394442429
0.708,1.1299942697793923,5908.9526169889605
0.712,1.103210669192395,5894.581911883725
0.716,1.0956363263152256,5893.850610188504
0.72,1.1044491644348344,5900.131441440691
0.724,1.1243652154645525,5902.118627252373
0.728,1.1490125903473438,5906.319456219276
0.732,1.1725896459333882,5902.8187436079415
0.736,1.191494270701219,5892.6506528764885
0.74,1.205437792315747,5910.084257106525
0.744,1.2175330138090257,5899.45541102596
0.748,1.2330969145484472,5899.666841499656
0.752,1.2574264817367755,5896.607271061123
0.756,1.2933365024246377,5904.139703461508
0.76,1.3394508230143602,5902.553122223302
0.764,1.3899575199256122,5893.880680621506
0.768,1.4359229164438008,5900.686007146788
0.772,1.467651529653704,5908.504501654049
0.776,1.4772477551097087,5903.3628642924095
0.78,1.4605590675105389,5905.368247831626
0.784,1.4180144087491615,5905.168049350315
0.788,1.354347631488941,5904.553099949776
0.792,1.277554274871559,5902.554930847717
0.796,1.1975007073046287,5897.265550690908
0.8,1.1244404204253529,5896.867296761378
0.804,1.0675164590822743,5904.122318789021
0.808,1.033330925708165,5902.122491139757
0.812,1.0248060565625754,5899.574186561651
0.8160000000000001,1.0406595477275007,5896.4770419633
0.8200000000000001,1.0757499415000924,5891.099006240357
0.8240000000000001,1.1223112581874595,5905.857660099312
0.8280000000000001,1.1717658733239158,5900.125901124647
0.8320000000000001,1.2165489813501702,5907.931725122646
0.836,1.2513736648791867,5897.102911681057
0.84,1.2736479994513856,5901.743842014583
0.844,1.2831704157253903,5900.322821710864
0.848,1.2815115377279716,5900.698785509831
0.852,1.2714412519685108,5905.0894181443655
0.856,1.2564531736483495,5889.397595398501
0.86,1.240221565512039,5902.445388112965
0.864,1.2259502105105835,5895.796096664298
0.868,1.2158519132239514,5895.768680636762
0.872,1.21103122817296,5910.416334081854
0.876,1.2117592059988969,5907.027879580935
0.88,1.2178528111213294,5905.007384887159
0.884,1.2288593817659537,5902.424333268244
0.888,1.2439205529455803,5905.658608527154
0.892,1.261385321683555,5901.133713525459
0.896,1.2784246114811209,5899.507972934664
0.9,1.291024879593866,5902.344606971458
0.904,1.294648336326269,5903.322304665903
0.908,1.2855015487799506,5901.896500649986
0.912,1.2619787308811123,5886.519891119227
0.916,1.2256852952818238,5913.619391501433
0.92,1.1815415872406256,5909.843758352843
0.924,1.1367723870480198,5893.139994661175
0.928,1.0990675393889031,5903.8530656362655
0.932,1.0746583700944676,5907.306593235679
0.936,1.067113608894005,5908.573071933741
0.94,1.0771530574719212,5896.944948732131
0.944,1.1031137360745382,5904.939407193124
0.948,1.141501868270004,5895.137766312043
0.952,1.187433367094938,5903.629647283792
0.956,1.2351970322921926,5902.685262797398
0.96,1.2791607388269548,5892.949992930143
0.964,1.3148211336098306,5891.6767764633605
0.968,1.3394681402331197,5889.620757090634
0.972,1.3520805875500195,5901.497332937439
0.976,1.3525773058446187,5907.652257176644
0.98,1.340990350976763,5895.562729371897
0.984,1.3171669310617247,5894.852648488432
0.988,1.2812528939391368,5901.707117743276
0.992,1.234747724200248,5897.421191433656
0.996,1.181576879586941,5903.497534026442
1.0,1.128471043601451,5903.688669179055
1.004,1.084109456370074,5904.7678731248525
1.008,1.0570782906013345,5893.113432805415
1.012,1.0534017938367404,5897.255671944465
1.016,1.074668981102431,5898.785980826649
1.02,1.1174330386993754,5895.768698883348
1.024,1.1739566817962512,5897.532064213711
1.028,1.233917476569976,5905.858718935666
1.032,1.2865101185975611,5899.282324086253
1.036,1.3224653799552601,5903.233316822674
1.04,1.3357315468089448,5903.735860534247
1.044,1.3246840909878403,5904.945416479651
1.048,1.2926195053762037,5897.114682551008
1.052,1.2472147273901635,5892.558157389653
1.056,1.1988937873305476,5897.454949662892
1.06,1.158490036996684,5897.859935281003
1.064,1.1348489457253002,5893.924705422677
1.068,1.1329813362910537,5892.920533705408
1.072,1.1532050097934508,5901.773633497388
1.076,1.191485911980068,5904.3956428002375
1.08,1.2408560541938336,5902.681756396952
1.084,1.2933658720498695,5905.511804917834
1.088,1.3417681282793195,5897.278869036821
1.092,1.3803279825271766,5907.0442684273
1.096,1.404757800326081,5896.059867872292
1.1,1.411805369494613,5894.028928011856
1.104,1.3990863087935854,5896.7324087236775
1.108,1.3654455624848583,5897.343182862839
1.112,1.3117699353703183,5893.092896529653
1.116,1.2418870253054488,5902.84756507046
1.12,1.1630280544129499,5898.469956455458
1.124,1.08540020019698,5899.874375894584
1.128,1.020702740704721,5901.818724062145
1.132,0.9798050319045747,5897.189447212038
1.136,0.9701692007612133,5896.565862174786
1.14,0.9938478709631235,5906.260927666944
1.144,1.0468802231339607,5895.068156763963
1.148,1.1204833898807565,5911.437896836997
1.152,1.2035857784725783,5889.522668823364
1.156,1.2854497593243297,5901.169629605822
1.16,1.3571408114878731,5903.325643934595
1.164,1.411565934915998,5903.328562735986
1.168,1.4429092687857388,5907.876995899189
1.172,1.4466218101660846,5899.294766099866
1.176,1.4205261818766153,5898.521221859999
1.18,1.3665986832690264,5895.642807524146
1.184,1.2922669583739121,5902.825420560199
1.188,1.2100688930334127,5892.131870536071
1.192,1.1352622438616664,5899.968466551172
1.196,1.0820093140916314,5904.36518453836
1.2,1.0594961031207624,5900.292343238255
1.204,1.069436536010531,5897.330489602424
1.208,1.1058810221934499,5910.209082513356
1.212,1.1573334318467754,5901.234233289894
1.216,1.2102688989994281,5893.792683107135
1.22,1.2527022646854589,5904.372563555887
1.224,1.2766934968697645,5901.418116206603
1.228,1.2793399268644994,5899.235991196783
1.232,1.2624416824702678,5895.725996625052
1.236,1.2313359960455734,5895.514118091634
1.24,1.193363741459776,5906.572678365633
1.244,1.1562638668912477,5905.857558793421
1.248,1.1266934701343434,5899.503757455903
1.252,1.1090643102109343,5900.623417334645
1.256,1.1048831809357411,5901.282693187527
1.26,1.112729705858347,5899.775277087199
1.264,1.1288698115686926,5903.73142934727
1.268,1.1483070002938054,5899.684962959378
1.272,1.1659584971617112,5893.408923958591
1.276,1.1777053781406555,5896.976710736717
1.28,1.1811939245873337,5901.306464236063
1.284,1.1763257340491926,5900.143698889116
1.288,1.1653701422070972,5897.529257279914
1.292,1.1525999787538985,5905.215468752723
1.296,1.1433435724581413,5905.452357600687
1.3,1.1424880054042672,5910.899928928142
1.304,1.152779615275664,5910.65436495393
1.308,1.1735393295006253,5904.927730308396
1.312,1.200417534247924,5901.322606765029
1.316,1.2264872938335596,5906.126588005222
1.32,1.2443941928994442,5905.7494370666045
1.324,1.24871837821168,5907.820499566782
1.328,1.2375566085147365,5900.241257516823
1.332,1.2127433050508558,5901.667430978247
1.336,1.178803181174977,5901.488266394517
1.34,1.14125643839839,5908.231390293459
1.344,1.1050786920665119,5909.628240934238
1.348,1.073922048334892,5898.791148096824
1.352,1.0502449181969353,5899.865317794219
1.356,1.0360485113994284,5900.541468967362
1.36,1.0336915947422471,5896.926684056875
1.364,1.0462432296479913,5905.830157638596
1.368,1.0769871316314894,5905.878103268894
1.372,1.1280457787716325,5901.78302704694
1.376,1.198576460885098,5897.111681993117
1.38,1.283345731299499,5894.976235661989
1.384,1.3724833206673412,5902.629218274442
1.388,1.4528298238396224,5903.460884453572
1.392,1.5106755412116768,5905.961467241029
1.396,1.5350692346245531,5901.853026531994
1.4,1.5205309348434781,5900.427854080995
1.404,1.4681945976012298,5896.056679559638
1.408,1.385129401232337,5904.965789224432
1.412,1.2823958225169338,5893.165709539408
1.416,1.1727467138414476,5908.519401787802
1.42,1.0686743578919902,5900.520160309328
1.424,0.9810332145911423,5899.313552247435
1.428,0.918075988996887,5903.571243691597
1.432,0.8846272241190375,5895.870442382644
1.436,0.8813142580948331,5909.322705701613
1.44,0.9041085527040906,5902.683013143786
1.444,0.9446242100301614,5890.570294235483
1.448,0.9915019566704552,5902.905210403169
1.452,1.0328082884575247,5894.676311802149
1.456,1.058894260511156,5891.207880088097
1.46,1.0648324988310383,5903.179154072536
1.464,1.0515645068969384,5894.887458328807
1.468,1.0252852375773207,5891.860105580062
1.472,0.9952369807519604,5898.224533010422
1.476,0.9707119823765646,5896.521819667432
1.48,0.9583989530676876,5898.845078999083
1.484,0.9610541033688098,5906.591043528798
1.488,0.9778008351662879,5907.412231153705
1.492,1.0055006381405138,5897.950836321492
1.496,1.0401900184658899,5909.236755389303
1.5,1.0778308123043623,5894.791985886451
1.504,1.1142623219204664,5900.905392371373
1.508,1.1447868712458502,5902.30127753838
1.512,1.1640321559201525,5895.045771781035
1.516,1.1665820232186064,5902.749927504045
1.52,1.14843014233984,5910.228101796823
1.524,1.1088149710280473,5903.003999497127
1.528,1.0516805995686043,5909.820019229728
1.532,0.9859940517371943,5905.176263705732
1.536,0.9244756721697223,5901.141294667676
1.54,0.8808818703050936,5913.945950136468
1.544,0.8665403489611498,5900.5593012532845
1.548,0.8871121079497637,5906.913920380624
1.552,0.9405192610798997,5911.607195032303
1.556,1.0167429159295576,5906.2864133641215
1.56,1.099771124019226,5904.020484648623
1.564,1.1713359878652223,5905.5805519192845
1.568,1.2154202836011385,5909.708162536016
1.572,1.2222010554956757,5894.410567394767
1.576,1.1902869030111294,5903.857427503606
1.58,1.1266648929437173,5912.206621793051
1.584,1.0444917511423493,5906.31765204598
1.588,0.9594949591990752,5896.147949738664
1.592,0.8860481622280725,5907.546579482135
1.596,0.8339383201343313,5899.532738392384
1.6,0.8066085321875537,5907.880130441545
1.604,0.8012569066445946,5906.54805319141
1.608,0.8105832958574489,5909.276753262356
1.612,0.8254604935950182,5909.4788312975525
1.616,0.8376510469209792,5895.052455073146
1.62,0.8418414111804201,5900.78933407302
1.624,0.8365439748696127,5915.631243691903
1.628,0.8238110259463063,5901.359590078004
1.632,0.8081447893545806,5906.115046288788
1.636,0.7951731640924699,5899.612674627744
1.64,0.7904310571438214,5905.565552861355
1.644,0.7982503279877434,5906.402113070158
1.648,0.8207204657655593,5908.196682006782
1.652,0.8569094391122366,5907.9042228580265
1.656,0.9026981385239251,5915.719426810258
1.66,0.9514669361407779,5891.801989480398
1.664,0.9954994517992771,5906.742718085283
1.668,1.027589751745365,5903.567559844105
1.672,1.0423219198422806,5905.649720506623
1.676,1.0368785658678132,5894.1348272795
1.68,1.0115640937523833,5907.524035552611
1.684,0.9701012310525683,5907.751714865275
1.688,0.9194056246961857,5903.1234485895175
1.692,0.868493345176671,5891.558779081425
1.696,0.8265510284218865,5896.08832357548
1.7,0.8006605675378397,5906.691452890611
1.704,0.7939128749332848,5912.101587851816
1.708,0.8045889913265211,5912.789230896186
1.712,0.8267409407820822,5895.067426881571
1.716,0.8519818141003056,5899.583571426066
1.72,0.8718749451463707,5908.909801419325
1.724,0.8802055253673738,5907.6064756096
1.728,0.8745392096573267,5906.30639572959
1.732,0.8566586491243431,5908.135141636205
1.736,0.8317616779730058,5915.483827519114
1.74,0.8067598443501132,5907.10046496777
1.744,0.7883831668617051,5909.593920444686
1.748,0.7817242452641627,5905.863359577694
1.752,0.7893836694895937,5898.773482768109
1.756,0.81096993474358,5896.125934467204
1.76,0.84274840684884,5909.697222981491
1.764,0.8776260331544021,5903.861015901843
1.768,0.9059184244230883,5902.031112220699
1.772,0.91713874561826,5900.585512127264
1.776,0.9025310567740835,5904.198523858858
1.78,0.8576485699437751,5913.215605117287
1.784,0.7841733291142693,5896.987071965624
1.788,0.6903441723584806,5907.402490415159
1.792,0.5896903187053925,5898.574836895888
1.796,0.49821356909035747,5900.2518009368905
1.8,0.4306850857901983,5899.411887670916
1.804,0.397142774006756,5906.715874065251
1.808,0.4006840413466013,5899.366919980773
1.812,0.43713887783648453,5905.962224998755
1.816,0.4965129128238843,5899.3798440226665
1.82,0.5656289189024294,5907.921699165328
1.824,0.6312263158623369,5905.691493725126
1.828,0.6827560884253027,5903.437476059801
1.832,0.7142111120622908,5905.861454757253
1.836,0.7246024766192654,5904.109282053247
1.84,0.7170873299684608,5895.4999140011705
1.844,0.6971648196111997,5905.299778737623
1.848,0.6706541333957051,5907.629885206431
1.852,0.6422079464725623,5907.499429260888
1.856,0.6148224986701063,5910.179171490364
