时间(s),电压(V),幅值(高频80K)
0.0,0.8902643005540876,5898.371478477895
0.004,0.9973784973192129,5895.962499807452
0.008,1.0913432702577464,5903.28619229449
0.012,1.1630675061024718,5900.234929808245
0.016,1.2068138551968814,5898.377758646362
0.02,1.2208400364537442,5895.606152764276
0.024,1.2076323092470913,5909.08413357241
0.028,1.173695703502352,5900.0581990348055
0.032,1.128663094774377,5906.960282747896
0.036,1.083655676470591,5902.473564055342
0.04,1.049179761359456,5910.924190903514
0.044,1.032957871556262,5895.893639262082
0.048,1.0380382588527617,5896.263703779088
0.052,1.0616529545780542,5899.500754661095
0.056,1.0955118360476848,5897.000346738945
0.06,1.1280335104742834,5897.106782672375
0.064,1.1481772366412148,5898.885500755714
0.068,1.1494776738038013,5899.904161329799
0.072,1.1324519008537246,5897.902306023376
0.076,1.1042639015014521,5891.574053840061
0.08,1.0759793347840818,5896.75152567616
0.084,1.058873644711098,5905.140810983073
0.088,1.061319578754339,5900.787592283616
0.092,1.0869457829176068,5894.253189502952
0.096,1.1338878085570174,5903.7908746489
0.1,1.1947610978046364,5908.782028861309
0.104,1.2573989847300684,5890.7343500016095
0.108,1.306765705879141,5900.638073783058
0.112,1.328270863819849,5901.014150864429
0.116,1.3120250835737473,5901.406130534281
0.12,1.2568247132325805,5901.346252041233
0.124,1.1722963367838262,5901.385034536901
0.128,1.07791775901592,5897.630773703047
0.132,0.9985644151217795,5905.661693315469
0.136,0.957577086822812,5903.396942521052
0.14,0.9695874655750483,5898.607070429137
0.144,1.0357605572476296,5903.168626399605
0.148,1.143297290746288,5899.540388710382
0.152,1.2693177488360001,5895.440814873287
0.156,1.3875069697895128,5907.027407708984
0.16,1.4749991307695636,5898.329240407501
0.164,1.5172733409306607,5898.428283657067
0.168,1.5100521117076415,5887.385888129475
0.172,1.458546035446108,5899.218796984716
0.176,1.3751278884193818,5902.27219114469
0.18,1.2764415761922807,5900.703610595407
0.184,1.1804570505826129,5902.045030794153
0.188,1.103641370664357,5903.407861763812
0.192,1.0583976949540252,5893.326206629947
0.196,1.051017845090638,5901.147803279123
0.2,1.0804872622945842,5904.016461795894
0.204,1.138566718027017,5894.621652375497
0.208,1.2114484929453733,5899.858489152349
0.212,1.2827731439471053,5904.987556841081
0.216,1.3372015223683023,5904.637789330322
0.22,1.363582134074266,5897.223911269886
0.224,1.3570529871960582,5909.982882200722
0.228,1.3197252708332425,5899.640264324138
0.232,1.2597775907326658,5903.036090096908
0.236,1.1891404534260424,5902.67695087522
0.24,1.1204710535985622,5900.261199086719
0.244,1.0643342469317394,5894.060782841971
0.248,1.0272201739876499,5905.46045001833
0.252,1.0106411104080246,5903.910177829671
0.256,1.0113959395605543,5892.362479376829
0.26,1.023003021847672,5901.457096096049
0.264,1.0380165930797292,5892.808550632925
0.268,1.0505256496896664,5904.110461021589
0.272,1.057904575969781,5896.215793917905
0.276,1.0611187887611064,5906.799509940969
0.28,1.0635604355044799,5897.820171545309
0.284,1.069083882395341,5906.216775645098
0.288,1.080149484319987,5900.471090644684
0.292,1.0967013797003218,5898.455385524087
0.296,1.1159802580487497,5899.058473618213
0.3,1.1332554847143075,5888.012451727068
0.304,1.143372607039635,5903.550468095424
0.308,1.1427453329653257,5902.101661377216
0.312,1.1310254494719476,5904.776502112926
0.316,1.1116337487571992,5908.997904225915
0.32,1.0908502979907833,5902.264955792885
0.324,1.0758405631070804,5892.827049263497
0.328,1.0723591257456715,5893.6411194821085
0.332,1.0829023897010814,5903.557928584765
0.336,1.105941377191056,5883.627362135893
0.34,1.1365202204474842,5892.255504663166
0.344,1.167916373689916,5902.42206961393
0.348,1.1935452120465815,5900.893967006179
0.352,1.208325602584054,5894.736251517479
0.356,1.2092933502870118,5899.137254241349
0.36,1.1957577080034314,5896.735056747813
0.364,1.1692851848925203,5899.817472294273
0.368,1.1334833306410812,5904.372900230635
0.372,1.0934296432518733,5889.771457791388
0.376,1.0547700494630052,5897.678309014148
0.38,1.0227472711757362,5898.945800731647
0.384,1.0014631915273604,5891.711259140227
0.388,0.993511474438593,5902.484517766393
0.392,0.999896186874395,5902.693333985497
0.396,1.0200351372139438,5896.976539114179
0.4,1.0516953991159848,5894.038655979829
0.404,1.0909066896673612,5901.190049317922
0.408,1.132116478155256,5901.7099503934505
0.412,1.1688762169209632,5899.269828326132
0.416,1.195103102312799,5896.085241825228
0.42,1.2066018659749547,5893.619125058855
0.424,1.2022799238078297,5895.571835466085
0.428,1.1845017888128022,5906.807922872111
0.432,1.158338711339054,5907.581342988032
0.436,1.1299394570931685,5897.65720402465
0.44,1.1046493095066892,5909.714637767921
0.444,1.0856383625354364,5899.593849316862
0.448,1.0735513266080827,5898.942965175308
0.452,1.067161054002055,5891.059799382696
0.456,1.0645302861133012,5901.784925487086
0.46,1.0640349317202475,5905.496938415882
0.464,1.0648227190991777,5907.888785563651
0.468,1.066740427974234,5900.001385013834
0.472,1.0701401310821932,5905.856937351301
0.476,1.0759248029541955,5898.682923127074
0.48,1.0857468291772614,5895.910927644667
0.484,1.1018968952209058,5894.78189614047
0.488,1.1265564649792326,5905.519401212679
0.492,1.1606569256754853,5907.59422022031
0.496,1.203020879416626,5905.27543699143
0.5,1.2503014673070816,5900.742942268495
0.504,1.297672962755606,5904.760935474721
0.508,1.3398318427366713,5899.735090461027
0.512,1.3719220126388012,5893.187785153647
0.516,1.3902888707013605,5900.652891064991
0.52,1.393119891271534,5897.106026825302
0.524,1.38088159856548,5897.2461164387605
0.528,1.3562370668019774,5902.763683493208
0.532,1.3232135512966408,5897.740034476986
0.536,1.2858448741724717,5898.3711882882735
0.54,1.2469508835906131,5902.285729398599
0.544,1.20773422845426,5901.245392642164
0.548,1.1684169429441842,5897.819993311122
0.552,1.129493356722561,5898.276180869971
0.556,1.0927760744122395,5894.856945815765
0.56,1.0615581286062399,5898.168448425605
0.5640000000000001,1.0398233509672947,5898.419965762199
0.5680000000000001,1.0310456005891193,5896.502593267867
0.5720000000000001,1.0372526803570206,5900.927098062319
0.5760000000000001,1.0586626122162708,5899.921740844515
0.58,1.093731821382793,5897.239104091739
0.584,1.1392595788110509,5903.383590289439
0.588,1.190334667240549,5896.313365766446
0.592,1.2402533980948094,5900.335006803784
0.596,1.2808583957904378,5894.72507668428
0.6,1.3037570321781293,5901.048419422705
0.604,1.3024181513619537,5901.087705245815
0.608,1.2744589645012345,5903.327374905882
0.612,1.2230798359661559,5901.512094861519
0.616,1.1568990303236966,5897.982045313296
0.62,1.088103789433781,5901.54496875679
0.624,1.0294244811944597,5898.947672501205
0.628,0.9908386336094701,5902.087764078044
0.632,0.9771120731346739,5901.597468073916
0.636,0.9870845271995445,5900.606419544075
0.64,1.0148814272803477,5895.077964063209
0.644,1.052287838820948,5898.781646248446
0.648,1.0909987536443198,5898.793351110417
0.652,1.1238110405807562,5901.167873515464
0.656,1.1447822221872705,5899.63478157643
0.66,1.1491379573118439,5898.885413691423
0.664,1.1336819045840705,5897.957442913633
0.668,1.097782031671019,5903.936158490672
0.672,1.044289410431639,5896.836214240135
0.676,0.9795715415125451,5894.761401133122
0.68,0.9123602887800301,5908.978227260359
0.684,0.8518842106955934,5897.660198759012
0.6880000000000001,0.8061026894120932,5886.699799711972
0.6920000000000001,0.7805581093924471,5903.771837398934
0.6960000000000001,0.7778343726694952,5902.011104891918
0.7000000000000001,0.7973702411886502,5912.551305186925
0.704,0.8354851024857429,5902.928602730272
0.708,0.8856535132523035,5911.383914899645
0.712,0.9391360348602572,5901.845511551565
0.716,0.986093993755074,5893.613557772009
0.72,1.0173102644349379,5907.9228913081815
0.724,1.0264296736604095,5906.112750992692
0.728,1.012145734583368,5897.217937319101
0.732,0.9793449049534745,5899.187069397735
0.736,0.938360281828844,5904.766445094087
0.74,0.902249457512454,5895.42721011301
0.744,0.8829646263021877,5895.92689149649
0.748,0.88787100060214,5893.203238932353
0.752,0.9179440852852537,5903.773837979307
0.756,0.9681673706347053,5901.065174435903
0.76,1.029640266543483,5900.606135259672
0.764,1.0923438769427156,5913.353288044594
0.768,1.1476248742873496,5907.679759620997
0.772,1.1898764248010854,5897.6538386514685
0.776,1.2172022934618671,5907.657082932644
0.78,1.2310330759553676,5901.850780511531
0.784,1.2349001695306623,5897.729002431395
0.788,1.232844365020637,5891.832998674882
0.792,1.2280609960138213,5892.731405306511
0.796,1.2222746901983386,5897.072759367157
0.8,1.2160249984043128,5895.343697813551
0.804,1.2095943809566958,5896.4304532244405
0.808,1.2038998798649756,5906.11365847336
0.812,1.2006260493664125,5901.288275508885
0.8160000000000001,1.201379585028123,5903.623259654121
0.8200000000000001,1.2063902122865702,5897.4563157311695
0.8240000000000001,1.2136726145194292,5890.288177216819
0.8280000000000001,1.219325589529617,5896.361923484234
0.8320000000000001,1.2190219563659614,5901.4089957067135
0.836,1.2101067561592798,5900.400977506136
0.84,1.1933074690324077,5901.022526402817
0.844,1.1730752513991596,5901.436024892912
0.848,1.1561470630197186,5891.464700484298
0.852,1.1488058082664414,5899.901755587028
0.856,1.1539699283822722,5896.859086223933
0.86,1.1693131523806315,5898.595359392479
0.864,1.187203392863284,5904.27784178044
0.868,1.1966035339261887,5899.492150531222
0.872,1.1863529660425591,5898.622137183742
0.876,1.1486916927179285,5900.129802082151
0.88,1.0818279443034813,5903.0288528804185
0.884,0.99082492165651,5898.953807885737
0.888,0.8867189882307248,5899.989623687127
0.892,0.7842067165260704,5902.025499781379
0.896,0.6984715755354725,5898.383608102325
0.9,0.6419633379025326,5893.219120322533
0.904,0.6220693056649701,5899.887896699221
0.908,0.6402817714509936,5896.275985758569
0.912,0.6927764196403104,5893.198556069625
0.916,0.7718406228618757,5895.300702577562
0.92,0.8675744375792613,5890.067126195858
0.924,0.9694555293764364,5896.591461513522
0.928,1.0675190612153318,5906.540174209148
0.932,1.1531071443160323,5894.589876903233
0.936,1.2193280965622058,5898.534647363972
0.94,1.2613830234849472,5891.751875706291
0.944,1.2768075470010833,5894.100031570159
0.948,1.265584339349858,5905.864903849238
0.952,1.230066976305417,5894.99457988887
0.956,1.1747325869898042,5896.900415320618
0.96,1.105874145643508,5891.042015781942
0.964,1.0312621518268303,5904.6718745497465
0.968,0.9595671127294487,5898.112050772597
0.972,0.8992820883889637,5903.704572099825
0.976,0.8572218200070854,5899.216859483308
0.98,0.8371234377073881,5898.414258957798
0.984,0.8389821874818916,5906.59361169323
0.988,0.8594165424761205,5902.103271050749
0.992,0.8928886731751268,5909.246995252256
0.996,0.9333401641441779,5911.893309785812
1.0,0.975753893085119,5901.293663015972
1.004,1.0171924704450521,5896.174147278892
1.008,1.056995194248962,5904.509314927242
1.012,1.0960899844391676,5906.929766564825
1.016,1.1357126538506228,5894.122435814952
1.02,1.1760566731053186,5896.692127725677
1.024,1.2154077833453687,5901.420241697711
1.028,1.2501682948298827,5896.578292612032
1.032,1.2758451399363777,5891.569138455163
1.036,1.2885635800669386,5899.738131076339
1.04,1.286267676304356,5896.420246740214
1.044,1.2689416694122087,5904.141976023596
1.048,1.2378982645608874,5902.750729111977
1.052,1.1947989386266573,5903.732126529439
1.056,1.1411321398087249,5896.359890741696
1.06,1.0784969620563993,5907.6883317856
1.064,1.0095352488174405,5902.804049256411
1.068,0.9389226921461377,5890.905279541541
1.072,0.8736548867241366,5898.338524774509
1.076,0.8220918257544476,5897.473758113036
1.08,0.7918033035145134,5892.971747889197
1.084,0.7869632976926997,5908.581599022684
1.088,0.8065078189796999,5902.513202268306
1.092,0.8440776707425598,5904.256778934724
1.096,0.8898696110579514,5897.445947730693
1.1,0.9335390230133418,5901.361812319387
1.104,0.9669691082690732,5898.280416606345
1.108,0.9860853556578235,5903.189512110667
1.112,0.991406530723571,5907.080518664198
1.116,0.9873369512663891,5895.22746565905
1.12,0.9804380101617557,5901.159696383034
1.124,0.9772233989288798,5897.361248830966
1.128,0.9822493698739411,5905.351363934895
1.132,0.9971703090365563,5904.679489455744
1.136,1.0209960462067855,5898.680014998355
1.14,1.0512412265986342,5899.826696681324
1.144,1.0852747030855836,5890.017929039514
1.148,1.1211851760495062,5897.329914563527
1.152,1.15786264905424,5893.815277997652
1.156,1.1944279823569317,5889.756538951394
1.16,1.229349703444873,5899.026760087983
1.164,1.2596472172895392,5900.900098666963
1.168,1.2806474010906512,5906.641085836311
1.172,1.2867061342991453,5899.471382459542
1.176,1.272923438732592,5910.609117520349
1.18,1.2372919399290296,5899.905128758031
1.184,1.1823248986403172,5901.467293224597
1.188,1.1153493969634645,5894.170712469985
1.192,1.047283433925128,5894.282791658458
1.196,0.9903817280724556,5903.576434156505
1.2,0.955680415544382,5890.190007282755
1.204,0.9506978118397185,5892.8359825568905
1.208,0.9776920558266575,5903.081690025081
1.212,1.032707931001373,5896.366901462259
1.216,1.1057460275918964,5902.94747145589
1.22,1.1823701066258445,5898.098111769235
1.224,1.246706308310505,5901.128065726935
1.228,1.2852198019464312,5898.733588633012
1.232,1.2902103002902563,5909.347646239424
1.236,1.261857154412337,5900.649853290533
1.24,1.2079666608099537,5894.836069174886
1.244,1.1413450368786195,5900.654772254346
1.248,1.075674112265822,5901.438082059893
1.252,1.0213909202646032,5887.198143654372
1.256,0.9830617583120836,5898.550294896937
1.26,0.9591771235614671,5897.29063935395
1.264,0.9443465030401136,5904.120434048007
1.268,0.9327837351178829,5896.039346020545
1.272,0.9213176907758052,5894.645061779284
1.276,0.91050173383232,5897.3353150631
1.28,0.9035607082095155,5901.36522044511
1.284,0.9040556959593006,5894.878470033367
1.288,0.9135712766936797,5898.778599218886
1.292,0.9304285941476093,5902.72532406382
1.296,0.9498174538328121,5895.164187346026
1.3,0.9651676838696019,5903.902666827469
1.304,0.9701550300361407,5902.033085231615
1.308,0.9605389307207215,5904.512740958367
1.312,0.9352116464174494,5905.865840680774
1.316,0.8963527679978344,5894.320933867021
1.32,0.8490316781240247,5899.349973926813
1.324,0.8006009745144648,5895.024792616592
1.328,0.7598214798854602,5899.52501487003
1.332,0.7353250599384374,5892.147331040654
1.336,0.7332598435552719,5903.720753581
1.34,0.7547678294422189,5896.6833896881735
1.344,0.7946406511646604,5902.237661523209
1.348,0.8423153379710572,5892.216667441792
1.352,0.8852351353631932,5896.768730700117
1.356,0.9132826968898982,5899.479317523649
1.36,0.9224138381506892,5897.78604976918
1.364,0.9160314563022072,5906.066125298758
1.368,0.9036194591606693,5893.504403378991
1.372,0.8972131576568942,5898.997667565091
1.376,0.9070684917368667,5895.968343837485
1.38,0.9380922622060326,5894.816567318028
1.384,0.9881467608566913,5908.082815910435
1.388,1.048585094084877,5899.332996024039
1.392,1.1066734829986355,5894.894511304363
1.396,1.1490500026446546,5886.754243877652
1.4,1.1651559004048948,5897.769494256188
1.404,1.149768328021473,5895.570331305437
1.408,1.1042356381368337,5898.688073889316
1.412,1.0363891549576603,5905.279083400083
1.416,0.9591520523391341,5901.595938371809
1.42,0.8878239347036593,5899.407301548702
1.424,0.8363190500968183,5904.995463758719
1.428,0.8133141182761896,5900.643105789502
1.432,0.8197748499931724,5900.89909063881
1.436,0.8490431473661275,5896.119853747989
1.44,0.8895641045991726,5901.352098374961
1.444,0.9291285088839827,5895.648937905703
1.448,0.9589400571339385,5901.389144139892
1.452,0.9760389648328511,5896.303816479994
1.456,0.9833714460421988,5896.154183830005
1.46,0.9877677252239065,5903.661801062073
1.464,0.9968778947218766,5902.094339831756
1.468,1.0163276225718942,5896.001832968623
1.472,1.0479696299752082,5903.838505089754
1.476,1.0894908471923634,5896.712263396524
1.48,1.1351604426614057,5902.053843255681
1.484,1.1772891892512263,5904.75253187905
1.488,1.207975182850701,5897.242354906543
1.492,1.2208325970553413,5901.149980037436
1.496,1.2124765958848371,5903.881991874448
1.5,1.1834695403135684,5905.054467513935
1.504,1.138351702601105,5901.516051964025
1.508,1.0845458088936613,5902.63319110395
1.512,1.0304006384196815,5903.693604400628
1.516,0.9831179590841647,5900.851647127903
1.52,0.9473673752984554,5904.1410661318905
1.524,0.9249554147633843,5905.579577412796
1.528,0.9153628250780952,5898.845750983043
1.532,0.9167230172101464,5901.97214096424
1.536,0.9269052333699407,5910.314437240646
1.54,0.9444869396765178,5895.893474722576
1.544,0.9693643511617265,5901.907745327834
1.548,1.002690756872425,5906.265761822141
1.552,1.0459695227028647,5901.048377430803
1.556,1.0994954125463052,5902.852173988598
1.56,1.1607664581775683,5892.565349637096
1.564,1.2237045092062586,5902.575228134513
1.568,1.2792927832509742,5901.599848211187
1.572,1.3175916186610452,5893.73625618676
1.576,1.3303816872837952,5893.208043643861
1.58,1.3133726323782153,5897.903483849304
1.584,1.2672295380856695,5905.233716068585
1.588,1.1973700868076185,5895.830982758353
1.592,1.113049163796022,5904.38755340084
1.596,1.0262959306291075,5901.815192146105
1.6,0.9508245095035539,5898.30321544688
1.604,0.9005205116318257,5904.615643494981
1.608,0.887045032371118,5900.720606889477
1.612,0.9166770157348245,5900.086660636144
1.616,0.9873595880142376,5890.909454830016
1.62,1.0874049101966752,5902.436233112107
1.624,1.1970215788818683,5907.184846614001
1.628,1.2927799259666524,5902.132276612619
1.632,1.3538343990933568,5907.150454435348
1.636,1.3678998675063256,5898.365703136279
1.64,1.3350028759441543,5898.475091719875
1.644,1.2677102850822985,5902.082592702591
1.648,1.1875625435443367,5910.444762191533
1.652,1.1186768258414241,5899.803369981061
1.656,1.0806186279691803,5902.958171367451
1.66,1.0829778685100664,5906.701566213944
1.664,1.123275744621581,5900.3248067430095
1.668,1.1884367403195686,5901.34130397722
1.672,1.2589531208210156,5895.175264906196
1.676,1.3143337184621864,5900.386504551528
1.68,1.3382911765554408,5892.991469787843
1.684,1.3223407405843945,5903.089883379767
1.688,1.2671008923770908,5907.037736608795
1.692,1.1813293342713533,5895.984428158822
1.696,1.0792169347623644,5898.888993245205
1.7,0.9767036598158298,5901.453697187021
1.704,0.8877832934735791,5902.029674790577
1.708,0.821831077647416,5909.838968201107
1.712,0.7826425066373738,5900.482008059862
1.716,0.7691552795478858,5909.279136234883
1.72,0.777155676647677,5896.577151998802
1.724,0.8010444632228877,5898.0118989489465
1.728,0.8350341892184944,5897.27932414842
1.732,0.8736914980267338,5907.172672976799
1.736,0.91209712311564,5905.199619055988
1.74,0.9458974710412088,5898.261204606993
1.744,0.9713843582098352,5896.412727766617
1.748,0.9856853384675359,5893.372905523904
1.752,0.9871174133476474,5896.09640252115
1.756,0.9756415567834833,5903.02655578547
1.76,0.9531892474722743,5900.224061435237
1.764,0.9235132330083278,5907.6596549645565
1.768,0.8912769604617947,5898.739160199806
1.772,0.8604740038909883,5904.432161674538
1.776,0.8328443440209136,5907.471273147699
1.78,0.8072529194588188,5895.565825644066
1.784,0.7805834042194398,5900.858508418092
1.788,0.749758677893636,5910.823235411316
1.792,0.7137890776004627,5898.941542864133
1.796,0.6748265614669119,5904.946771452017
1.8,0.6378741433447686,5901.8049140057165
1.804,0.6094630029039882,5886.932826120603
1.808,0.5958658827812792,5898.029139360881
1.812,0.6013072446876457,5894.001093644362
1.816,0.6264911548840831,5893.592661509172
1.82,0.66783338681639,5900.963364123085
1.824,0.71790516825064,5900.726856488377
1.828,0.7673866981687892,5894.900374803088
1.832,0.8081323150662072,5895.851390895617
1.836,0.8361580476323333,5902.033167527935
1.84,0.8531598793978955,5898.997645822265
1.844,0.8658175862726629,5899.041541312999
1.848,0.8831702124454532,5907.786360841161
1.852,0.9131157365868341,5904.416756688775
1.856,0.9593207918287777,5908.847792258772
1.86,1.0195912275201946,5904.534069393342
