时间(s),电压(V),幅值(高频80K)
0.0,0.9393224067183994,5896.981426888992
0.004,1.0056647076952105,5903.3759349513175
0.008,1.061246574784875,5897.587238638927
0.012,1.0986135344662498,5904.385810116452
0.016,1.1144514464623947,5892.304939488689
0.02,1.1099104180530017,5892.94171714698
0.024,1.089959318592138,5898.93525794864
0.028,1.0622669770715045,5898.086369233862
0.032,1.0358361925198076,5901.640380588987
0.036,1.019452880895605,5891.777165848676
0.04,1.0201579096504145,5901.102144495202
0.044,1.0420828463886658,5893.859221625142
0.048,1.0857871715017728,5893.484860830996
0.052,1.1479558362254791,5905.421644328432
0.056,1.2214459635435617,5895.07005105569
0.06,1.2960695555001518,5896.438771007149
0.064,1.360506934396011,5898.657440685645
0.068,1.4051175917063898,5903.125853457974
0.072,1.4246745104307683,5904.032092312812
0.076,1.4198673618121458,5901.198982282737
0.08,1.3969283599820506,5899.13584959978
0.084,1.3655258355261186,5898.039688061384
0.088,1.3356984917981143,5900.874248859545
0.092,1.314895110889364,5909.176334579284
0.096,1.3061440453043465,5896.987012560239
0.1,1.3079731017914766,5898.21706585421
0.104,1.315930656396384,5899.792394058454
0.108,1.3247517230633035,5894.722076814453
0.112,1.3299727765470617,5900.171779366642
0.116,1.3283778696016586,5893.983270397504
0.12,1.3175688570247148,5903.602769033515
0.124,1.2954574062018591,5902.718363246612
0.128,1.2603117371556263,5905.385044074673
0.132,1.2114610428233312,5902.7903175775655
0.136,1.15031195446835,5896.4106238513
0.14,1.0811748110038493,5899.145023022809
0.144,1.0114571653666344,5898.423508845617
0.148,0.9509156431230716,5903.051048561044
0.152,0.9098701757555787,5904.56943070798
0.156,0.8966678503793851,5897.055607049114
0.16,0.9151417213146377,5894.298793041054
0.164,0.9630080065242625,5898.593723773376
0.168,1.031862717704802,5898.610056099563
0.172,1.1088484795736033,5898.111725091211
0.176,1.1795286324338563,5901.681479359147
0.18,1.231223201484135,5891.198811243069
0.184,1.2559833078140568,5907.899658402183
0.188,1.2524284663866867,5899.711696775761
0.192,1.225891456064938,5892.280821581522
0.196,1.186770764788327,5900.829857641063
0.2,1.1475723721634585,5907.5794436501
0.204,1.1195683305104893,5910.093543481925
0.208,1.110087326358192,5904.559092088064
0.212,1.1211600032292115,5907.076027615155
0.216,1.1497388812168774,5900.09624125032
0.22,1.1892209714817341,5888.541815909593
0.224,1.2316529632473463,5892.547251783071
0.228,1.2698241499795548,5901.3303772970285
0.232,1.2985192794438554,5903.407166268077
0.236,1.3146257255536895,5908.390175288777
0.24,1.3164417857239372,5906.72946057718
0.244,1.3029733542818853,5892.718521592447
0.248,1.2738928254474822,5902.110145039301
0.252,1.2302832853551842,5906.681276906905
0.256,1.175723894033087,5893.820658603905
0.26,1.1170144039272216,5900.587059620943
0.264,1.0639263550420894,5903.239182125831
0.268,1.0276973328018797,5904.416325775799
0.272,1.0184775597202766,5897.304739790523
0.276,1.042477357650265,5902.242558620756
0.28,1.0998658958934737,5901.209886233394
0.284,1.1842685862371511,5901.318478438053
0.288,1.2840783669271392,5900.58652852689
0.292,1.3851387342366865,5895.871159825996
0.296,1.4739816798077705,5910.89670207195
0.3,1.540689649380204,5901.66680304641
0.304,1.5805477288996832,5896.149427179329
0.308,1.5940769370998387,5898.710418627739
0.312,1.58572141102834,5897.722229276042
0.316,1.561976109871459,5901.280745719872
0.32,1.5297446391614034,5887.7733912546455
0.324,1.4952878019159377,5901.796061524091
0.328,1.4636126568113272,5894.926159830302
0.332,1.4379173878550964,5897.672954014383
0.336,1.418927157298354,5903.623363272579
0.34,1.404460045500222,5903.763095437899
0.344,1.3898564799929949,5904.418806410258
0.348,1.3695814742460704,5891.0190541275015
0.352,1.3395227207607108,5893.879782698557
0.356,1.2989065285435828,5901.190810007463
0.36,1.2508569826164146,5908.068389204066
0.364,1.201370097781331,5887.682204692247
0.368,1.1573289227931038,5902.080744276366
0.372,1.1245757307276145,5906.305612295135
0.376,1.106788050991301,5896.111401706858
0.38,1.1052743772752829,5897.990781990921
0.384,1.1193113449796157,5906.118910107532
0.388,1.146537554670706,5896.399209327836
0.392,1.1831039221606108,5903.49311726882
0.396,1.2236066320395778,5896.406145861434
0.4,1.261188239438712,5903.121086540727
0.404,1.2883161030142785,5897.940537914951
0.408,1.2983777356945918,5902.810414541012
0.412,1.2876029647422182,5903.430426375965
0.416,1.2564991118360502,5893.246055336013
0.42,1.2101708114724654,5912.032891552666
0.424,1.1573197872045975,5899.012315710948
0.428,1.1081429529026463,5902.582315616798
0.432,1.0717191862370172,5904.004575279812
0.436,1.0536971126373578,5899.026745778436
0.44,1.055015342902775,5909.942603672855
0.444,1.0719907266571174,5896.384405513026
0.448,1.0975985615863615,5900.772366117899
0.452,1.1234299489525912,5905.588445033625
0.456,1.141766197605295,5900.943440204795
0.46,1.1473326976622693,5905.74810053553
0.464,1.1384530812379632,5902.303439610462
0.468,1.117481451130513,5902.331788847763
0.472,1.0904786255522576,5902.918487437849
0.476,1.066109079462871,5896.193217120774
0.48,1.0538202069424154,5898.1316341745
0.484,1.0615920447005818,5892.28579764872
0.488,1.0937673017946985,5904.083660584393
0.492,1.1495588874735228,5899.913415921038
0.496,1.2227615262698959,5900.214633197801
0.5,1.3029269938131522,5900.127895502226
0.504,1.377797405053495,5889.23638936881
0.508,1.4362935707687265,5899.10030535309
0.512,1.4711040458594804,5905.785126323056
0.516,1.4801019026194975,5903.244329096972
0.52,1.4663141322620672,5893.797489910761
0.524,1.4366366429082456,5901.734936306558
0.528,1.399748699714503,5897.455848988824
0.532,1.3638322955319548,5899.801425034113
0.536,1.3347574754194802,5896.181657122901
0.54,1.3151784394710164,5894.480984026418
0.544,1.3045122033593735,5906.710292542217
0.548,1.2994295844930013,5906.506030306116
0.552,1.2946081075836742,5910.613291181554
0.556,1.2838583236911674,5908.044253450921
0.56,1.2617865850908936,5906.2420450982745
0.5640000000000001,1.2257209672554472,5892.074305311219
0.5680000000000001,1.1771405359268452,5897.735544301425
0.5720000000000001,1.1218478862081496,5907.173958105408
0.5760000000000001,1.0686647349530973,5900.165894226824
0.58,1.0271151538864258,5902.206484330968
0.584,1.0049889105164331,5900.364022561861
0.588,1.006650290299505,5897.944074712616
0.592,1.0324859196336733,5904.467549650525
0.596,1.0792864013777241,5900.303019278274
0.6,1.1410969857547397,5899.518759675847
0.604,1.2102458106381484,5896.516869070687
0.608,1.2784821520579384,5888.63291882864
0.612,1.3381253892454916,5901.344792814002
0.616,1.3829820509635409,5899.149317804368
0.62,1.4088242586758657,5905.557972690906
0.624,1.413453345698613,5905.168517751944
0.628,1.396589302060666,5898.505044231035
0.632,1.359870276903476,5895.2831459194695
0.636,1.3070753773775536,5902.672297260888
0.64,1.2443654208286536,5906.052957025451
0.644,1.1800790043866312,5903.835065584052
0.648,1.1236685667168445,5902.570778551698
0.652,1.0837520205068536,5902.295822398645
0.656,1.0657681111593127,5898.76035890954
0.66,1.0700861932218386,5896.273401347271
0.664,1.0914598866050997,5899.408670147795
0.668,1.120333469928268,5903.518098322145
0.672,1.145777098093136,5901.5354045236
0.676,1.159075302950581,5906.591716840293
0.68,1.1566518169180235,5898.688508087572
0.684,1.1412892234146677,5897.319402388355
0.6880000000000001,1.1213032913033945,5909.017120307834
0.6920000000000001,1.1080207419972192,5904.825904135899
0.6960000000000001,1.1123112440257301,5900.294124368824
0.7000000000000001,1.1411165315209237,5902.490125277392
0.704,1.1950180836160151,5901.540381210264
0.708,1.267730647308416,5896.6399322383
0.712,1.3477883965942263,5904.451094116895
0.716,1.4218026680083622,5900.304364294898
0.72,1.4780837194417618,5895.477343748686
0.724,1.5094612093655262,5896.193129952952
0.728,1.5145975520735537,5894.011506479179
0.732,1.4976265313296278,5905.255441643145
0.736,1.4664304001530224,5911.432927743306
0.74,1.430201778894869,5901.076917074748
0.744,1.3970365029337488,5908.654715121946
0.748,1.3722231416793653,5895.354824784491
0.752,1.3576773270115516,5903.805423615047
0.756,1.3525394796661714,5899.047906669567
0.76,1.3544033787931455,5897.849595863795
0.764,1.3603564773633245,5898.680428707099
0.768,1.3672931264313533,5907.570040406472
0.772,1.3716375438753552,5896.674080163672
0.776,1.3691396880960953,5897.153711271914
0.78,1.3553616399267854,5895.889579955986
0.784,1.326942587216073,5893.310695082613
0.788,1.2831631154625565,5903.209218208289
0.792,1.2270622388817756,5901.63789445268
0.796,1.1654663309055295,5891.08377351956
0.8,1.1077261161995706,5898.438752948835
0.804,1.063563329010426,5895.456438684967
0.808,1.0408486812481026,5897.160524520299
0.812,1.0440673150823798,5904.629260342975
0.8160000000000001,1.0737523689499215,5895.506611660141
0.8200000000000001,1.126667829003489,5898.2742018082845
0.8240000000000001,1.1963528282335887,5896.637600618101
0.8280000000000001,1.2738667416522764,5900.626817310756
0.8320000000000001,1.3489126324892977,5904.22890640592
0.836,1.4115405928095357,5889.553597255048
0.84,1.4542243955594165,5896.263390204851
0.844,1.4736251794615256,5899.346555148825
0.848,1.4712558146964394,5893.671136242661
0.852,1.4526629809632712,5904.361703728973
0.856,1.4254172212718117,5899.893516352771
0.86,1.3967360679548497,5900.321528605128
0.864,1.371641644707493,5902.603531658266
0.868,1.352190374041738,5911.259342101377
0.872,1.3378096412825171,5897.31424352481
0.876,1.3263813000496385,5910.565206049857
0.88,1.3154899243104108,5895.140754727315
0.884,1.3032769473090045,5898.015251968761
0.888,1.288672231440211,5900.092539250916
0.892,1.2712076050162802,5903.743163717872
0.896,1.250813632051744,5896.10312941741
0.9,1.2278823793974716,5899.302399279177
0.904,1.2036060078906803,5900.373874395681
0.908,1.1803522914279303,5898.224350488516
0.912,1.1617733455968422,5899.207885686056
0.916,1.1524793869315664,5889.78946690451
0.92,1.1572529281065915,5901.65900773664
0.924,1.179854512210172,5903.485774033043
0.928,1.2216461814923822,5891.820180113224
0.932,1.2805285442447625,5896.697205763231
0.936,1.3507394583275745,5899.439000460591
0.94,1.423759787729179,5896.954377216443
0.944,1.4901442192664682,5898.181932444724
0.948,1.541748413020187,5913.620352152088
0.952,1.5736081760775824,5898.014452152588
0.956,1.5847644438204171,5901.246289409034
0.96,1.5777401786275373,5895.794294521246
0.964,1.5570127513037317,5900.776862586925
0.968,1.5272834790589185,5891.203853132202
0.972,1.4922897341859753,5895.121469845591
0.976,1.4544241831978386,5890.675152949622
0.98,1.4149639950989048,5901.294055769816
0.984,1.3745730294481922,5893.789232168575
0.988,1.333837342025202,5892.616255280295
0.992,1.2936991005425715,5894.973586432196
0.996,1.255681708762697,5903.50506263116
1.0,1.2218550862952031,5890.508221272913
1.004,1.1946665086072983,5899.468552857798
1.008,1.1768852234859395,5909.350419125813
1.012,1.1716965106947443,5903.07261479795
1.016,1.1825657239900524,5895.574752236982
1.02,1.212406524475363,5900.975398057983
1.024,1.2620365110055656,5896.359995277885
1.028,1.3285060534452124,5900.4129906358185
1.032,1.4042091850057068,5907.736286019713
1.036,1.477564306562487,5905.475761936125
1.04,1.535468940059674,5894.644101424498
1.044,1.5668644190710475,5899.587176126213
1.048,1.5660617225292894,5901.910537978126
1.052,1.534459532658972,5900.701044010758
1.056,1.4799989667409392,5901.477653188458
1.06,1.4146983745466843,5897.276819529812
1.064,1.3512950963882278,5908.53985812523
1.068,1.3001256945980888,5899.007454718067
1.072,1.2670627913012953,5906.427490201682
1.076,1.2528711818575264,5892.636754826709
1.08,1.2539107147069553,5906.274705482052
1.084,1.2637673208133613,5893.020845869472
1.088,1.2752008935646468,5899.042320120951
1.092,1.2818484549833642,5903.091993809173
1.096,1.2794147124852868,5902.927289131157
1.1,1.266379103568064,5906.155640352704
1.104,1.244241621792649,5901.81274119391
1.108,1.2171063866704517,5889.880330933403
1.112,1.190436769193335,5907.028753860344
1.116,1.1692861127021827,5893.557833499411
1.12,1.1567445164466437,5900.408753723127
1.124,1.153241196667975,5895.530912316598
1.128,1.156828486647713,5901.642186421184
1.132,1.1641553309097805,5899.780472409736
1.136,1.1717293218138132,5902.89602110116
1.14,1.1770960068537901,5907.984432580657
1.144,1.1796053073386714,5890.859112839204
1.148,1.180541819994201,5906.100061211854
1.152,1.1825864083077788,5895.839876858125
1.156,1.188778163031097,5900.314406889583
1.16,1.2013051969866035,5898.192785195732
1.164,1.2205381166000386,5895.418187912352
1.168,1.2446809283703786,5903.707459189589
1.172,1.27022345831581,5909.370334420204
1.176,1.2930819358353525,5903.557238337184
1.18,1.3100079641509903,5905.337895218965
1.184,1.3196603914394889,5894.1318216009295
1.188,1.3228291927208182,5902.875364922731
1.192,1.3217322172124513,5895.345878173998
1.196,1.3188276510140473,5899.055964831927
1.2,1.3157831089816663,5903.428603682881
1.204,1.3129994882017963,5906.081801503246
1.208,1.3097076846477693,5902.8175135825895
1.212,1.304426092313044,5890.536860019162
1.216,1.2954955492416447,5890.915021940761
1.22,1.2814777319730315,5905.330286353228
1.224,1.2614216635646072,5895.737520424655
1.228,1.2351527888421403,5902.091326759856
1.232,1.203604954573535,5896.929470590563
1.236,1.1690087516855887,5897.792865092683
1.24,1.1347876551490135,5894.227825217804
1.244,1.1052007009611156,5898.497772383887
1.248,1.0848253083649757,5900.205517014791
1.252,1.0778942674950736,5902.30283959052
1.256,1.0874765625324263,5897.012868911702
1.26,1.1145713562560025,5907.957550736661
1.264,1.1572918849568719,5898.709368034678
1.268,1.210431125259417,5888.805420608792
1.272,1.2657624455260779,5897.985177251927
1.276,1.3132558618096943,5897.254135340911
1.28,1.34300314344757,5894.1401938649
1.284,1.3473705547938384,5895.992047468407
1.288,1.3228993379128147,5907.614898200945
1.292,1.2715470336443573,5893.855560497239
1.296,1.200880495651179,5887.324014522529
1.3,1.1229563786328618,5899.829170024944
1.304,1.0519562566786658,5897.081985424173
1.308,1.0010288810639392,5898.710868468685
1.312,0.9790702510617976,5901.875094799647
1.316,0.9883167522253009,5902.2680717177045
1.32,1.0235879156063623,5908.137452597546
1.324,1.0736476049274537,5905.1645614621
1.328,1.124424745744349,5897.69384667557
1.332,1.163041838661042,5908.923093834774
1.336,1.181228015747793,5898.093148300189
1.34,1.1770015455959484,5900.086546610001
1.344,1.1542946171284194,5901.003168274773
1.348,1.1210085692314071,5907.375755736704
1.352,1.0864333897025966,5898.783367830228
1.356,1.0588846028950933,5897.720331007165
1.36,1.0440220331151704,5896.7153106615215
1.364,1.04403600341749,5902.56048642965
1.368,1.0578019350621661,5902.113204397248
1.372,1.081910033337929,5905.15734196161
1.376,1.1121216505538307,5902.432188999476
1.38,1.1446727828843464,5904.794526802478
1.384,1.1771123380499453,5906.28028225722
1.388,1.2086782856657439,5894.246115428478
1.392,1.2402147026692456,5898.627132666133
1.396,1.2734488184238575,5907.390612193932
1.4,1.3095433643666612,5900.347283982377
1.404,1.3473590800473847,5905.239306401366
1.408,1.3823235950285164,5910.833338025592
1.412,1.4066770659979293,5896.178693035409
1.416,1.4112306948546982,5905.514338319696
1.42,1.3881048562815632,5908.079246175035
1.424,1.3335289883643422,5889.517919027236
1.428,1.2497714855509687,5898.140657980272
1.432,1.1455794364821545,5905.463276853534
1.436,1.0349595893426824,5901.2179621226815
1.44,0.9345264469837311,5908.496044252433
1.444,0.859949997148256,5892.010387674067
1.448,0.8223025040866743,5904.155582284701
1.452,0.82527529757317,5912.224847819362
1.456,0.8641563385441356,5897.602902124286
1.46,0.9270031740834945,5902.32298380912
1.464,0.9976813833269934,5905.275350208078
1.468,1.0597356193228022,5905.45335327406
1.472,1.0998931826332183,5899.6260784344095
1.476,1.110442451048012,5898.9655207117385
1.48,1.0902899028464592,5908.711774976462
1.484,1.0447049688018277,5901.614610328806
1.488,0.9837296376846406,5902.547630810418
1.492,0.9194143194032465,5902.582370940457
1.496,0.8625687030155539,5898.065936614097
1.5,0.8201794155211862,5904.511784599787
1.504,0.7945005882022745,5896.084687211413
1.508,0.7839886312577095,5898.260021909842
1.512,0.7853183932281417,5902.872245252336
1.516,0.7953851577671014,5902.850667434304
1.52,0.8125530538383591,5911.527630414999
1.524,0.8369473897368328,5903.08843726926
1.528,0.869881351831263,5901.699449955956
1.532,0.9126282597194253,5899.499353575447
1.536,0.964933164673141,5903.94267897197
1.54,1.0238595222842557,5900.0078223198425
1.544,1.0835601228367508,5904.008591246477
1.548,1.1362315875785194,5904.967677440593
1.552,1.1739826111685587,5896.128174518707
1.556,1.1909239265463096,5905.696991913641
1.56,1.1847244166415827,5902.265373720981
1.564,1.1571726459741483,5899.705054733099
1.568,1.1137292646502477,5904.108945668359
1.572,1.0623902346281344,5901.842393402619
1.576,1.0122367980229754,5906.098069424813
1.58,0.9718846564258559,5904.707011434586
1.584,0.9479185298063815,5906.51166841519
1.588,0.9435115862218525,5909.268183825045
1.592,0.9576656058911486,5898.748856721502
1.596,0.9855121156791541,5901.334040124777
1.6,1.019718019117019,5908.220587080862
1.604,1.052498479684398,5898.037066306466
1.608,1.077475557634175,5907.895335305392
1.612,1.0908044948234,5903.706470017404
1.616,1.0914239626865818,5912.2198271941015
1.62,1.0806185637042975,5905.539538548815
1.624,1.0611293097765278,5902.820302034123
1.628,1.0359670671618666,5906.7769926785
1.632,1.0071548768826257,5903.775037284579
1.636,0.9748545899157175,5907.66009596748
1.64,0.9374160704013998,5903.035166857912
1.644,0.8925845420135433,5894.715346316659
1.648,0.8395092276453741,5904.161214713281
1.652,0.7806528909189657,5912.164169324165
1.656,0.7225492322447428,5902.792106045064
1.66,0.6747395967039387,5901.754559265099
1.664,0.6470253405430949,5905.740210576111
1.668,0.6460582810941321,5907.297944855579
1.672,0.6727728443120977,5911.089841978985
1.676,0.7218594078200549,5904.813510832423
1.68,0.7835076633761434,5899.1889078474405
1.684,0.8466246784701997,5903.052077055141
1.688,0.902209923272954,5896.220265250004
1.692,0.9456532419878564,5905.8182240161805
1.696,0.9772361130441278,5904.793375944634
1.7,1.000850150367545,5906.095997141201
1.704,1.0216334374012188,5900.628196206213
1.708,1.0435620527142009,5898.936498996602
1.712,1.067881969582379,5902.772792776093
1.716,1.0927700896390242,5906.246937403702
1.72,1.1140828894795696,5898.316134396432
1.724,1.1267321790556328,5905.572556230346
1.728,1.126170733357427,5898.947506696014
1.732,1.1095907734564185,5905.02691391759
1.736,1.0766337886575321,5902.940240915953
1.74,1.0295992009353165,5894.688889791992
1.744,0.9732355904895545,5909.726975614475
1.748,0.9141558547161046,5909.046077115932
1.752,0.859830975473487,5910.385779024749
1.756,0.8171633562500917,5907.907033902406
1.76,0.7908666617211059,5907.737671465459
1.764,0.782134317203526,5902.671526924172
1.768,0.7881653344094819,5907.117656893806
1.772,0.8029080380222422,5910.534890563959
1.776,0.8188745797054012,5895.0187436646165
1.78,0.8293001459274773,5913.803036741352
1.784,0.8297103607490003,5910.33412835087
1.788,0.8183598663789209,5900.593977404947
1.792,0.7957020852309473,5902.402751046423
1.796,0.7634933780249272,5905.677934872216
1.8,0.7241211615260914,5903.765209979781
1.804,0.6804513856986325,5907.781011850718
1.808,0.6361156458837074,5905.723983546164
1.812,0.5958490666375271,5910.527045991633
1.816,0.5654183710807293,5909.239200568506
1.82,0.5508875021485148,5900.686599811179
1.824,0.5572841586562122,5909.300694333654
1.828,0.5869979591168086,5909.465820753599
1.832,0.6384409170304339,5905.058008684706
1.836,0.7055750042918084,5915.977892718852
1.84,0.7787079541107103,5911.137514614333
1.844,0.8464718190453997,5904.770568627578
1.848,0.8983878219124826,5897.480464765956
1.852,0.9271710867216376,5914.3896209338445
1.856,0.9300181351370868,5904.89550054193
1.86,0.9084918426482046,5895.828200920441
