时间(s),电压(V),幅值(高频80K)
0.0,0.7717161701152085,5899.616687674931
0.004,0.9021168764286152,5895.243341330643
0.008,1.0088527869497341,5907.709326547069
0.012,1.0740602792557121,5896.8277235458245
0.016,1.0895583611511823,5895.627963029365
0.02,1.0580483780135292,5895.572349814355
0.024,0.9916491483808932,5893.973078647923
0.028,0.9085244072264922,5898.215894438668
0.032,0.8285571387037323,5899.802453245753
0.036,0.769008645664506,5896.615662406756
0.04,0.7410871112288904,5906.089678834257
0.044,0.748199959892704,5904.920167902883
0.048,0.7861893666904691,5901.534159276409
0.052,0.8452375580907591,5906.114650853497
0.056,0.912737791957641,5905.267997761288
0.06,0.9763334958785287,5906.440817222563
0.064,1.0263982429120906,5889.958765631549
0.068,1.0574444948144976,5899.119217152835
0.072,1.068320559430931,5896.961480735678
0.076,1.0614250907902953,5898.869968276823
0.08,1.0413673924683606,5903.698446211499
0.084,1.0135332061307716,5901.759312678908
0.088,0.982932728959301,5908.172716037236
0.092,0.9535113464524303,5894.415828574251
0.096,0.9278778739236548,5894.140588367977
0.1,0.9073170969845165,5904.880959913211
0.104,0.8920102722988599,5905.589646784424
0.108,0.8814240184459539,5905.84740273745
0.112,0.8747903677427701,5900.543062343721
0.116,0.8715886841933156,5896.203708250246
0.12,0.8719563551999917,5905.928352328506
0.124,0.8768950327900631,5904.147310423197
0.128,0.888069370391585,5903.1863556211
0.132,0.9071398596493824,5889.621359604595
0.136,0.9349198549187819,5904.493384726419
0.14,0.9708480407751282,5900.6190098200905
0.144,1.0130538505786528,5901.648459268427
0.148,1.0588337448928802,5908.630155549154
0.152,1.1050918802741176,5890.730288633362
0.156,1.1484769219942799,5900.744473490501
0.16,1.1853540312906614,5904.305513653423
0.164,1.2119637321406664,5904.253351624182
0.168,1.2249703819996267,5908.009346241192
0.172,1.2222770722331098,5900.257843439496
0.176,1.203761123378253,5895.783540623529
0.18,1.1716174693407253,5905.179043201036
0.184,1.1302105893928016,5890.348818735302
0.188,1.085500096470726,5896.41590014224
0.192,1.0441196903695498,5897.7454064320455
0.196,1.0121997914875975,5902.239851044407
0.2,0.9941524050566413,5903.951042134648
0.204,0.9917622416770718,5893.936395916163
0.208,1.003874072972469,5896.922013690969
0.212,1.0267502250223464,5903.396679278763
0.216,1.0549510285564458,5898.426277662948
0.22,1.0824685306358772,5903.5037619443065
0.224,1.1038273550739282,5899.032980999866
0.228,1.114930212192114,5898.082099440927
0.232,1.1135334037652502,5901.070703192647
0.236,1.0993578108690336,5893.587665643459
0.24,1.073950254272805,5902.796365253508
0.244,1.0404416493793125,5889.712070233983
0.248,1.00322903096983,5904.135789631022
0.252,0.9674398820348648,5905.922498580813
0.256,0.9380623149047307,5911.653099454818
0.26,0.918889050897711,5910.842501984479
0.264,0.9116665323466441,5901.697128892026
0.268,0.9158251629884692,5897.042141178185
0.272,0.9289184627840682,5897.623900938352
0.276,0.9475898294325086,5895.575723206155
0.28,0.9686630024192651,5898.1153892070615
0.284,0.9898984912651283,5895.548778219298
0.288,1.010104521261968,5910.219366226267
0.292,1.0286176288763251,5890.571723730706
0.296,1.0445441470902894,5902.125966619789
0.3,1.0563197705594918,5898.628570038984
0.304,1.0619174844012758,5907.963407238867
0.308,1.0595686697624447,5900.472570064138
0.312,1.0485553527793974,5893.567856921121
0.316,1.029704981460601,5895.545011798007
0.32,1.0054931746287294,5896.251576169571
0.324,0.9798072113905725,5901.018171132991
0.328,0.957368694239945,5902.142587121474
0.332,0.9427790875439224,5898.523798850237
0.336,0.9393151771882726,5894.545134895078
0.34,0.9478453290764064,5891.392272345538
0.344,0.966311032228467,5904.4831671530965
0.348,0.9900504090399055,5893.551983190934
0.352,1.0129508926394175,5899.129641919362
0.356,1.0291204184148313,5898.218570407002
0.36,1.0345405601200026,5905.3074496961535
0.364,1.0281163271676586,5905.583531385988
0.368,1.0117231040674604,5913.694646608091
0.372,0.9892375833103516,5898.770615183637
0.376,0.9650121727794988,5897.228862926726
0.38,0.9425525126073049,5893.4345959468
0.384,0.9240019563331148,5904.670081341571
0.388,0.9104762638587325,5898.919250060905
0.392,0.9027557433321285,5896.800999924382
0.396,0.9017174746290942,5902.1979797804415
0.4,0.9081928631094789,5902.4757172533255
0.404,0.92238210412719,5888.68989250544
0.408,0.9432331932467143,5895.887926267076
0.412,0.9681738666474043,5899.164819742457
0.416,0.9933780495925858,5899.907706080089
0.42,1.0145342864725424,5902.724237444803
0.424,1.0279159788320325,5905.658647078405
0.428,1.031401134107046,5895.492102756332
0.432,1.02502992656597,5893.891527955862
0.436,1.0108488680332228,5900.839852503415
0.44,0.9921263690569847,5900.112645497504
0.444,0.9723320244678756,5904.64297303667
0.448,0.9543579767459331,5895.030805241736
0.452,0.9402564609404284,5891.592635170949
0.456,0.9313934635210224,5914.004613936104
0.46,0.9286383744169919,5898.607463821397
0.464,0.9322480754056853,5899.796126284346
0.468,0.9414516044893835,5902.4549003436
0.472,0.9541016713905472,5890.88426545347
0.476,0.9667884583489518,5902.569203405545
0.48,0.9754924402968316,5904.931843314103
0.484,0.9765159341760593,5900.108300423492
0.488,0.9673554435599014,5897.762680869613
0.492,0.9473088811610514,5902.319297361329
0.496,0.9177430150135415,5895.007354919946
0.5,0.8819812389531818,5895.1842769878185
0.504,0.844778395213856,5907.422803826355
0.508,0.8114474166014833,5898.787056034131
0.512,0.7868845468829286,5900.035243222338
0.516,0.774806720390861,5897.314585136929
0.52,0.7773330959483634,5904.786072198359
0.524,0.7947863971851922,5902.1620152787145
0.528,0.8255336728952187,5892.845003428764
0.532,0.8658649372070796,5911.395424219002
0.536,0.9101210669395523,5895.432882446941
0.54,0.95133527234,5898.7382539191685
0.544,0.9824895755806146,5907.139838154993
0.548,0.9981711383871603,5902.405415881504
0.552,0.996102227281304,5900.851849579662
0.556,0.9779302000963087,5907.924523303947
0.56,0.9489147763979408,5900.161496527948
0.5640000000000001,0.9166049937110792,5896.361591213531
0.5680000000000001,0.8889682968713071,5903.8712104484175
0.5720000000000001,0.8725242584220994,5902.782175194412
0.5760000000000001,0.8708992826521683,5897.637611450595
0.58,0.8840665999389019,5891.793153627529
0.584,0.9084642319698113,5899.040278577846
0.588,0.9380638675605251,5901.226431352722
0.592,0.9661821722670716,5904.566164329462
0.596,0.9875079335492487,5895.993460280165
0.6,0.9996761682634941,5910.220901915894
0.604,1.0038209576059476,5897.159487957905
0.608,1.0038501032618743,5898.994529756405
0.612,1.0046662161099844,5892.895869619855
0.616,1.0100508900301468,5898.057661369623
0.62,1.0211238609703317,5896.820109577111
0.624,1.0359992254270984,5894.175014756268
0.628,1.0506499140633838,5899.280908601064
0.632,1.0604562824343298,5895.4080137977135
0.636,1.0617623207543225,5889.915697619097
0.64,1.0529806807112174,5897.421176466282
0.644,1.0350807383553808,5902.437998917374
0.648,1.0114202052229218,5896.094563956069
0.652,0.9869187075154793,5893.561763231312
0.656,0.9667316574632272,5896.7839963928745
0.66,0.9548428593021828,5904.579445992937
0.664,0.953101107162481,5902.715964454829
0.668,0.961024968796307,5893.520879793031
0.672,0.976322534185004,5908.636092248213
0.676,0.9957758012256936,5893.003460546934
0.68,1.016071716552957,5900.367946702952
0.684,1.034311884909287,5906.556974131096
0.6880000000000001,1.0481818314036129,5895.738307323707
0.6920000000000001,1.0559515794213934,5910.311925691184
0.6960000000000001,1.0565005326093861,5903.8512761338425
0.7000000000000001,1.0494239108575327,5903.693821991663
0.704,1.0351330023037162,5907.310561094292
0.708,1.0148433341446121,5890.801765865714
0.712,0.9904187799701536,5901.868370817939
0.716,0.9640997689369705,5901.341082986041
0.72,0.938189850680279,5903.031081231155
0.724,0.9148273901587463,5900.436211623969
0.728,0.8959450308461447,5897.914565933463
0.732,0.8833738142528244,5896.664489993524
0.736,0.8789095098810713,5892.937436580078
0.74,0.8841711977381689,5911.709723296804
0.744,0.9002188998202453,5900.309174602142
0.748,0.9270252240837887,5901.893562316508
0.752,0.962961816545324,5897.073578495372
0.756,1.0045098751522084,5895.592636430211
0.76,1.046437644302219,5896.241521517687
0.764,1.082607074969119,5900.088979250315
0.768,1.1073222846096475,5898.450002719284
0.772,1.1168518863380659,5900.562808172231
0.776,1.1106424756768813,5895.290837969611
0.78,1.0918089942186293,5896.882712566784
0.784,1.0666397156700669,5893.223651414812
0.788,1.0430920920680988,5910.547500901973
0.792,1.0286185226261235,5899.1699696847645
0.796,1.0280027687049222,5899.3585407163
0.8,1.041953636257854,5902.311531582361
0.804,1.0669047460896677,5900.384834865495
0.808,1.0959839626502188,5898.32447681015
0.812,1.1207433323343095,5897.317862106173
0.8160000000000001,1.1331590194516687,5898.75519119398
0.8200000000000001,1.1275232408346414,5901.153316231421
0.8240000000000001,1.1019321152614734,5902.048128659294
0.8280000000000001,1.0590621756108942,5906.008570734065
0.8320000000000001,1.0059438175270345,5890.292848293744
0.836,0.952593586860125,5896.073025211569
0.84,0.9096929036036332,5895.359283689629
0.844,0.885928295957336,5897.745992157976
0.848,0.8858781856882388,5896.822679352749
0.852,0.9091527110092651,5901.206668410082
0.856,0.9509102701985467,5898.905595060244
0.86,1.0033081826921382,5900.958581307177
0.864,1.0572793425152978,5907.3552147032615
0.868,1.1042302737315175,5903.827460055649
0.872,1.1374792435925145,5901.669346675578
0.876,1.1532801891857098,5893.033526031696
0.88,1.1512356657130671,5894.123795692521
0.884,1.1339916976471336,5900.345324051772
0.888,1.1063349283862096,5904.7300746992905
0.892,1.0740245768484136,5900.854123799198
0.896,1.0427321710343056,5913.108660897539
0.9,1.0173044067046109,5894.537535628007
0.904,1.0013415937558563,5898.8609570828985
0.908,0.9969447638766576,5895.12316312741
0.912,1.0044898622665752,5906.425124404281
0.916,1.022440659501667,5899.032694434145
0.92,1.0474060176868831,5891.663753487389
0.924,1.0746630655322156,5915.504900365483
0.928,1.0991370510879017,5913.255593998354
0.932,1.1165560468866995,5897.552410478182
0.936,1.124391248247659,5898.374173412352
0.94,1.122260674997862,5900.922348832206
0.944,1.1116521605160414,5891.628700851313
0.948,1.0950815638151763,5902.56512737048
0.952,1.075067806908865,5898.12542485231
0.956,1.053407416072331,5891.94637675339
0.96,1.0310406036026463,5903.940833436431
0.964,1.008421610972266,5897.293805844949
0.968,0.9860408666195244,5896.611954708117
0.972,0.9647907608122496,5903.000228486335
0.976,0.9460948670726447,5896.077819003107
0.98,0.931861328534825,5898.125569793921
0.984,0.9242692497034254,5901.387601875516
0.988,0.9252988770351264,5902.398619421089
0.992,0.9359907554124198,5896.632023221638
0.996,0.9556839004524703,5892.840040436163
1.0,0.9816793807178827,5899.676400999933
1.004,1.0096440589296638,5903.853657688775
1.008,1.0346744327879231,5910.372919394062
1.012,1.0525936806837928,5896.338355047778
1.016,1.0609684434853521,5892.5977459873375
1.02,1.0595063653009795,5903.6178552541205
1.024,1.04981452261889,5896.478830776949
1.028,1.0347694410344608,5897.217933182417
1.032,1.0178080514104417,5898.214861071897
1.036,1.0023162814918973,5899.120834785365
1.04,0.9911257291972727,5891.255565338205
1.044,0.9860668461468072,5900.640993510389
1.048,0.9876016450377034,5902.173557105992
1.052,0.9946765036000431,5907.986581398401
1.056,1.004954628564488,5901.48217686643
1.06,1.015461527775759,5900.106922009461
1.064,1.0234877796935693,5897.352761985676
1.068,1.02745632560252,5898.277076123054
1.072,1.0274453949158808,5892.941717217041
1.076,1.0251715002741797,5904.635466182253
1.08,1.0234233509194341,5902.089643669605
1.084,1.0251172488556362,5895.499770848616
1.088,1.0322821594073548,5901.546477263917
1.092,1.0453454643349216,5907.530277647733
1.096,1.062990030907311,5893.801969082972
1.1,1.082575930485392,5901.360757257488
1.104,1.1008605782046899,5900.230938186125
1.108,1.114729771066353,5894.121830619604
1.112,1.121815959012541,5898.653801869528
1.116,1.1209718075946047,5888.42377863702
1.12,1.1125028495579121,5907.222107342072
1.124,1.0980358433486008,5904.416934324606
1.128,1.0800451215178453,5911.235065021577
1.132,1.0612285687517085,5907.752007106382
1.136,1.0439281146113681,5896.1709382048975
1.14,1.0296856850396903,5892.509546936703
1.144,1.018982699682247,5897.408831647062
1.148,1.0112300892992678,5904.555558746913
1.152,1.005037090724195,5892.285289011087
1.156,0.9986745133281949,5894.561699097998
1.16,0.9905773001927505,5881.273890323764
1.164,0.9797759422964987,5899.4010834222445
1.168,0.9662266406076088,5897.680823791428
1.172,0.9510091465687079,5901.091431967521
1.176,0.9363061995838582,5905.284972136569
1.18,0.9250916980059488,5918.965739740548
1.184,0.9205568142832173,5906.453008707538
1.188,0.9254009814977413,5899.313331814878
1.192,0.9411436070355883,5895.004091641151
1.196,0.9675916828007137,5891.040577525819
1.2,1.002590574406721,5898.589276759443
1.204,1.0422055351721624,5901.557557918883
1.208,1.0814211518104602,5898.917074475359
1.212,1.115210289461154,5901.438484607162
1.216,1.1395671645136314,5900.363983197662
1.22,1.152101586621343,5909.312546905516
1.224,1.1520775134314736,5896.5768863322655
1.228,1.1400884539716059,5899.754503351655
1.232,1.1176804197888348,5889.70606552523
1.236,1.087139566607795,5900.022150905598
1.24,1.0514463508560732,5896.486422045483
1.244,1.0142032385667419,5898.2962930437725
1.248,0.9793061786652417,5901.748846962502
1.252,0.9502869655289543,5898.389151683686
1.256,0.9294948519578405,5903.182874704833
1.26,0.9174404083051533,5896.140723459893
1.264,0.9126082725175039,5901.456519954586
1.268,0.9118791145818169,5906.800768721369
1.272,0.9114451899058859,5898.267016914017
1.276,0.9078826195719126,5896.712260768738
1.28,0.899013466912772,5902.586391212607
1.284,0.8843708516853792,5891.1432430604855
1.288,0.865301169494121,5897.506287139343
1.292,0.844809710283888,5901.17389545245
1.296,0.8271763635956243,5897.525199903963
1.3,0.8173101368953075,5894.441784298288
1.304,0.8198683641801262,5903.092526794438
1.308,0.8382506074796029,5893.665551680997
1.312,0.8736400519340904,5901.14980298381
1.316,0.9243529654573127,5896.765017097516
1.32,0.9857963135965279,5904.938889048247
1.324,1.051187588355456,5894.9686089886045
1.328,1.1129198826931903,5893.209912825793
1.332,1.1642287623253809,5899.137932045427
1.336,1.2006711819941114,5896.654414460682
1.34,1.2208801167126517,5904.256859257916
1.344,1.2262696693828572,5905.92306285164
1.348,1.219864728948055,5894.338635976623
1.352,1.2048941691606483,5902.456579617935
1.356,1.1838421001837651,5906.574452728935
1.36,1.1582767425429819,5897.961442022855
1.364,1.1292881243630193,5898.756501260044
1.368,1.098097178550679,5905.609064240932
1.372,1.0664451570015472,5907.612957614122
1.376,1.036599326061798,5891.314888775445
1.38,1.011051935893399,5911.528077577313
1.384,0.9921490679365885,5909.075181175294
1.388,0.9818759122021667,5904.851120198777
1.392,0.9818213578094649,5899.93934507297
1.396,0.9931354981661497,5907.431974302251
1.4,1.0162985155182633,5894.2533076921445
1.404,1.0506813371551196,5899.96037634763
1.408,1.0940161038801715,5907.938741748087
1.412,1.1420087396431358,5904.5551731235655
1.416,1.1884313634667754,5896.774735587292
1.42,1.2259452181015318,5897.556952746546
1.424,1.247546990502696,5899.039492470772
1.428,1.2481742675869867,5900.792556439564
1.432,1.225938705224687,5904.479194892768
1.436,1.1826479805383685,5900.936519891029
1.44,1.1235269769411067,5902.385385212816
1.444,1.0562454738591625,5904.109704728254
1.448,0.9894934593557496,5894.810834360442
1.452,0.9314076115364963,5898.752664899932
1.456,0.8881430730421457,5905.650873843737
1.46,0.8628407465277698,5899.751044933433
1.464,0.8551992642491033,5893.592873527516
1.468,0.8617986340415815,5909.785023987901
1.472,0.8771632209865504,5902.848213492735
1.476,0.8952973211047687,5898.399270128166
1.48,0.9112298090548793,5894.306607124692
1.484,0.9221102020728776,5909.943837614187
1.488,0.9275889157406143,5894.500678374875
1.492,0.9294657870740006,5903.019163508972
1.496,0.9307931339512586,5906.531694324042
1.5,0.9347294800532862,5891.077884470745
1.504,0.9434701625354055,5896.159509843252
1.508,0.9575467320909182,5900.929864599498
1.512,0.9756821402650415,5898.484595573298
1.516,0.9952242809214373,5904.554075993971
1.52,1.013014551268332,5902.593241595476
1.524,1.0264263581843278,5892.114427217022
1.528,1.0342303161202513,5893.35979686135
1.532,1.036963076391282,5902.39531519475
1.536,1.0366857338707829,5901.858900638745
1.54,1.0363218143862307,5896.431065319793
1.544,1.0389054929791197,5900.432968598036
1.548,1.0469456221627496,5894.825699297166
1.552,1.061895218971402,5901.172566685856
1.556,1.0836460883063186,5897.450369193904
1.56,1.1101173496942986,5893.551435451303
1.564,1.13722083960162,5891.443644212002
1.568,1.1594936770660622,5901.86622180211
1.572,1.171378970566375,5901.644801670778
1.576,1.168736557706535,5899.678550897104
1.58,1.1500033681544022,5905.030360966998
1.584,1.1165843681388896,5896.662937824771
1.588,1.0724047711189426,5895.825339390088
1.592,1.022916115226454,5900.350611883381
1.596,0.9740333470253892,5901.412075273639
1.6,0.9313446057194276,5895.930374074445
1.604,0.8995868343999903,5901.525229777357
1.608,0.8821625625276083,5908.444908740483
1.612,0.88059272984976,5899.219166093892
1.616,0.8940719611759026,5906.282852203177
1.62,0.919397021512295,5902.6161171379135
1.624,0.9514079301486305,5901.912599098996
1.628,0.9838760525086947,5896.379306730478
1.632,1.0106255587685828,5897.18669212149
1.636,1.0266083571883222,5906.264577430647
1.64,1.028679136445371,5906.284662981239
1.644,1.0159558258350019,5896.888048017124
1.648,0.9898328434449832,5901.953149040445
1.652,0.9537732361955069,5903.85556694674
1.656,0.9128905545538889,5887.230924262715
1.66,0.8732330728342357,5893.667441255113
1.664,0.8407715996971512,5888.376760819194
1.668,0.8202755025927285,5896.679730094591
1.672,0.8143691503013419,5904.671523524041
1.676,0.8230536624927507,5905.0966788420255
1.68,0.8438720416506975,5890.371802966234
1.684,0.8726961489574626,5893.211378889435
1.688,0.9048775642451952,5901.502939735224
1.692,0.9363409600362792,5896.039004718676
1.696,0.9642228470466441,5904.326899296559
1.7,0.9869012102151509,5896.877032938706
1.704,1.0035921892937085,5902.805955247435
1.708,1.0139024643663348,5887.537162544193
1.712,1.0176903114752227,5896.324303799431
1.716,1.0153115136028363,5902.037212390197
1.72,1.0079839266350163,5901.364944273632
1.724,0.9978659564343426,5897.163025156342
1.728,0.9876291969481052,5895.304797732034
1.732,0.9796646745232378,5899.366890217719
1.736,0.9753234959904749,5909.016628675172
1.74,0.9745702850869681,5904.906055344326
1.744,0.9761584839877173,5892.007796362959
1.748,0.9781497619776863,5902.978716328767
1.752,0.9785019680412109,5900.351558614639
1.756,0.9755534769450035,5897.855625246273
1.76,0.9683845971735523,5893.709289522813
1.764,0.9570847769883997,5904.619990867985
1.768,0.9428814537666087,5892.37953991801
1.772,0.9280026648072308,5902.505693378669
1.776,0.9151780834827562,5898.4615026546335
1.78,0.9068685101584917,5898.987226689744
1.784,0.904517095980959,5901.362252863116
1.788,0.9081416071720293,5895.537616998106
1.792,0.9164329673834251,5900.012517409883
1.796,0.9273341432950625,5903.089062465834
1.8,0.9388796779477819,5896.216353951514
1.804,0.9498893313548517,5902.1594688539335
1.808,0.9601169040397117,5901.6221760551325
1.812,0.9697952945023043,5910.732855013018
1.816,0.9789689768175328,5898.649053182926
1.82,0.9871718573402561,5908.839588306804
1.824,0.9937434332078462,5898.288132724689
1.828,0.9985845185610388,5904.091770695134
1.832,1.0027911562546754,5901.364532995816
1.836,1.0086219401417285,5903.562006039693
1.84,1.0186478821562541,5908.824277626616
1.844,1.0344550284877678,5896.186561424998
1.848,1.055566215333937,5891.428362670734
1.852,1.0791286214567652,5894.344540969495
1.856,1.1005050620302335,5906.768261528589
