时间(s),电压(V),幅值(高频80K)
0.0,0.6488948180733827,5904.1061263467645
0.004,0.8659032511353176,5905.198246625626
0.008,1.063748507853389,5899.21297552129
0.012,1.2263251305737348,5904.741620588584
0.016,1.3427482295807482,5906.85090822622
0.02,1.4082375107347873,5897.8473439103045
0.024,1.4241692657410758,5906.945303506355
0.028,1.397592880664673,5903.889484124407
0.032,1.3401185764930184,5895.441010529506
0.036,1.266024465557161,5905.98794721981
0.04,1.1898542723813166,5899.070824330395
0.044,1.1241637649657188,5894.877572521354
0.048,1.0779543166377181,5898.447938245666
0.052,1.055921722899817,5893.784237871904
0.056,1.0584588107130988,5891.505863583195
0.06,1.0823752510800289,5893.306072418322
0.064,1.122151902678492,5895.341452340097
0.068,1.1712422607775674,5896.75567830289
0.072,1.2228977929077622,5896.278072413568
0.076,1.270409892900327,5898.991475149229
0.08,1.307204412246271,5895.946348382601
0.084,1.327398611965766,5895.944767367772
0.088,1.327030379120914,5904.392502162164
0.092,1.3054926520603125,5901.319130456874
0.096,1.26629682940295,5900.2549078786205
0.1,1.216459170127371,5904.533133252608
0.104,1.1644532399991472,5901.919801282353
0.108,1.11744829466208,5903.132190676788
0.112,1.0790300106758746,5899.195542336861
0.116,1.048466556816858,5899.782021774152
0.12,1.0218879202484634,5903.965708933063
0.124,0.994860525381722,5894.873236540237
0.128,0.9651735986178713,5908.2576699905385
0.132,0.934513901140283,5905.001177211409
0.136,0.9082237191576614,5907.030927177958
0.14,0.8932851137709925,5892.240476645445
0.144,0.8954788020194783,5899.661497254594
0.148,0.916875048975702,5896.992444743278
0.152,0.9545070322115756,5893.003858848925
0.156,1.000653332252899,5902.791148992264
0.16,1.0447708418710366,5908.298489239562
0.164,1.0766240090508818,5904.165381755913
0.168,1.0895957516900956,5900.842422593318
0.172,1.0829254867801805,5907.035696038644
0.176,1.0619611098317034,5898.9977866865
0.18,1.0362776793939774,5899.630961408187
0.184,1.0163442860657426,5900.423305817337
0.188,1.0099765626560868,5904.972671127483
0.192,1.0198599967057318,5900.569530822347
0.196,1.0429566837023825,5900.707785146405
0.2,1.0718744711261496,5896.107655405357
0.204,1.097600738241492,5910.903111958372
0.208,1.112567846051435,5900.0755718750015
0.212,1.1129443990494625,5903.255721654118
0.216,1.0994237970309235,5892.661949790958
0.22,1.0764641687352519,5899.351581085155
0.224,1.050530803594912,5899.259483964856
0.228,1.0281031632234365,5900.490631267908
0.232,1.014051774518634,5896.673223458644
0.236,1.0107063683194861,5901.382925445335
0.24,1.0177361053559117,5887.097382981243
0.244,1.032823186023152,5904.638865223131
0.248,1.0528864919702408,5908.063968209681
0.252,1.0753505042065188,5898.771842978617
0.256,1.0988984480399897,5906.649114520105
0.26,1.1234026257831264,5901.329655286102
0.264,1.1491263170570196,5894.478631055246
0.268,1.175602215973396,5894.272498470498
0.272,1.200699120423558,5899.048792518591
0.276,1.2203167540571387,5906.67671952822
0.28,1.2289589225804212,5902.137477533132
0.284,1.2211584190530536,5891.3597592200485
0.288,1.1933779600548646,5896.705484720843
0.292,1.1456792644990368,5898.276111588675
0.296,1.0823824001103637,5901.452584054877
0.3,1.0113453492257278,5897.824702293913
0.304,0.9422009065024122,5901.180230026702
0.308,0.8843485598501082,5900.92030751406
0.312,0.8453656268188934,5898.624942271916
0.316,0.8300326484132795,5897.800348418792
0.32,0.8398698013089421,5905.34686143762
0.324,0.8730977007565458,5891.937099294789
0.328,0.9250420399537029,5899.156124636865
0.332,0.9890017450358174,5893.552913552284
0.336,1.0574671097324906,5895.356068814886
0.34,1.1233841278391918,5903.733452400391
0.344,1.1810751445114158,5901.165365249004
0.348,1.2265712839556446,5897.418440946259
0.352,1.2574065575209679,5897.5381138210805
0.356,1.2721518195293413,5900.119532531703
0.36,1.2700243338816137,5911.609720504023
0.364,1.2508275414659349,5897.5069887262025
0.368,1.215285533232651,5891.64165332554
0.372,1.16559749553504,5890.852948062748
0.376,1.1059011412791668,5904.244533527695
0.38,1.0423718245452331,5896.936634611025
0.384,0.982795830075413,5896.81970872817
0.388,0.9355911546812338,5897.940298179
0.392,0.9084516048696886,5900.638048435787
0.396,0.9069569443107844,5904.102674811904
0.4,0.9334508955278945,5903.836575861479
0.404,0.9863346859329117,5897.19251445784
0.408,1.0598869224466825,5893.0722021335205
0.412,1.1447636659313143,5903.568914568782
0.416,1.2292442245852304,5902.392052499288
0.42,1.301073527631903,5900.801356632238
0.424,1.349587130720182,5891.309654231313
0.428,1.3677279729667975,5900.978802546817
0.432,1.353531455456472,5897.474116452335
0.436,1.3107186481907291,5903.877925081327
0.44,1.2481882424478064,5903.689254113821
0.444,1.1783205036553042,5901.27449077404
0.448,1.1141785262737722,5903.1363537631705
0.452,1.0661447640350183,5905.287413116669
0.456,1.039116621113412,5900.37761909912
0.46,1.0314999615901383,5903.543898738868
0.464,1.0365406151342822,5894.198170883748
0.468,1.0454277125608569,5895.263186056332
0.472,1.0508211330937418,5900.621761475709
0.476,1.0493955303805391,5899.11899081392
0.48,1.0425501136794484,5897.282224822915
0.484,1.0352187703532962,5902.501871616502
0.488,1.033360409235242,5902.054596639316
0.492,1.0410797040263606,5909.705191781007
0.496,1.0584549335496611,5898.028707870407
0.5,1.0809788810323997,5909.174035216301
0.504,1.100943494992189,5910.407862848812
0.508,1.110273343821578,5909.461243951895
0.512,1.1036740233147544,5904.561450322124
0.516,1.0808539944618445,5895.150592798621
0.52,1.0469962020102073,5899.775330696025
0.524,1.011346091448465,5895.330015570869
0.528,0.9844585449093387,5903.408496487964
0.532,0.9750733726968881,5895.1489616132085
0.536,0.9876157444044584,5908.36636771758
0.54,1.0209804857790383,5901.427496165957
0.544,1.0688026247126439,5891.097054798601
0.548,1.1210702381012958,5896.428308784079
0.552,1.1666858734099221,5906.128108659176
0.556,1.1962946789640463,5905.06992824668
0.56,1.2044697000487128,5901.389308011459
0.5640000000000001,1.190535741248482,5902.223264570601
0.5680000000000001,1.158013299390536,5887.2292241473015
0.5720000000000001,1.1133373352385163,5895.297594516209
0.5760000000000001,1.0645402750574977,5904.153875151657
0.58,1.0201013432371822,5899.39311773063
0.584,0.9878165225580533,5896.234505058049
0.588,0.9736385155142915,5896.275667618934
0.592,0.9806852373764497,5895.228679495616
0.596,1.0087167510724617,5905.0044864609
0.6,1.0542953356367564,5887.550488163013
0.604,1.1115991671060066,5898.556532147608
0.608,1.1735724937599203,5889.642610397457
0.612,1.233000909083826,5900.289715564122
0.616,1.2832600507384069,5904.274057758299
0.62,1.3187324724499891,5895.006699391627
0.624,1.3350968537879384,5904.446183104387
0.628,1.329779161065097,5899.451471047591
0.632,1.3026796713078141,5908.029879826904
0.636,1.2569034483059667,5890.560571965872
0.64,1.1989562182933458,5906.768770706067
0.644,1.1379783580359772,5902.037150992603
0.648,1.0840002075607502,5907.246774755466
0.652,1.0456594737124145,5900.912210441768
0.656,1.0281016210943892,5900.958812694981
0.66,1.0317575607808758,5899.543817826504
0.664,1.052388264961819,5899.462272685376
0.668,1.0823633065647638,5899.005971027302
0.672,1.1127544557647948,5903.20319218701
0.676,1.1356006190694958,5905.517489924314
0.68,1.1457321071968802,5902.224539325559
0.684,1.1417737039487157,5898.56218996363
0.6880000000000001,1.126188207697172,5892.062732492188
0.6920000000000001,1.104388340618529,5892.201414677536
0.6960000000000001,1.083112289074134,5892.97684779153
0.7000000000000001,1.0684633168331228,5912.572384221233
0.704,1.0641485102863415,5904.033394676235
0.708,1.0704164891620156,5901.745576973512
0.712,1.0840243925900528,5897.985325250913
0.716,1.0993261030676351,5899.200222465666
0.72,1.1102555714746423,5899.018459832948
0.724,1.1125994185804637,5914.37188936485
0.728,1.1056919421272104,5903.013359004622
0.732,1.0927807389604665,5898.297831881456
0.736,1.0798724106464463,5904.690002774868
0.74,1.0735792908071962,5905.532236986457
0.744,1.0788752959062564,5898.949637224599
0.748,1.0975303798035618,5899.678253431902
0.752,1.1275793373564302,5901.240546207473
0.756,1.1638592124282716,5899.529846037368
0.76,1.1994879380146877,5898.343697125808
0.764,1.2279415439416108,5901.822694053646
0.768,1.245052186935978,5905.177956401085
0.772,1.2501106948730922,5902.200856967292
0.776,1.2456200681472949,5894.835493028043
0.78,1.2359185763915865,5898.097283220543
0.784,1.225377308799274,5907.42050239641
0.788,1.216936833520691,5898.322532072544
0.792,1.2114855146068417,5896.645344844918
0.796,1.2081477528364104,5899.162895636532
0.8,1.2050908769554667,5907.389828752667
0.804,1.2002446250119765,5884.307277742642
0.808,1.1915639553582587,5904.34226635795
0.812,1.1769823157782144,5898.540682920502
0.8160000000000001,1.1545446811698694,5896.767066311274
0.8200000000000001,1.123086510196265,5903.619445646375
0.8240000000000001,1.0833445500797452,5893.349686513177
0.8280000000000001,1.0389002826560105,5902.467840124792
0.8320000000000001,0.9962065034013879,5911.219375514706
0.836,0.9632768242422163,5880.84171426838
0.84,0.9472743863782258,5897.93669984857
0.844,0.9518556631056485,5906.493680922139
0.848,0.9753810636845018,5909.835069565367
0.852,1.0108581432818977,5898.4321927448855
0.856,1.0477973237479548,5900.754590415621
0.86,1.0753399589168267,5892.521293638943
0.864,1.0855251970724014,5890.3681778289165
0.868,1.0756208221010257,5897.056310115199
0.872,1.0488634099129357,5897.56988764054
0.876,1.0134653380051988,5902.544485609854
0.88,0.9802359703083828,5902.992286446702
0.884,0.9595261057173252,5904.924588154718
0.888,0.9583377314721213,5901.9496165923165
0.892,0.9783834664705765,5907.525727698689
0.896,1.0156763185457827,5901.852063950433
0.9,1.061810772185703,5903.979726953204
0.904,1.1064833303689794,5909.653930220683
0.908,1.1402808312661634,5897.364076847725
0.912,1.1567212138036909,5901.538939026824
0.916,1.1530785153745724,5903.95628443178
0.92,1.1302702413642625,5895.633056666696
0.924,1.092394579843484,5893.9761140762175
0.928,1.0461716223111674,5905.730083661555
0.932,1.000061710170192,5896.211003434619
0.936,0.9627932364074231,5894.686230273837
0.94,0.9414389495838822,5901.700246654121
0.944,0.9395974537397634,5900.185621040042
0.948,0.9563303759949215,5901.2742784151305
0.952,0.9862543141598135,5908.4684695577325
0.956,1.020775936653989,5895.888340790578
0.96,1.0501331587142435,5896.767167106126
0.964,1.0658070294075728,5896.48655847433
0.968,1.0629007129103787,5897.564059426617
0.972,1.0420117190058495,5896.07734441929
0.976,1.009935505685509,5899.256654815259
0.98,0.9785679735132329,5898.523362419966
0.984,0.9619173498309567,5894.803642598165
0.988,0.9719929285548268,5899.928960888901
0.992,1.014925386049115,5894.358171225783
0.996,1.088609377234617,5902.373500636381
1.0,1.1826025485761653,5900.712912466492
1.004,1.2803505856031947,5900.877377301054
1.008,1.363210906647327,5906.787101653094
1.012,1.4152491693796294,5906.835087203928
1.016,1.4274989330316095,5899.75309512569
1.02,1.4004296442208664,5899.395086538573
1.024,1.3437874990407044,5902.948936386092
1.028,1.2737215854559212,5894.223771688253
1.032,1.2080144055443,5894.2797888050245
1.036,1.1609413122313632,5900.428842008396
1.04,1.1394360689488792,5895.665689481821
1.044,1.1417407090003846,5905.811893231651
1.048,1.1587843140165952,5901.832537071803
1.052,1.1775896683087184,5904.945842341416
1.056,1.1854370527437446,5897.670297537775
1.06,1.1734741901913583,5902.458283760921
1.064,1.1388584771409553,5905.896609123346
1.068,1.0851055202625368,5895.62051019671
1.072,1.0208265122653795,5897.411457183433
1.076,0.9573464963359808,5903.688010508747
1.08,0.9058633972093781,5899.403773688034
1.084,0.8748682232617442,5901.0902660347865
1.088,0.8684263251562933,5896.657469130416
1.092,0.8856226136447773,5903.654130210339
1.096,0.921148410831629,5907.23101573592
1.1,0.9667566496028601,5896.055281015975
1.104,1.0131446168080305,5908.949040910456
1.108,1.051789621407887,5903.76934818531
1.112,1.0764052804514013,5905.707437678183
1.116,1.083878597535512,5899.149873307746
1.12,1.074619567745256,5901.469646961024
1.124,1.0522573176762489,5901.939915927261
1.128,1.0227310069490692,5895.62987792838
1.132,0.9930303886766885,5903.568555324483
1.136,0.9699244612280122,5900.074860237532
1.14,0.9588829567363811,5907.053406885177
1.144,0.9632083214455217,5899.653712398345
1.148,0.9833791841238061,5900.999858244061
1.152,1.0167726162393391,5897.97693070845
1.156,1.0580452695234124,5897.350304162464
1.16,1.1002909541197015,5895.851138357406
1.164,1.1367249705511726,5899.872476067286
1.168,1.1623654517783293,5900.248737369393
1.172,1.1751647658927564,5892.953501742112
1.176,1.1762381636750905,5904.158215546683
1.18,1.1691537119190127,5903.907084187287
1.184,1.158594328666287,5908.464723432896
1.188,1.1488900485337743,5893.55240959041
1.192,1.142836694692066,5896.026594581145
1.196,1.1410203719720586,5906.459448433657
1.2,1.1417630676990076,5902.389872327972
1.204,1.1417575160235511,5898.910376930541
1.208,1.1372793753040265,5901.624141114025
1.212,1.1255624207709702,5900.57792464573
1.216,1.1057886550629523,5895.480195384715
1.22,1.0793639858456725,5890.112948920702
1.224,1.0495185319123899,5898.502003560253
1.228,1.020490209199186,5905.522241128527
1.232,0.9965898218393018,5900.383978888312
1.236,0.98141956240586,5900.188900242361
1.24,0.9774293494012093,5912.806087329843
1.244,0.9858024150278031,5899.408736902749
1.248,1.0064344054372656,5901.905225026799
1.252,1.0377008810710033,5905.329771951036
1.256,1.0759734722157444,5904.74049879066
1.26,1.1153514762170682,5903.182782869905
1.264,1.148343674018918,5893.071024707883
1.268,1.1678225043842987,5900.167404183154
1.272,1.1696661712681056,5899.278868468892
1.276,1.1548294950951203,5897.250143012176
1.28,1.1296873599763537,5904.73146739308
1.284,1.1042905805178422,5894.309327640201
1.288,1.0891526053039258,5902.655897552863
1.292,1.0918248580831127,5909.18708085048
1.296,1.1145432434679345,5900.976053265356
1.3,1.1537161209654208,5902.583454029687
1.304,1.201291948898423,5896.27135741283
1.308,1.247390222679846,5902.786549864014
1.312,1.2831989815389369,5898.854813348461
1.316,1.303167942400604,5898.64043600666
1.32,1.3059242549514316,5891.365050467612
1.324,1.2938660231110846,5895.5711014556
1.328,1.2717959572194257,5898.174416010602
1.332,1.2451527761597239,5895.408000251329
1.336,1.2184121039206066,5908.289035191138
1.34,1.1941059555944469,5900.149261957025
1.344,1.17266079664465,5891.176504314644
1.348,1.1529322017313484,5900.41661149964
1.352,1.1330994675411947,5900.902146690495
1.356,1.111604443607173,5904.407012640438
1.36,1.087940304780068,5901.528519248346
1.364,1.0631452480467098,5898.543162202292
1.368,1.0398960672297644,5895.204293937878
1.372,1.0221898006424883,5898.470353187984
1.376,1.0146088413747525,5903.559007417184
1.38,1.0210851120614146,5902.0825864990375
1.384,1.0432260182599111,5901.394798924961
1.388,1.0787506616418072,5904.751302022186
1.392,1.1209495633628173,5907.2660825407365
1.396,1.1598225387243486,5900.624002612167
1.4,1.1847576647741584,5904.763903044979
1.404,1.1878073583414832,5905.594232039347
1.408,1.1662413982541207,5902.584423985428
1.412,1.1232959621966185,5907.77105326301
1.416,1.0668079833554736,5901.681610843275
1.42,1.0063832598748474,5894.772006868702
1.424,0.9503967510571883,5900.799189091847
1.428,0.904070957887465,5899.069203466878
1.432,0.8691794313485794,5899.952991237635
1.436,0.8450987056193886,5899.370356416579
1.44,0.8304749262937686,5888.637094710164
1.444,0.824747074480347,5905.748675615697
1.448,0.8289769618187334,5899.71853181285
1.452,0.8457259164424331,5896.569070325478
1.456,0.8780417481648601,5899.88060151796
1.46,0.9279241245594226,5892.54617986858
1.464,0.9948189012518357,5904.323617987558
1.468,1.074683796932725,5904.87174881297
1.472,1.1599888484468586,5904.594107512166
1.476,1.2407276073942495,5893.818050135278
1.48,1.3062176944516188,5899.2289581393625
1.484,1.347273073722055,5888.6775997582345
1.488,1.3582703671160414,5897.5030858193
1.492,1.3386727425027012,5899.950308571743
1.496,1.2936432682163115,5898.474032783069
1.5,1.2334099465262984,5901.609185223291
1.504,1.171172373034612,5898.686728033041
1.508,1.119824543622692,5895.401865610304
1.512,1.0884797056548627,5905.36355023634
1.516,1.0801105778084998,5890.621131671573
1.52,1.0911628878447697,5892.182250160712
1.524,1.1130928623446716,5901.6598155363135
1.528,1.1351064213932751,5904.9588087636175
1.532,1.1472373103751121,5903.520185907296
1.536,1.1430254558473505,5901.2463466577365
1.54,1.1211495736667991,5901.120231058561
1.544,1.0855275739495565,5899.956610654427
1.548,1.0438374483845825,5904.1459529724925
1.552,1.0050141007034497,5894.995463071498
1.556,0.9766630552186789,5899.333607505784
1.56,0.9632462029252408,5905.134663036436
1.564,0.9654256885045644,5890.394593497405
1.568,0.9804261026226176,5895.777505455857
1.572,1.003003914735294,5904.469011846931
1.576,1.0266699412327982,5906.207542570808
1.58,1.0449919537653776,5913.614977113097
1.584,1.052874599133576,5903.055532874655
1.588,1.0476582826197318,5913.644877198674
1.592,1.029815440692482,5893.844497863226
1.596,1.0030041134840244,5904.764478109793
1.6,0.9732913231362059,5899.61311731026
1.604,0.9475617252277768,5894.982569955315
1.608,0.9314825637406524,5900.291016869997
1.612,0.927696355188964,5899.585409267086
1.616,0.9348974960384956,5899.308580826626
1.62,0.9481061956453464,5887.553475798488
1.624,0.9600302852934053,5900.884212678032
1.628,0.9631100259331112,5900.536989039844
1.632,0.9516915075063671,5891.260555002316
1.636,0.9237502721632836,5896.772740090916
1.64,0.8817162827157569,5900.972956862213
1.644,0.832196180368841,5896.976395020312
1.648,0.7846329305290796,5896.581982452591
1.652,0.7491529682723453,5898.704915439075
1.656,0.7340816020348871,5902.887409057235
1.66,0.7438124227099138,5905.65422747165
1.664,0.7777142953789097,5896.410905794688
1.668,0.8304449703195542,5894.124512778775
1.672,0.893541038894639,5898.452962870707
1.676,0.957726010410072,5897.934158662452
1.68,1.015190560268822,5907.863681810598
1.684,1.0611649317352683,5899.6575734145445
1.688,1.0943704342689478,5894.510271257363
1.692,1.116334392523961,5896.236672891911
1.696,1.1299523321156877,5898.824924109652
1.7,1.1379158517175043,5904.095438555991
1.704,1.1415929092203714,5908.589175518333
1.708,1.1406913256178473,5905.823404921903
1.712,1.1337169979675554,5898.538182659806
1.716,1.1189861800991803,5900.89860191084
1.72,1.0957870485047263,5894.980527911391
1.724,1.0652359957751905,5890.618843736852
1.728,1.0304847996198185,5902.319449222675
1.732,0.9961573666457679,5902.425135297142
1.736,0.9671667100523494,5904.618648869347
1.74,0.9473531201459002,5906.861902803789
1.744,0.9385130148741841,5894.023733761513
1.748,0.9401566632801481,5900.037169445627
1.752,0.9499168484534672,5904.685669578683
1.756,0.9643149170113612,5908.767763367639
1.76,0.9796356461404118,5895.255617990144
1.764,0.9927196390527997,5904.319240463579
1.768,1.001456347083657,5903.169363968909
1.772,1.0048100783016047,5908.726348106407
1.776,1.0024348940716328,5904.0910939203895
1.78,0.9942039409991688,5903.53171179932
1.784,0.9800669813293327,5900.375565309539
1.788,0.960420808238423,5905.659468374596
1.792,0.9367356679663329,5901.210743136856
1.796,0.911877690486446,5896.15649688273
1.8,0.8897008397871189,5900.411768854982
1.804,0.8739498868490291,5903.30406136571
1.808,0.8669211726477911,5903.711197217882
1.812,0.8684327317748842,5902.411023684599
1.816,0.8755329592209833,5899.315651445929
1.82,0.8831432060395208,5903.040757548461
1.824,0.8855192446962987,5900.835463519666
1.828,0.8781164656724095,5900.613596032642
1.832,0.8592675622986689,5900.665600857585
1.836,0.831070859781645,5898.346185596779
1.84,0.7990959207150004,5904.2677169662575
1.844,0.7709585973299214,5899.626432334862
1.848,0.754273217954308,5911.336092922607
1.852,0.7546408404157691,5907.887894120566
1.856,0.7741721282774998,5903.684967951021
1.86,0.8108396671815387,5899.835062427801
