时间(s),电压(V),幅值(高频80K)
0.0,1.2023846775459603,5903.176031869913
0.004,1.1459742754259115,5900.245606669097
0.008,1.0908307134710453,5897.716071099897
0.012,1.0392705080066265,5901.814271953482
0.016,0.9942781584922378,5891.425614388278
0.02,0.9587793616523145,5900.018119914078
0.024,0.9349128782345334,5903.346430327591
0.028,0.923775927767893,5894.806424332202
0.032,0.9255461216240648,5899.181679364808
0.036,0.9395324981915876,5902.745092379348
0.04,0.9638881373271996,5903.587987514808
0.044,0.9951641464703624,5898.214031331473
0.048,1.0281856084575312,5906.18782291217
0.052,1.0566662190312408,5893.504561688745
0.056,1.074574271485354,5894.672747516112
0.06,1.0777516369740543,5889.351293199436
0.064,1.0650150461529744,5899.739834694646
0.068,1.0381750982404767,5905.457079580863
0.072,1.0010164705440565,5900.088612969702
0.076,0.9578954720959812,5898.934589198484
0.08,0.9127895523396246,5906.805356669358
0.084,0.8692480193740393,5903.02051119044
0.088,0.831016670934566,5896.553891445849
0.092,0.8026110825851842,5905.153198791135
0.096,0.789148649780166,5906.678669637045
0.1,0.7952996950348261,5897.1555582112505
0.104,0.8238540272466198,5901.6075211175685
0.108,0.8746093548754351,5900.071717963545
0.112,0.9439744088084027,5894.076798883814
0.116,1.0252603652918206,5900.44124891633
0.12,1.1095207377216585,5895.468900143651
0.124,1.1868885281083872,5898.26537374616
0.128,1.2482602381035541,5902.277683892283
0.132,1.2868731067216042,5896.310034606715
0.136,1.2992438663352226,5889.497954887927
0.14,1.2852906876802208,5907.993426140578
0.144,1.2478864829835168,5900.216045145967
0.148,1.1921855310642153,5904.991157263936
0.152,1.1248801521098555,5899.755394278295
0.156,1.0533852128640462,5903.225066725215
0.16,0.9849467383678985,5898.181277520892
0.164,0.9257526621772547,5895.297713102541
0.168,0.8802024947110182,5895.185861918829
0.172,0.8505222526703113,5902.321176292465
0.176,0.8368408148326005,5901.058500684387
0.18,0.8376659401119806,5903.48061237619
0.184,0.8505299124149306,5899.550397969167
0.188,0.8725674018002111,5908.487582431541
0.192,0.9009199471147874,5903.95709769599
0.196,0.9329668110251336,5885.1586170723895
0.2,0.9663997853736389,5895.240389272186
0.204,0.999177012699061,5898.299269585653
0.208,1.0294525611856349,5888.494335080359
0.212,1.0556107755880397,5895.718432165711
0.216,1.0764616676031706,5901.500666797569
0.22,1.0915099176471468,5902.7824694278
0.224,1.10111099810341,5905.510952363015
0.228,1.106354777175759,5898.101011200247
0.232,1.1086568371684744,5902.933812844893
0.236,1.1092076285342294,5900.839317700415
0.24,1.1085236821720053,5901.828212283213
0.244,1.1062892115753817,5907.298041122793
0.248,1.1015020258023567,5894.049653099298
0.252,1.0928072314767678,5905.664543272977
0.256,1.0789497585039063,5899.889422035384
0.26,1.0593919554438636,5891.553031495662
0.264,1.0350676967665065,5894.723167135166
0.268,1.00894055749119,5902.9205864762025
0.272,0.9858176072589295,5910.4855828036
0.276,0.9710997137057181,5901.68458894511
0.28,0.9687851368755828,5896.206490740608
0.284,0.9796067120754035,5901.415562275071
0.288,1.000218839446615,5897.280119971104
0.292,1.0238739072407435,5886.757947841931
0.296,1.042404952582445,5903.520477668266
0.3,1.048833438123443,5898.585479658519
0.304,1.0396323714748978,5902.515513832769
0.308,1.015728724173547,5907.3450237291445
0.312,0.9818510243473041,5899.521453618049
0.316,0.9446308968962931,5903.874017919984
0.32,0.9104636292957972,5897.005655912474
0.324,0.8841102305603535,5897.388978111597
0.328,0.8684054545030726,5900.527018997951
0.332,0.8646991873097405,5900.212268220265
0.336,0.8733257236893018,5893.281004480774
0.34,0.8936156678733906,5901.557274179531
0.344,0.9234910025690103,5902.633843225476
0.348,0.9591175743622765,5899.236933592686
0.352,0.9951362712603492,5909.70823964192
0.356,1.025640058464252,5903.482907791637
0.36,1.045580086060425,5902.120115681198
0.364,1.0520188575300304,5900.2916748112
0.368,1.04475460720357,5895.990415764007
0.372,1.0261785384506068,5898.689417234562
0.376,1.0005387001481596,5909.462596338976
0.38,0.9729317378539607,5899.763189335386
0.384,0.9483264029487521,5897.071703934946
0.388,0.9307891251887207,5908.7695550011
0.392,0.9229371223348002,5893.417483320957
0.396,0.9255965142883181,5902.868770413292
0.4,0.9376600970564787,5894.219011492348
0.404,0.956154581296165,5904.727519657893
0.408,0.9765893599722357,5905.949304444348
0.412,0.9937363931406323,5903.388912252405
0.416,1.0028799774245152,5897.2593418877
0.42,1.0012308496130111,5910.510564321799
0.424,0.9888972215264693,5898.524917097707
0.428,0.9688669231177234,5902.211714216829
0.432,0.9459223384674575,5900.787010437876
0.436,0.9249772976238911,5901.452623364412
0.44,0.9095900549982253,5902.03512385085
0.444,0.9012279402909517,5895.885274389128
0.448,0.8994211217031082,5898.512767488436
0.452,0.9025302336654715,5896.850234362036
0.456,0.9086685793586239,5900.56614778483
0.46,0.9164006089142942,5907.971724301952
0.464,0.9250374834576581,5894.817299162272
0.468,0.9345022983029729,5889.127217016493
0.472,0.944846092678178,5907.070038610362
0.476,0.9556427076158339,5903.892661754016
0.48,0.9656140260350086,5896.121025775912
0.484,0.9727644202219292,5902.451297170715
0.488,0.9750109046942675,5906.160881185235
0.492,0.9710009533459345,5906.665417013097
0.496,0.9607314568429528,5903.932584827706
0.5,0.945719614313922,5899.675176340977
0.504,0.9286995960981344,5901.860803083223
0.508,0.9130134337640703,5913.316242736855
0.512,0.9019297166986985,5904.566626926921
0.516,0.8980278825681255,5899.224280475403
0.52,0.9026641784902956,5910.239378317111
0.524,0.9155423361376862,5896.54949628948
0.528,0.9345130511884789,5897.021876878166
0.532,0.9557762743015759,5897.909074108354
0.536,0.9745837482207901,5897.604846080583
0.54,0.986356552023182,5893.62795709803
0.544,0.9879308365865125,5898.081440357386
0.548,0.9785308475377087,5900.215731103493
0.552,0.9600890626655597,5901.289318685575
0.556,0.9367052388443133,5900.132238305771
0.56,0.913374143669332,5902.364311739744
0.5640000000000001,0.8944843763036432,5904.971683163068
0.5680000000000001,0.8827052966747798,5908.521998940373
0.5720000000000001,0.8786043101601363,5909.335994901179
0.5760000000000001,0.8809205777396802,5904.029107206747
0.58,0.8872248048859201,5901.548010070473
0.584,0.8947653373053319,5895.057470718237
0.588,0.9013758146117519,5895.542215901453
0.592,0.9062403814752361,5909.3300588564525
0.596,0.9102211778010295,5902.237405646975
0.6,0.9155555341395919,5901.263616419255
0.604,0.9250181087449483,5898.409317704242
0.608,0.9408894792742942,5907.217318615712
0.612,0.9640953306273977,5907.533808538866
0.616,0.993737723477851,5903.860259824035
0.62,1.027079706732027,5898.341655517019
0.624,1.0599095135043224,5898.5722468878
0.628,1.0871271298008103,5905.104006480675
0.632,1.1034444806152222,5900.787578832769
0.636,1.1042273127154654,5905.531365426273
0.64,1.0865137478949887,5896.154972822303
0.644,1.0500210350903483,5899.919693355207
0.648,0.9977170094368869,5899.121886770778
0.652,0.9355867412308287,5898.097199418063
0.656,0.8715877402692781,5898.286101014379
0.66,0.8141657753839517,5896.235019557347
0.664,0.7707976463570867,5901.6513447758525
0.668,0.7468323054000418,5900.692153521372
0.672,0.7446878951589447,5896.707648220294
0.676,0.7634423387380521,5891.29121728945
0.68,0.7989396172837195,5897.498131801031
0.684,0.844496563547635,5906.971991186796
0.6880000000000001,0.8920922621412863,5906.89530172929
0.6920000000000001,0.9337162604704995,5894.500778283123
0.6960000000000001,0.9625090088484927,5897.516334370105
0.7000000000000001,0.9735050407691822,5892.250975490172
0.704,0.9640843259463445,5903.097741613127
0.708,0.934387478015883,5900.405409235709
0.712,0.8877618646767369,5901.4245186321405
0.716,0.8309259105954376,5906.246352612726
0.72,0.7733622475600863,5890.410966125803
0.724,0.7257178753046094,5902.254118604178
0.728,0.6975301714546748,5897.587015029287
0.732,0.6949912541759155,5895.179741735198
0.736,0.7194607874091234,5903.014074567292
0.74,0.7671448642178424,5900.560672551102
0.744,0.8300006731511396,5901.299506990638
0.748,0.8976071910793039,5892.57978393137
0.752,0.9594983272165476,5897.916419056605
0.756,1.0073508774664726,5905.772764990144
0.76,1.0364945479917402,5901.896975307585
0.764,1.046440872620384,5909.639703481684
0.768,1.0404418406644877,5899.384828345415
0.772,1.0243665169945675,5898.777067472514
0.776,1.0052993986176735,5889.937625145153
0.78,0.9901929465497942,5900.821972956142
0.784,0.9847398349730465,5897.55745958818
0.788,0.9924907759700295,5894.918422431216
0.792,1.014220264765795,5897.34148249703
0.796,1.0476454686961594,5904.254390623628
0.8,1.087713524918003,5900.689233815873
0.804,1.12761001022858,5900.495513068725
0.808,1.160369517804411,5893.122590477035
0.812,1.1806470307145445,5895.948066677718
0.8160000000000001,1.1860230578928703,5903.486600307579
0.8200000000000001,1.1772952330171047,5901.623381290123
0.8240000000000001,1.1576200991666936,5899.3770071422
0.8280000000000001,1.1309662136490357,5901.6507874218405
0.8320000000000001,1.1007217162300833,5896.387785535569
0.836,1.0691463461626145,5891.4756884579865
0.84,1.0377728482237694,5903.73725938381
0.844,1.0082702009824571,5896.253604614458
0.848,0.9830667534290625,5892.677047029851
0.852,0.9652776644150539,5898.650273992631
0.856,0.9579452546444984,5904.471746485494
0.86,0.9629614928028681,5894.2940422540605
0.864,0.9801511765329459,5907.308326857077
0.868,1.0068825243867974,5904.43820468385
0.872,1.0383610602573292,5907.6788205171815
0.876,1.0685827322480805,5904.83975381799
0.88,1.091776700889555,5906.907632434539
0.884,1.103975691726589,5891.762212013211
0.888,1.104182441038508,5902.232567609992
0.892,1.0946690487215405,5900.326854519508
0.896,1.0802956417628424,5895.406926930968
0.9,1.0671236034639542,5895.022295491246
0.904,1.060774515419022,5891.361546755977
0.908,1.064943966363055,5889.44063072368
0.912,1.0803804135113402,5893.3168491608985
0.916,1.1045597454700529,5895.0095541640485
0.92,1.1321616571009818,5900.855986512315
0.924,1.1562618278693184,5904.126639396206
0.928,1.1699836297121655,5896.023222491431
0.932,1.1682510934362622,5904.141240231989
0.936,1.1492223264381671,5897.190680279667
0.94,1.1149946214316762,5904.320661853713
0.944,1.0713328473316144,5899.727742848968
0.948,1.0264524912280892,5893.8207218451535
0.952,0.9891681110133408,5895.015125390159
0.956,0.9668805900522149,5891.751122417893
0.96,0.9638703173606429,5895.679283124917
0.964,0.9802419042323574,5903.200212117213
0.968,1.0117334448847564,5897.094035754264
0.972,1.050482313625495,5909.201849174379
0.976,1.0866738871980668,5904.96461380322
0.98,1.1107853505287932,5893.85328158595
0.984,1.1159313428119297,5898.263361872193
0.988,1.0996637844942516,5901.84067742537
0.992,1.0645773419879532,5901.609994648061
0.996,1.0174047944416607,5902.182483391461
1.0,0.9669091584188906,5906.15241279272
1.004,0.9213905382963316,5901.977198898304
1.008,0.8866872048313261,5892.869308907283
1.012,0.8652317362984062,5898.134918091068
1.016,0.8562724798358123,5900.891254735158
1.02,0.8569474649800306,5897.391472392718
1.024,0.8636527728653358,5904.055562110269
1.028,0.8732166185479053,5896.821960464925
1.032,0.8836625710055499,5903.675607367353
1.036,0.894523825244518,5899.958766190505
1.04,0.9066793043094613,5905.979024117451
1.044,0.9217380892342136,5890.083186681077
1.048,0.9411949301678706,5910.492542673173
1.052,0.9657013763141037,5898.8329183451615
1.056,0.9946768278088911,5888.986205462241
1.06,1.0262724775372671,5896.214431196901
1.064,1.0576206961522723,5890.919903666234
1.068,1.0853215870230812,5890.654890936178
1.072,1.10606086073409,5900.026073412056
1.076,1.1171339152338686,5898.5805997637335
1.08,1.1166785241965298,5893.610968341802
1.084,1.103649820543982,5904.454780477034
1.088,1.0777907086244058,5894.754530110538
1.092,1.039843786196929,5901.371279057636
1.096,0.9920260800617468,5903.564083308072
1.1,0.9385087827240489,5894.574586192392
1.104,0.8854743486052129,5895.221805235113
1.108,0.8403797775488088,5899.554762708554
1.112,0.8103877171084747,5902.01932170407
1.116,0.8004071229896633,5893.734762952247
1.12,0.8114994601393613,5895.2760342328365
1.124,0.84033187353719,5904.548064847575
1.128,0.8799746849008137,5907.620862275487
1.132,0.9218672832818474,5899.6913346841
1.136,0.9583538799757209,5896.925204487564
1.14,0.9849241878942353,5901.219924525857
1.144,1.001326433437326,5904.01803388684
1.148,1.0111032483190299,5893.284638273393
1.152,1.0196992435041696,5900.420948084663
1.156,1.03186509467471,5902.069208742823
1.16,1.0494077929129573,5901.065976683924
1.164,1.0702351430735348,5894.806828587442
1.168,1.0890757571748464,5895.491241541289
1.172,1.099471075786712,5901.873132935238
1.176,1.0961171031758845,5898.457856461777
1.18,1.076674233266821,5894.714191784396
1.184,1.0425635539689055,5907.929717961798
1.188,0.9986568704304073,5903.373716742052
1.192,0.952053423601135,5897.22539871963
1.196,0.9103826467804932,5899.6709090722015
1.2,0.8801784666883878,5900.269735267145
1.204,0.8657203471757761,5896.712358600845
1.208,0.8684730735754841,5902.780803070097
1.212,0.8870903670746738,5906.152156230296
1.216,0.9178635208870175,5901.227134964518
1.22,0.9554194007031582,5891.514083393675
1.224,0.9934895655615568,5903.829624989601
1.228,1.0257390894069218,5905.701036418137
1.232,1.0467552430372147,5900.92678611047
1.236,1.0531395840090543,5912.775243738064
1.24,1.0443627131052367,5905.617432845307
1.244,1.0229700019117216,5893.525293388832
1.248,0.9939705872375542,5892.450444030431
1.252,0.9635966802090148,5900.161139758885
1.256,0.9378633058532236,5904.761059103981
1.26,0.92139709738021,5893.059354282091
1.264,0.9168360660510786,5905.54011374676
1.268,0.9248318925543517,5887.573106569127
1.272,0.9444771700511784,5894.997095897667
1.276,0.9739012514836415,5896.9968791488345
1.28,1.0107735308101973,5905.705565358874
1.284,1.0524902775957359,5906.505895318093
1.288,1.0959618204675714,5888.554564661244
1.292,1.1371912057190852,5892.150689637198
1.296,1.1710949387850293,5903.300838685825
1.3,1.1920069790445866,5904.281836969923
1.304,1.1949490987939353,5904.957719986563
1.308,1.1772696428533633,5895.217773092206
1.312,1.139973063585857,5897.858944871729
1.316,1.0881318737907932,5900.260086213466
1.32,1.0301122014452604,5905.771990307569
1.324,0.9757760128341206,5902.904834485571
1.328,0.9341721235668604,5896.553932246358
1.332,0.9113796376354335,5900.0466946926335
1.336,0.9091189000525406,5899.510017168366
1.34,0.9245481143226227,5898.7562359406165
1.344,0.9513183703693125,5901.063338139425
1.348,0.9815082019116422,5898.363700984417
1.352,1.0077298514916435,5894.348931625855
1.356,1.0247283764191508,5910.004051419831
1.36,1.03013299054654,5902.9227629623465
1.364,1.024400397654638,5890.517011557152
1.368,1.0102037798983428,5900.356567909216
1.372,0.9915372160143207,5900.210395996348
1.376,0.9727231648638092,5903.575781770982
1.38,0.9574547788654749,5895.129630536036
1.384,0.9480184992974731,5898.445923677292
1.388,0.9448752300950253,5901.600749391426
1.392,0.9467552214950645,5911.169968019607
1.396,0.9512913490640751,5891.958454954181
1.4,0.9559943436739766,5897.062978776384
1.404,0.959192113712107,5900.796071943234
1.408,0.9605683073167206,5906.880759085548
1.412,0.9611453006451901,5906.15613086373
1.416,0.9628067993898336,5900.82969274328
1.42,0.9675927688774141,5907.073943826846
1.424,0.9769964554551616,5897.884806746161
1.428,0.9914217166917688,5896.871218632343
1.432,1.0098847478087891,5893.793874555333
1.436,1.0299902544808788,5898.63888524501
1.44,1.0482107340355333,5900.835624492622
1.444,1.060548359204005,5898.89613420598
1.448,1.0636156771686254,5899.420310585993
1.452,1.0558918638871426,5905.357550389039
1.456,1.0385792616696563,5903.949717492138
1.46,1.0155017411290113,5897.047680916701
1.464,0.9919501614287214,5902.749519021524
1.468,0.9729373593856556,5901.999776602369
1.472,0.9615934981925247,5899.0473248739845
1.476,0.9583267334247387,5903.516704136741
1.48,0.9610106645253832,5901.88720600905
1.484,0.9660120972086078,5903.69130573802
1.488,0.9695647620364783,5901.226444059013
1.492,0.9689939303286427,5900.879987439189
1.496,0.963515605858993,5898.799804650934
1.5,0.9545196501632286,5910.037065846247
1.504,0.9452986660968462,5897.064803528377
1.508,0.940214037294935,5902.106468074829
1.512,0.9434011399150164,5894.458358595448
1.516,0.957293444841355,5901.407452132044
1.52,0.9814069541296933,5896.218425219856
1.524,1.0118734706307606,5893.002608990745
1.528,1.0420734351568437,5903.827860042324
1.532,1.0643889835561438,5907.839080219276
1.536,1.0726415722153815,5909.789587654241
1.54,1.0643743170800968,5903.857489628951
1.544,1.0420566192972516,5903.151290348988
1.548,1.0126663360454065,5904.086238160245
1.552,0.9857573936772887,5893.290459152682
1.556,0.9706922751108608,5898.085901281531
1.56,0.9739734204887903,5893.4987049163055
1.564,0.9974987736374104,5907.172433639441
1.568,1.0381755377873567,5902.393656742387
1.572,1.0888478026886304,5905.242561223478
1.576,1.14014835845263,5908.2224341557385
1.58,1.1827409088907717,5893.3905544513145
1.584,1.2093985648714791,5895.701010956661
1.588,1.2164326894163604,5903.575264230391
1.592,1.2041773639221778,5900.838554093013
1.596,1.176510779807276,5905.271448686596
1.6,1.1396433411747984,5901.004029529807
1.604,1.100549822070814,5903.954306619685
1.608,1.0654504934802387,5901.043738002598
1.612,1.0386676638554044,5891.5917382454245
1.616,1.022044681207313,5906.204127194531
1.62,1.014955869461436,5914.794485664989
1.624,1.0148008613018298,5895.783474899958
1.628,1.0178220154160804,5907.702025049155
1.632,1.0201023658169068,5891.719641823454
1.636,1.0186001899298625,5906.724642422427
1.64,1.0119899327652564,5898.658800168568
1.644,1.000983515495171,5902.527023729681
1.648,0.9878961687026847,5890.360940428949
1.652,0.9755798696146526,5893.673087472986
1.656,0.9662258445891871,5902.255169688983
1.66,0.9605874499121464,5903.350685448436
1.664,0.9578929490899697,5899.794387788422
1.668,0.956389377010383,5904.520355461539
1.672,0.9542477186083776,5902.501949727907
1.676,0.950457233330938,5900.394113447122
1.68,0.945377940168927,5891.141632310101
1.684,0.9408175072332828,5900.807981996414
1.688,0.9396902346837545,5905.902133676341
1.692,0.9453602543741094,5907.478379515034
1.696,0.9607490327202677,5898.877140609781
1.7,0.9873441768601169,5904.079862736632
1.704,1.0243899718464011,5901.337241154155
1.708,1.0686279119092061,5901.633968359904
1.712,1.114809744842691,5898.170096641064
1.716,1.156837450732392,5895.837792047638
1.72,1.189079923150764,5902.804161883245
1.724,1.207423953932708,5913.94637826051
1.728,1.2098460975407583,5897.815397373778
1.732,1.1964910227592682,5900.620422789066
1.736,1.1693457829517717,5901.387941598389
1.74,1.1316915765157063,5901.932256801456
1.744,1.087571294428625,5909.654351734524
1.748,1.0414277275402979,5902.222909164796
1.752,0.9978717012774043,5895.8326629351695
1.756,0.9613771338768282,5885.749948437498
1.76,0.9356853544765104,5904.32829394402
1.764,0.9228869352189699,5901.708292081699
1.768,0.9224842358503907,5904.051423432324
1.772,0.9309988605144326,5894.844246122553
1.776,0.942614190680502,5900.458742805888
1.78,0.9508790210900101,5903.174319986354
1.784,0.9508975545416781,5905.62813375735
1.788,0.9411135027009523,5905.830786361654
1.792,0.9239789502783134,5897.649774719272
1.796,0.9052775193284865,5903.241192265337
1.8,0.892322119001233,5897.198424753049
1.804,0.8915775022589749,5903.87930709944
1.808,0.9064657149627798,5897.6167430139
1.812,0.9360926036936255,5893.068719679152
1.816,0.9753322031508139,5900.240492539081
1.82,1.0162424319028869,5903.012439938182
1.824,1.0503251836775003,5905.824348307064
1.828,1.0708253991385535,5898.9214873463325
1.832,1.0742506394955007,5892.66545564774
1.836,1.0606816507588548,5896.59577992758
1.84,1.0330442650443838,5901.005226271553
1.844,0.9959082063019612,5899.290125065147
1.848,0.9543433148154852,5891.384783934806
1.852,0.9130744082282605,5903.515717375142
1.856,0.8759449540462984,5898.483877564426
