时间(s),电压(V),幅值(高频80K)
0.0,1.6260991378530938,5893.128775243006
0.004,1.4571197010814574,5908.769850075501
0.008,1.3025814996189737,5906.421616270478
0.012,1.1734972725093507,5899.876700196993
0.016,1.0756390617924043,5893.866858398028
0.02,1.0087730299649844,5911.04640931969
0.024,0.9673918650315129,5903.536946978042
0.028,0.9426910952213101,5902.686608603212
0.032,0.9251987210751459,5897.976149178005
0.036,0.9073456875870219,5899.638684920571
0.04,0.8853567197130553,5894.976102215424
0.044,0.8600319361996976,5887.689772503523
0.048,0.8361976686511198,5895.951019547182
0.052,0.8208764516346843,5904.209541227382
0.056,0.8206334030414029,5891.249884026736
0.06,0.8389678341903448,5907.255370327453
0.064,0.8746934972368655,5899.992147447433
0.068,0.9218267644702793,5905.966539137958
0.072,0.9708802345604528,5905.895490877318
0.076,1.0110662254581677,5904.063753406929
0.08,1.0328158311497813,5897.26223407306
0.084,1.0300162844660505,5890.094086088344
0.088,1.0013981125188325,5902.369619834241
0.092,0.9506899151197438,5899.335065229012
0.096,0.8855675589012502,5903.336351468113
0.1,0.815857389595107,5900.105609316541
0.104,0.7515872637683112,5896.040088967157
0.108,0.701280602148355,5900.705825069356
0.112,0.6706719156982828,5909.483821101489
0.116,0.6620067455263451,5900.07057131932
0.12,0.674129418978779,5895.861407892896
0.124,0.7033910519161732,5890.613738426448
0.128,0.7450226302968954,5904.125008937403
0.132,0.7943476864368448,5905.279925060037
0.136,0.8473790631830547,5897.807689216317
0.14,0.9008428248387035,5897.705960958814
0.144,0.9520054813088598,5898.348392170006
0.148,0.9985516912822414,5898.410421912126
0.152,1.0384489665913756,5892.559175277439
0.156,1.0697092191259652,5907.905055149736
0.16,1.0902379998997007,5895.942882309896
0.164,1.0981206038124827,5893.102568207224
0.168,1.0924165925169178,5902.374134049716
0.172,1.0740570088334809,5897.110680048122
0.176,1.0462911276796802,5895.652651923139
0.18,1.0144583772878593,5890.552952045877
0.184,0.9852298903501311,5901.053823336038
0.188,0.965466351240874,5895.94742125537
0.192,0.9606763849090206,5909.708529614024
0.196,0.9732118129773238,5907.017399613823
0.2,1.0007970885181963,5900.455481328147
0.204,1.0362359358935453,5903.502300364769
0.208,1.0688175320538176,5895.633877305144
0.212,1.0872510510648683,5896.788462243768
0.216,1.0833025686577478,5905.788237808686
0.22,1.0549329980890956,5894.342570770666
0.224,1.007734023024958,5913.092840731788
0.228,0.9539087881984196,5898.4148881869205
0.232,0.9088909940339811,5901.817993457656
0.236,0.8866312580911273,5894.845336637398
0.24,0.8951743305448872,5897.210559177858
0.244,0.9340881093309621,5903.423879460209
0.248,0.9945684947390161,5890.618248880818
0.252,1.0620119010783164,5898.335340847841
0.256,1.1200784240598756,5896.863930425715
0.26,1.155018169125188,5900.449974398985
0.264,1.1591239798132882,5901.639518139121
0.268,1.132421790482381,5899.922161103087
0.272,1.0821577668718767,5899.095056265904
0.276,1.0202930906193493,5896.947123030466
0.28,0.9598648956646746,5904.433076034233
0.284,0.9114297647089389,5898.123224964868
0.288,0.8806838784325683,5903.355558460185
0.292,0.8678029099421364,5894.365674226084
0.296,0.8683867561407885,5900.3360449412
0.3,0.8754799685076906,5899.378665306743
0.304,0.8820341332017252,5898.284619268976
0.308,0.8831780663549914,5905.520275794538
0.312,0.8776598880909838,5899.335475915721
0.316,0.8679950317571085,5900.186114896526
0.32,0.8593106474460223,5896.24075484001
0.324,0.8573984822966657,5907.225764299309
0.328,0.8667666762358931,5902.796779822444
0.332,0.8894029393493179,5905.070530648283
0.336,0.9245795389460605,5889.997772552864
0.34,0.9695307026631621,5893.319811940041
0.344,1.0204881949369657,5907.423536819058
0.348,1.0735159285619618,5899.891176730804
0.352,1.1248078646220687,5902.221348492491
0.356,1.1705177747075228,5899.768157187094
0.36,1.2065676443954323,5901.127508862272
0.364,1.2289258775507705,5901.384967960521
0.368,1.2345125167358288,5903.072245447177
0.372,1.2224852325789692,5897.810331090049
0.376,1.1953903470588318,5897.848111776309
0.38,1.1595000736759458,5906.960722777255
0.384,1.1237741521168014,5903.395298069529
0.388,1.097520331092902,5894.2093015149385
0.392,1.0876271009720888,5904.255491834601
0.396,1.096512952503433,5898.773756667228
0.4,1.1215587067937527,5897.172564372543
0.404,1.1561749355355053,5902.439294276761
0.408,1.1920672845244942,5897.988103389465
0.412,1.221789249485872,5898.893444086268
0.416,1.2405686845721633,5896.534861341159
0.42,1.2468350873176395,5905.960915566733
0.424,1.2415557921724028,5901.308554035944
0.428,1.2269309455215984,5890.093788261222
0.432,1.2050872289189036,5900.6002152624
0.436,1.1773223626008231,5895.718738430378
0.44,1.1442386285821866,5901.376534067337
0.444,1.1066711445502797,5902.804395186827
0.448,1.066761330717449,5903.472463099461
0.452,1.0282776954993427,5902.047456460982
0.456,0.995702429388091,5902.46767590964
0.46,0.9724554045065226,5890.121337430073
0.464,0.9592442089152633,5899.501560096243
0.468,0.9534575379407985,5902.692294642136
0.472,0.9499105199303816,5902.152243515256
0.476,0.9425944245116435,5905.144569502707
0.48,0.9267102261711785,5887.176959113519
0.484,0.9002185426001249,5904.48081061123
0.488,0.8643794315894979,5895.699114586987
0.492,0.82321769532698,5902.367266620999
0.496,0.782324398951473,5899.677800485541
0.5,0.7476066644704604,5902.1523865798445
0.504,0.7243983127406892,5905.210747622733
0.508,0.7169188015012155,5908.688789403964
0.512,0.7277795502791783,5906.485361185303
0.516,0.7573313627313709,5891.393484952542
0.52,0.8030212005541392,5900.504097579007
0.524,0.8592147525146869,5903.855851798519
0.528,0.9178778051723822,5897.815193770008
0.532,0.9701587263974168,5894.512436608679
0.536,1.0085009466863628,5904.14778206063
0.54,1.0286086753923247,5900.061651636779
0.544,1.030535724339509,5892.4005192816985
0.548,1.018456134036832,5902.592018269476
0.552,0.9991894233075166,5898.849651433242
0.556,0.9800201460511575,5903.181222253577
0.56,0.9665356560387796,5895.200673399392
0.5640000000000001,0.9610644427879864,5897.980603486242
0.5680000000000001,0.962049610631752,5899.840810717244
0.5720000000000001,0.9645499647484075,5895.720817175586
0.5760000000000001,0.9618914512916265,5895.24944229489
0.58,0.9481075902403433,5910.727169899458
0.584,0.9204093429969542,5902.019159895319
0.588,0.8808219734690037,5903.887275870489
0.592,0.8363320447765394,5895.552206172115
0.596,0.7973129323547142,5895.598909062105
0.6,0.7746071546523193,5903.067057205964
0.604,0.7762069929793017,5892.648868359116
0.608,0.8046398483658935,5911.519373561908
0.612,0.8558702821740188,5903.530811576865
0.616,0.9199894896457022,5897.421160144781
0.62,0.9834050105324151,5900.373659113755
0.624,1.0318948467686855,5905.238553689962
0.628,1.0538760027478467,5898.445820774693
0.632,1.0433754099440007,5899.716897295437
0.636,1.0021711743602655,5894.493350720229
0.64,0.9403872980325557,5901.473464327924
0.644,0.8748379343192056,5903.576137049079
0.648,0.8249686452211503,5897.172747203674
0.652,0.8072551188350616,5899.71926363315
0.656,0.8298689526326862,5898.514671770605
0.66,0.8896631121673716,5894.890191609385
0.664,0.9727690544467804,5908.0438164338575
0.668,1.0586634590278614,5907.210203891332
0.672,1.1262238891035918,5907.761426470904
0.676,1.159693979136753,5893.677667222073
0.68,1.152751349860521,5887.696456474988
0.684,1.1096929301341971,5898.214877218741
0.6880000000000001,1.043648019639544,5896.359280546631
0.6920000000000001,0.9724220855670963,5894.511926186914
0.6960000000000001,0.9131277901048748,5905.70996364663
0.7000000000000001,0.8772338507459656,5899.291262514089
0.704,0.8677154263270423,5903.435487029324
0.708,0.8792429861416284,5911.453152304994
0.712,0.9010907350766029,5900.9124504280135
0.716,0.9214535268644376,5900.194259059756
0.72,0.9315597134305668,5899.678053112406
0.724,0.9282550784112733,5895.996826053509
0.728,0.9143852000466659,5896.994469726869
0.732,0.8970858467096613,5896.492762740009
0.736,0.8847070452645753,5899.678288764745
0.74,0.8834112716964995,5903.821964744111
0.744,0.8945899308182398,5904.331084771956
0.748,0.9141029050917544,5897.216604358294
0.752,0.9337704571803349,5902.0250559036585
0.756,0.9446330193074572,5895.961512458997
0.76,0.940712174936688,5891.220153690134
0.764,0.9217402226529968,5895.545211365174
0.768,0.8936631603131493,5906.192427621503
0.772,0.866599374024042,5903.017515659994
0.776,0.8510818270404528,5898.267668446852
0.78,0.8542311023548051,5903.5491286532615
0.784,0.8774748406871343,5892.211752583382
0.788,0.9166020876612314,5893.764509679012
0.792,0.9638588478603956,5896.7916290362855
0.796,1.0109940867002016,5902.484468026021
0.8,1.0519371674329696,5908.134344738068
0.804,1.0841465682640516,5895.959902884945
0.808,1.1083850796512735,5900.069121570734
0.812,1.127358906245679,5894.292707638725
0.8160000000000001,1.143991821909223,5892.5283943861305
0.8200000000000001,1.1600354925836767,5913.903306605502
0.8240000000000001,1.1754087948435097,5900.832940136875
0.8280000000000001,1.1883191325358597,5909.562183266036
0.8320000000000001,1.1959715639311213,5893.700847025853
0.836,1.1955617645988197,5902.169051820966
0.84,1.1852476389082889,5903.355746064718
0.844,1.1648064179719078,5889.520935574408
0.848,1.1357076024075348,5902.119474304861
0.852,1.1005258564791585,5905.349242798507
0.856,1.062009133338815,5899.8706500335165
0.86,1.0224037893425009,5895.125239163318
0.864,0.9834959463454309,5901.192521342633
0.868,0.9473055291129151,5909.825625506703
0.872,0.9168490758222272,5901.523736734171
0.876,0.8962416232167106,5904.927225338379
0.88,0.8897413173772419,5892.565001759489
0.884,0.8999518464208618,5907.229324193687
0.888,0.9259392723080812,5895.574560684312
0.892,0.9622292124972468,5899.30920210195
0.896,0.9994306513958303,5896.445696760813
0.9,1.0266066780488345,5894.3920748305845
0.904,1.0346816936261438,5905.569075321375
0.908,1.0195825159075416,5894.802272674656
0.912,0.9838500109383772,5899.994729042246
0.916,0.9360688035569317,5907.235391864648
0.92,0.8882997609942914,5901.226409826869
0.924,0.8524947691981726,5902.532425866963
0.928,0.8372973228142407,5899.113700351609
0.932,0.8463234291604852,5909.383567055064
0.936,0.8781286412063883,5906.182712316038
0.94,0.9272939816401881,5901.189522644292
0.944,0.9859232344442512,5895.735017267427
0.948,1.0451948860941702,5893.545152115234
0.952,1.0968976771451417,5903.031049400302
0.956,1.1347993070806692,5902.440566060502
0.96,1.155544769030905,5906.598527089493
0.964,1.1589204821506245,5890.5237284302
0.968,1.147601592568789,5895.617264015877
0.972,1.1265470713214023,5904.451165665466
0.976,1.10203887473655,5899.970604830469
0.98,1.0803343281629103,5894.025675038116
0.984,1.0661722442121897,5912.145026490068
0.988,1.0616720630350442,5899.951385958312
0.992,1.0661185172945693,5894.459780088719
0.996,1.0766813778319448,5894.954561012976
1.0,1.089597561425274,5892.005722660791
1.004,1.101148496971255,5900.843996246298
1.008,1.1080533468631233,5897.182791367194
1.012,1.1073954544641893,5905.244623719429
1.016,1.09647151394278,5904.778915863736
1.02,1.07287460198834,5893.640768294228
1.024,1.0349018436244208,5899.911682894461
1.028,0.9821872958711776,5896.61450308035
1.032,0.9163117380692868,5894.467479119801
1.036,0.8410743721314162,5894.575335980147
1.04,0.7622277308779501,5905.08357172061
1.044,0.6867468159560722,5901.177805334412
1.048,0.6219315189695637,5907.866905888534
1.052,0.5746566340005453,5899.90205655467
1.056,0.5508696346905231,5907.776026379178
1.06,0.5551409730918845,5903.03839460929
1.064,0.5899817791175415,5895.308304960837
1.068,0.6549586796022613,5899.342902586614
1.072,0.7461202327264571,5901.573563192101
1.076,0.8563498193413297,5904.5281312347415
1.08,0.9767472297549793,5891.435440519714
1.084,1.0984389538290982,5903.953631069676
1.088,1.2139317232773,5903.576798994965
1.092,1.3174520443656257,5903.267581374707
1.096,1.4043781130740476,5900.256997191575
1.1,1.4704011511394555,5895.144939575713
1.104,1.5111231222393664,5902.130916195528
1.108,1.5224392660588606,5905.517325307057
1.112,1.5015654426617164,5896.841912180525
1.116,1.4482365580552188,5906.2618376617365
1.12,1.3655652064251744,5901.781220504224
1.124,1.2602908414275926,5901.757696987496
1.128,1.1424522175050933,5900.367813456744
1.132,1.024601941293679,5896.719051810243
1.136,0.9205313477610391,5889.425155486828
1.14,0.8433783423124664,5900.788601808192
1.144,0.80321077793448,5907.382808067002
1.148,0.804620397112418,5901.652640252892
1.152,0.8451488347226698,5896.529085963568
1.156,0.9152241899824967,5898.572040868852
1.16,0.9998097270413248,5892.912369143487
1.164,1.0814334141784643,5902.370551403896
1.168,1.1438395220699393,5905.482352986227
1.172,1.1752809796048163,5902.392459957121
1.176,1.1706180383028506,5906.100875471745
1.18,1.1318846344176041,5900.389386039415
1.184,1.067452713372486,5894.199565484999
1.188,0.9900727902600411,5900.960434421103
1.192,0.9140866888027699,5895.4313179778965
1.196,0.8523131156224029,5889.808549308077
1.2,0.8134081605978675,5904.957846372426
1.204,0.800512489961971,5904.306995796798
1.208,0.8115344354508974,5898.040591335651
1.212,0.8407505054848978,5903.716080020088
1.216,0.8809892485449751,5896.455065905302
1.22,0.9256547903235794,5903.92292366433
1.224,0.9700181381907695,5903.733496932188
1.228,1.011440664987594,5897.070892747292
1.232,1.048629580477106,5897.22305763139
1.236,1.0805437453469307,5899.479312112865
1.24,1.1057022584583192,5901.293426787956
1.244,1.1222303932666355,5896.8783283341245
1.248,1.1284469148280805,5894.941972433811
1.252,1.1236112851900886,5896.142319333973
1.256,1.108547946873083,5886.725399151321
1.26,1.0859502722213141,5904.873361597693
1.264,1.0601951120981645,5908.317609106291
1.268,1.036614274841112,5902.483404481
1.272,1.0203708771074502,5907.854869749584
1.276,1.015240048274532,5910.649921648281
1.28,1.0226421600065336,5899.881662121916
1.284,1.0412206431249962,5888.909726997919
1.288,1.0670555974635656,5898.634208717199
1.292,1.0943690317735708,5895.78812662885
1.296,1.1165659135338737,5901.341396523399
1.3,1.1276312208983879,5895.091311471403
1.304,1.123859849813342,5903.133314102818
1.308,1.1054665843047344,5907.990171413478
1.312,1.0772418214773518,5904.6272563605935
1.316,1.0476347396064458,5907.695374110566
1.32,1.026431580877838,5889.779034948584
1.324,1.0219424465183622,5899.81037569881
1.328,1.0387717035121706,5902.938268796585
1.332,1.076809464558066,5897.90579648617
1.336,1.1314296303750602,5893.873024428393
1.34,1.1944550001255698,5908.7512713714
1.344,1.2554782420865482,5906.946078574763
1.348,1.3034647554178165,5898.445267378104
1.352,1.328769713030329,5907.667237074944
1.356,1.3254152810505917,5904.774825680346
1.36,1.292875179909886,5903.267962470343
1.364,1.2363967909812648,5898.628379001249
1.368,1.1654976574099385,5901.67175443064
1.372,1.09128110657873,5907.781169272039
1.376,1.023788056927567,5896.383038585612
1.38,0.9703717490307313,5899.441660709604
1.384,0.9353469965936076,5896.743717763211
1.388,0.9204726229012539,5903.009635113716
1.392,0.9256072591357405,5912.389609869362
1.396,0.949203432924773,5904.039687965101
1.4,0.988735638620624,5902.398849431385
1.404,1.0411470838723316,5906.73386549325
1.408,1.1030185733850308,5901.475491620283
1.412,1.1700784358109755,5901.786319132009
1.416,1.2362327371692492,5891.028943655256
1.42,1.2930065237142698,5906.735315287595
1.424,1.3303541770964586,5895.370810384546
1.428,1.3389785359996118,5895.712117846643
1.432,1.313198487038081,5898.130032879079
1.436,1.2529608337825568,5906.233091599444
1.44,1.164146600060475,5911.545298219859
1.444,1.05728059505343,5903.233033072453
1.448,0.9453426173069118,5898.231494366135
1.452,0.8414402792395378,5894.757684756593
1.456,0.756894381819923,5900.710213596906
1.46,0.6999826740878891,5904.918597879802
1.464,0.6753099292667509,5896.14985661204
1.468,0.683659616900242,5904.818658544176
1.472,0.72219049237785,5900.122760151903
1.476,0.7848415854293449,5897.063003485393
1.48,0.8628575717943432,5898.361904756791
1.484,0.945525151495669,5896.8944104590455
1.488,1.0213503709556528,5904.808229875432
1.492,1.079745545050511,5902.571118153452
1.496,1.1128728878038237,5891.435639383763
1.5,1.117008657550479,5900.2450620945065
1.504,1.092952479068356,5893.048213810997
1.508,1.0454618795740713,5893.876055310849
1.512,0.9820753598262175,5900.305604036641
1.516,0.9117965911988568,5901.277934185943
1.52,0.843951155492126,5910.154979880973
1.524,0.7872519633690188,5901.701690457063
1.528,0.7489737191180669,5906.468603236833
1.532,0.7342177029145702,5901.140945018494
1.536,0.745316857947694,5901.64346387655
1.54,0.7813568844111496,5906.72419076417
1.544,0.8378085755370399,5905.602085117862
1.548,0.906529009538855,5898.432382925552
1.552,0.9765750064730495,5897.193767109808
1.556,1.0360310876120955,5902.854869733128
1.56,1.0745274421124846,5901.076907896444
1.564,1.0857259148638319,5889.6544561090905
1.568,1.0689915459243011,5902.487087427258
1.572,1.0297024051092705,5899.343201657484
1.576,0.9780574808290009,5905.415277578526
1.58,0.9266568090950615,5900.182781054486
1.584,0.887428643458211,5911.122995574953
1.588,0.8686656878223862,5897.688963192029
1.592,0.8729947399761299,5899.860802735992
1.596,0.8969246259272697,5903.857488842948
1.6,0.9321447952339238,5895.002423856458
1.604,0.9681517508625429,5896.710510737726
1.608,0.9953490299344523,5893.94738824057
1.612,1.0076760410413714,5899.913291669702
1.616,1.0040435540467825,5901.493443471324
1.62,0.9882638436216206,5909.918461476941
1.624,0.9676657231150333,5902.060613279484
1.628,0.9510327678943239,5893.825666636691
1.632,0.9466226625486822,5899.815000762867
1.636,0.9606997023956831,5899.920808010809
1.64,0.9965620446537463,5898.2499236383965
1.644,1.0539049170877262,5904.088668164344
1.648,1.1285591695551924,5898.080646832945
1.652,1.2128592920618828,5900.8268431404895
1.656,1.2968628007441134,5890.825260554781
1.66,1.370328238029351,5893.902545689117
1.664,1.424931515160596,5905.652395413682
1.668,1.4559516754420134,5899.533812906219
1.672,1.462775693315201,5899.3876701434565
1.676,1.448017756793181,5897.875201700857
1.68,1.415662234651704,5895.496842816712
1.684,1.3691512891580926,5909.048156094685
1.688,1.3103815711554256,5900.407226777012
1.692,1.240052554656769,5898.980247245731
1.696,1.1590932752384688,5897.42400650425
1.7,1.070395797098304,5893.35136410141
1.704,0.9799089014493562,5900.136350252641
1.708,0.8963160301703946,5890.112746824298
1.712,0.8291183801107512,5900.811736068981
1.716,0.7858234864694471,5898.473505703419
1.72,0.7695692473350737,5903.0719848539975
1.724,0.7783554113323896,5901.646489714397
1.728,0.806148850328105,5901.74406624797
1.732,0.8451368767968355,5893.23533070584
1.736,0.8879822229068072,5897.61947430457
1.74,0.9292057395589912,5908.818674046884
1.744,0.9654651156624621,5906.162314349533
1.748,0.9950868262238265,5901.343846522957
1.752,1.0174205623560737,5893.459886353207
1.756,1.032366045479867,5900.163100842002
1.76,1.0400875802039302,5902.384821681033
1.764,1.040857471592884,5905.805188337095
1.768,1.0351180274009153,5899.078590460196
1.772,1.0238726890959424,5896.396185737397
1.776,1.00926839751355,5901.675057710352
1.78,0.9949273340962344,5894.976313179472
1.784,0.9855332964714847,5897.627168972291
1.788,0.9855247092856844,5899.220967466637
1.792,0.9973289732626741,5900.868913064096
1.796,1.019971582257116,5902.962836004168
1.8,1.0487930129379517,5908.166149988068
1.804,1.076496042348649,5909.698133253591
1.808,1.0951821147848162,5898.973267045767
1.812,1.0986880835052302,5895.071387027722
1.816,1.0844667763748286,5906.363286334316
1.82,1.0544315177443448,5905.001291461834
1.824,1.0145476881894173,5894.0099163308
1.828,0.9733861799351032,5894.887256399248
1.832,0.9401525856101932,5901.54905691959
1.836,0.9227223744868378,5899.359227293573
1.84,0.9260205952152305,5911.616779637846
1.844,0.9508939196521287,5906.639608911791
1.848,0.9935712474374236,5903.297461185591
1.852,1.0458957414252135,5903.586034592579
1.856,1.096552270782504,5900.244671353816
