时间(s),电压(V),幅值(高频80K)
0.0,0.8042173187119226,5900.825595606675
0.004,0.8766110827061427,5906.959644920159
0.008,0.9393100064194811,5904.040874854621
0.012,0.9851751236536199,5897.2700763394405
0.016,1.0114325840680123,5897.22419328416
0.02,1.0200791956537694,5895.208608398934
0.024,1.017050894954556,5902.727685625096
0.028,1.0103956235985057,5902.986890882537
0.032,1.0077461872253912,5904.396983500031
0.036,1.0138074614512884,5907.564761781629
0.04,1.0289554394857856,5905.018693303771
0.044,1.0497162558083482,5906.59670723914
0.048,1.0708947858349902,5907.83903582145
0.052,1.088183721111214,5893.101713116775
0.056,1.0998794896122654,5906.355257691387
0.06,1.1069937086759531,5895.601918653078
0.064,1.112050349501553,5895.258837438463
0.068,1.1174236788632614,5900.0116702550085
0.072,1.1239827075810367,5906.622147367187
0.076,1.1304969227973647,5897.09386589101
0.08,1.134014791103623,5899.148585044688
0.084,1.1310902294300953,5902.537211013082
0.088,1.1192856459443028,5896.271881676149
0.092,1.0982182587362495,5908.42898562893
0.096,1.069770985994508,5907.244486743761
0.1,1.0376209169079047,5892.8741304946325
0.104,1.0064644572010788,5907.592443495403
0.108,0.9811680399421207,5906.127994680072
0.112,0.9658283284630764,5907.198618483206
0.116,0.9626750435352852,5893.054780769096
0.12,0.9710067138507016,5897.7504308687
0.124,0.9867087098869417,5903.826454588783
0.128,1.0029229092963114,5897.399333310547
0.132,1.011959480584512,5903.581772701795
0.136,1.0079069475083429,5899.341127763403
0.14,0.989007959942612,5903.554977571776
0.144,0.9588487446387813,5908.164437494398
0.148,0.9257442525867968,5891.115846627694
0.152,0.9003226499078659,5901.106437974793
0.156,0.8920071627320194,5899.035600535939
0.16,0.9055660325207538,5902.096466777708
0.164,0.9389671820956327,5893.664750540494
0.168,0.9833880803832893,5906.892292085116
0.172,1.0254907202269459,5901.51347659441
0.176,1.0512786900229756,5894.73397884254
0.18,1.050352290767321,5901.114899059936
0.184,1.0192625460144709,5900.305716598748
0.188,0.9628462739767072,5897.398223543924
0.192,0.8929106987365741,5901.932382749593
0.196,0.8244932955309737,5897.700143183802
0.2,0.7709828424124506,5901.132263052905
0.204,0.7401095053042824,5907.012926193483
0.208,0.732550501303296,5895.0318028837855
0.212,0.7435710007728005,5900.624638800852
0.216,0.7665476678450385,5902.820982745308
0.22,0.7964636333226129,5901.217986994408
0.224,0.8318323955350453,5904.825127271647
0.228,0.8744792385962213,5902.061316632764
0.232,0.9275580308033338,5894.083436468987
0.236,0.9928422342560532,5898.660794633045
0.24,1.068563504518183,5904.571618739797
0.244,1.1487238266511075,5896.999179181271
0.248,1.2240253717433414,5901.690274920815
0.252,1.2838727722488192,5904.79763860779
0.256,1.318691629598223,5904.853714354799
0.26,1.3219659212474102,5887.056108177749
0.264,1.2916310774856001,5900.852764687061
0.268,1.2306549420345831,5901.987421453743
0.272,1.146783703046605,5892.856599057955
0.276,1.0514942943088654,5899.36683319504
0.28,0.9582121492038602,5903.372344123806
0.284,0.879915036041077,5899.193681192242
0.288,0.8264359250407574,5898.713611436029
0.292,0.8021334966465591,5888.861768169091
0.296,0.8048845656839251,5902.045813956715
0.3,0.8270862522063076,5905.490364947547
0.304,0.8584292797177486,5907.697385633642
0.308,0.8892374984041433,5907.874062881623
0.312,0.9129176020530316,5899.3692445456345
0.316,0.926697930024595,5897.152698524179
0.32,0.9308642605218331,5892.695568113542
0.324,0.9273778668106432,5895.900908579423
0.328,0.9186888326427527,5895.547533509779
0.332,0.9070158204565826,5904.725822597913
0.336,0.8939535531386675,5893.454776277097
0.34,0.8802806158664261,5903.613786341831
0.344,0.8660446421211552,5901.119754481084
0.348,0.8510059332010986,5896.964364131294
0.352,0.8352551081677865,5901.730174645416
0.356,0.8196045565127456,5903.528134843633
0.36,0.8054701669709525,5901.605302557546
0.364,0.7943126763215462,5899.521496130134
0.368,0.7869734701593107,5894.377473636804
0.372,0.7832670075073136,5905.462839098464
0.376,0.7820823038335416,5904.137180018514
0.38,0.7820519911891075,5892.057724557654
0.384,0.7825177065145099,5908.999283710937
0.388,0.7842141609044323,5896.942935909271
0.392,0.7891615545628212,5900.144847035567
0.396,0.799758203713669,5904.207769881164
0.4,0.8176081599396251,5898.658351410048
0.404,0.8427830303188623,5905.3482086701815
0.408,0.8739374481326007,5906.814007447894
0.412,0.9091659669323057,5904.516020393153
0.416,0.9469902024419576,5898.138568664866
0.42,0.9867466792923748,5899.656064834572
0.424,1.0280569544796412,5901.205039156339
0.428,1.0696864838965605,5897.6233101968455
0.432,1.1084773063633306,5903.989632004317
0.436,1.1390403677351817,5900.665042616727
0.44,1.154628312390429,5900.770113391538
0.444,1.1491340654285227,5898.842871553291
0.448,1.1195508586146579,5902.769482773008
0.452,1.0678095929894298,5897.508692221313
0.456,1.0010734822784648,5903.71838884855
0.46,0.9302921787958969,5899.898591500589
0.464,0.867577713825486,5890.747664882006
0.468,0.8233087080448946,5897.092798611787
0.472,0.8038041504608615,5898.767716824983
0.476,0.8101427735152071,5898.314096026727
0.48,0.8383431601162399,5903.421635244727
0.484,0.8807084651356999,5896.1445862581495
0.488,0.9277843341269946,5906.573513773144
0.492,0.9702718661429102,5901.447205651157
0.496,1.000486586588365,5897.338262506551
0.5,1.013330587655879,5900.072555130086
0.504,1.0068913811668077,5908.196205056912
0.508,0.9826808515212975,5895.207016513515
0.512,0.9454182865750397,5896.091079437127
0.516,0.9022431424465591,5899.721930124432
0.52,0.8613136613991436,5895.588901777835
0.524,0.8299641768102427,5897.251739175778
0.528,0.8129111570266638,5896.61548951717
0.532,0.811152737870867,5889.929637441527
0.536,0.8219906471186895,5901.649566210038
0.54,0.8401497722028277,5902.448061699225
0.544,0.8595846014303811,5904.816544832436
0.548,0.8753488269405645,5913.581446729788
0.552,0.8848255073650502,5892.937180858266
0.556,0.8878032116828063,5898.598371779744
0.56,0.8854656040247455,5896.635905906493
0.5640000000000001,0.8790072294387753,5902.523250329124
0.5680000000000001,0.8687287444775863,5900.6813541768925
0.5720000000000001,0.8539972768455225,5909.196356619854
0.5760000000000001,0.8338514309854055,5903.974369475144
0.58,0.8077548436187599,5901.703021926824
0.584,0.776113477195717,5896.754089111577
0.588,0.7404459913319869,5900.1551824420485
0.592,0.7033348612486175,5908.306124671745
0.596,0.6683658900968861,5894.917389191629
0.6,0.6400923371559053,5895.135591688722
0.604,0.6237476144299363,5900.42155095507
0.608,0.6243409396727354,5897.254471082387
0.612,0.6451225614030813,5899.430022868479
0.616,0.685965943029099,5908.383227277272
0.62,0.7425221548153567,5898.845131064962
0.624,0.8067842347883694,5898.607792681138
0.628,0.8690603785188822,5900.904387777941
0.632,0.9206624708154972,5900.495289138869
0.636,0.9562611780317497,5894.848756186505
0.64,0.9750418332936704,5892.543579407558
0.644,0.9803786624408607,5898.467420703143
0.648,0.9783395026194517,5899.692852397531
0.652,0.9756585530306581,5901.345766153905
0.656,0.9778559113979004,5899.56844600113
0.66,0.9880073687993536,5894.770935086979
0.664,1.0063458556502631,5899.666544338144
0.668,1.0305523829158838,5900.124261676815
0.672,1.0564368377840234,5909.0284275694485
0.676,1.0787603642357937,5901.634704490145
0.68,1.0920881262777713,5898.555869325965
0.684,1.0916392921826044,5897.848303094218
0.6880000000000001,1.074114083051512,5900.761642795975
0.6920000000000001,1.0384749205310566,5890.773843274482
0.6960000000000001,0.9865792543328272,5899.024338231984
0.7000000000000001,0.9233708647999292,5902.66808425052
0.704,0.8562603453779981,5898.610623013201
0.708,0.7936348522479412,5903.148542405791
0.712,0.7429845315474979,5901.012373428885
0.716,0.7094177439928219,5907.8756859140885
0.72,0.695093302159047,5907.793521979389
0.724,0.6995677082401739,5902.175382173649
0.728,0.7206550950127653,5901.046677823469
0.732,0.7553331949939954,5899.798783132559
0.736,0.8004267231420676,5893.061782519565
0.74,0.8530343330774779,5904.009882910966
0.744,0.9107572206192183,5900.525821340277
0.748,0.9717362767903565,5903.337006885939
0.752,1.0344444746209813,5889.261031735258
0.756,1.097237236957431,5898.498717965887
0.76,1.157811728114093,5897.608194874394
0.764,1.2127985004370598,5892.450619930604
0.768,1.2576320492660753,5910.110209356416
0.772,1.2867735059740086,5897.50745914304
0.776,1.2944095729092682,5903.83897490119
0.78,1.2757539148404131,5900.294607115591
0.784,1.2287993939425634,5900.274084504804
0.788,1.155952513023324,5907.993630023683
0.792,1.0648179462188923,5906.586407735095
0.796,0.9676237534972284,5900.833820394009
0.8,0.8792137299983391,5900.874735232243
0.804,0.8140297735400547,5906.967082630007
0.808,0.7829288892659957,5897.282960607011
0.812,0.7907858376286018,5909.862641957207
0.8160000000000001,0.8354992547438823,5896.68994150192
0.8200000000000001,0.9084706604454034,5899.215774248801
0.8240000000000001,0.9962695035852671,5896.556322986326
0.8280000000000001,1.083192914057635,5906.214512270392
0.8320000000000001,1.1544570806335215,5901.385013505717
0.836,1.1994321574228117,5893.1057027812585
0.84,1.2138797963368044,5890.763751053951
0.844,1.200262186052424,5905.679410254634
0.848,1.1660445904075687,5904.526320303474
0.852,1.1208433456695561,5904.589181277764
0.856,1.0736088965348065,5900.193648305844
0.86,1.0307632795285568,5904.409485008239
0.864,0.995633944350166,5904.44619096355
0.868,0.9689059228882808,5898.048980055601
0.872,0.9494771453661175,5893.926846369684
0.876,0.9352524158547668,5891.010749444563
0.88,0.9238218176399455,5902.136527449396
0.884,0.9132136802744243,5892.952403731426
0.888,0.9027908754080491,5890.97131576212
0.892,0.8939790744723267,5902.627518009523
0.896,0.8902136562054996,5895.264232760424
0.9,0.8956736248735656,5899.077147148572
0.904,0.9131080790532562,5895.821897666084
0.908,0.9418307104441318,5899.957104230185
0.912,0.9770663891575965,5901.424628156203
0.916,1.0111332874587746,5898.595788913784
0.92,1.0359592223259104,5895.4576698335695
0.924,1.0458322860287859,5903.019756688425
0.928,1.0393450136180729,5894.655449811756
0.932,1.0199640469354536,5901.440959755886
0.936,0.9951319592408656,5909.165005641411
0.94,0.9741504087756958,5905.823232085698
0.944,0.9654208602743994,5896.805944570984
0.948,0.9738899778067711,5901.768945735992
0.952,0.9995286203965994,5899.482065007633
0.956,1.0373253011456773,5901.029953284838
0.96,1.078791049785697,5896.849750704446
0.964,1.1144896753951554,5897.804185934482
0.968,1.136726388499963,5903.943097117024
0.972,1.141468174721432,5903.493801032174
0.976,1.1289535256955856,5901.276334312951
0.98,1.103056999131338,5906.744395691931
0.984,1.0699063577438752,5902.200543785483
0.988,1.0362869232920915,5894.564407645165
0.992,1.0081583761405806,5904.769330823276
0.996,0.9894815767015215,5900.904326488504
1.0,0.9816097749220254,5904.9781830438
1.004,0.9835219740166375,5905.683772939898
1.008,0.9929323733404362,5898.861817540304
1.012,1.0078433886240965,5895.539384297811
1.016,1.0277486737569623,5900.235563276098
1.02,1.053754416302204,5892.407915442384
1.024,1.0873879977510763,5897.0805105137215
1.028,1.1285668358774785,5906.761323945783
1.032,1.1738147069386484,5895.282184749924
1.036,1.215975983202089,5899.477435246215
1.04,1.246031818519283,5898.260268105752
1.044,1.2563388520858194,5902.351458325461
1.048,1.24361812528079,5892.685681090412
1.052,1.2101482086912272,5891.230036812293
1.056,1.1626867804378906,5900.795084248404
1.06,1.1097958334538731,5902.919557648584
1.064,1.0588202157524673,5893.95052488961
1.068,1.0136687380934069,5899.879513112136
1.072,0.9740516085088136,5904.355682071931
1.076,0.9362783249607285,5888.180937158478
1.08,0.8952881036617082,5905.785496347433
1.084,0.8472694882642365,5899.893929429946
1.088,0.7920209384226143,5900.186367328456
1.092,0.7342100063904805,5897.878662132473
1.096,0.6829836205306028,5900.014139306369
1.1,0.6498814268619354,5897.7541324831545
1.104,0.6455689295820298,5894.670256725234
1.108,0.6763962471611842,5906.372074183108
1.112,0.7419642607154828,5902.93461849711
1.116,0.8345610647681813,5897.343745918461
1.12,0.9406346654968872,5900.273936523156
1.124,1.043739470915152,5904.281775932486
1.128,1.1279831195398664,5899.74447782603
1.132,1.1810683978200969,5899.383666307866
1.136,1.1964220339436353,5904.982687569459
1.14,1.1742746765262904,5908.087328073863
1.144,1.121668590566523,5913.815056532107
1.148,1.051296239196331,5891.153196308045
1.152,0.9791008425113945,5900.8216841168
1.156,0.9209092339418078,5898.079236943713
1.16,0.8888918777345421,5892.836243038734
1.164,0.8889454506304818,5893.243475258372
1.168,0.9198474432174495,5905.255932085365
1.172,0.9743200186035024,5904.212583204232
1.176,1.0413965620283638,5891.411623427849
1.18,1.1091471438149738,5896.7764665792365
1.184,1.1670023963086138,5906.55724653609
1.188,1.2073550146837735,5896.496119186849
1.192,1.2264212529154714,5896.476014383812
1.196,1.2243660240612455,5903.498068883968
1.2,1.2046339047446692,5897.228483639691
1.204,1.1725316541074677,5899.886678839821
1.208,1.1334202856797158,5895.715228024776
1.212,1.091208255088842,5903.344001602351
1.216,1.04784457021957,5903.172166049912
1.22,1.0040124353518267,5896.515782677796
1.224,0.9605446283630794,5890.761454209232
1.228,0.9197467746529938,5900.720908851356
1.232,0.8859545617259804,5907.878983041008
1.236,0.8650274946443864,5896.672710564683
1.24,0.862906447642755,5899.409387953644
1.244,0.8837332378896506,5894.033887762503
1.248,0.9281905783149416,5898.028291466977
1.252,0.9925930365509578,5900.586081335647
1.256,1.0689727447528647,5894.564125755642
1.26,1.14613333848894,5900.187042235054
1.264,1.2114605577171162,5904.040127119808
1.268,1.2531757075565344,5897.448607422422
1.272,1.2626657723099957,5900.720389211327
1.276,1.2364609752424593,5894.897129032361
1.28,1.1773622913264412,5894.387481334952
1.284,1.0942834399688863,5899.468857083649
1.288,1.0006793683893513,5889.828416857196
1.292,0.9118884975582101,5897.14290086807
1.296,0.8420661786497681,5900.451817090926
1.3,0.8014392054598017,5900.24280275405
1.304,0.7943699102909101,5900.205475669259
1.308,0.8184213747208396,5898.544539526403
1.312,0.8645574797911267,5898.632768055191
1.316,0.9187557318277282,5898.893003406964
1.32,0.9652296541564114,5900.465402884038
1.324,0.9908259253601998,5896.448763598733
1.328,0.9892306578726726,5899.226183463666
1.332,0.9631552414987817,5889.704234196914
1.336,0.9232980174921913,5898.384697615991
1.34,0.8843653377954614,5897.353454411485
1.344,0.8598391593159577,5894.269617682739
1.348,0.8576744938985862,5903.877095731978
1.352,0.8785056074046844,5894.848333295264
1.356,0.9166403527069242,5898.515174325814
1.36,0.9628883023313617,5895.659998426847
1.364,1.0077279682643838,5895.925426204999
1.368,1.0435446398078259,5901.752561212942
1.372,1.065351168078516,5904.958388339079
1.376,1.070218870776966,5901.318750599484
1.38,1.0562549866178972,5897.644723284328
1.384,1.0220112722974424,5900.153175296254
1.388,0.9667217240850248,5896.874398965065
1.392,0.8912176031235143,5901.758754558779
1.396,0.7990865241458924,5890.618738489012
1.4,0.6975640927960842,5898.297666378477
1.404,0.5976732539158566,5901.652581466608
1.408,0.5132653376083292,5895.449356253862
1.412,0.45885373289086695,5888.471612289879
1.416,0.4465126330334088,5897.09166066179
1.42,0.48265667456433947,5894.378837315909
1.424,0.5658838292117179,5904.069096099156
1.428,0.6867972422924491,5905.005856900968
1.432,0.829892346915917,5905.027425555523
1.436,0.9767749880663745,5908.550323920251
1.44,1.1096140925788003,5906.351451437145
1.444,1.213901071862482,5898.742437242195
1.448,1.2801145431156518,5903.075573350984
1.452,1.3043978645421812,5897.7240886451855
1.456,1.2884973562702366,5895.722871368929
1.46,1.2390713483370541,5911.1807861746165
1.464,1.1664258931671452,5907.113867678737
1.468,1.0828182296979865,5891.108229577727
1.472,1.0005146556568019,5900.630345464751
1.476,0.9298382433109406,5902.620769083066
1.48,0.8775991080645091,5892.636235246917
1.484,0.8463579772326981,5903.367047487567
1.488,0.8346872262971794,5903.209281602121
1.492,0.8381339916903022,5902.16245180588
1.496,0.8503820065774259,5899.86945337781
1.5,0.8643086538391327,5899.074893906226
1.504,0.8729789396882024,5891.732605380637
1.508,0.8707539440541187,5892.578005057225
1.512,0.8545019036710163,5899.526732156504
1.516,0.8245939947251527,5893.377629134023
1.52,0.7852961977255764,5904.038994227015
1.524,0.7443971632122565,5893.486679508073
1.528,0.7121013490828221,5911.703232848824
1.532,0.6991859209755823,5900.491126558249
1.536,0.7144617560482098,5898.061775860375
1.54,0.7619483848576986,5895.902591595456
1.544,0.8386583637286148,5906.2042377344505
1.548,0.934058667873346,5905.282879769139
1.552,1.0318605573496202,5907.4160528904295
1.556,1.1138495480962207,5899.73310256342
1.56,1.1645059107883622,5903.684276814921
1.564,1.1748457894743671,5898.416674975918
1.568,1.144411046698688,5904.554060212491
1.572,1.0811663050165536,5896.744775937684
1.576,0.999641550082781,5899.7880018379965
1.58,0.9178394226666023,5895.891664123585
1.584,0.8534709662364002,5894.45035952693
1.588,0.8202598690743721,5906.3683419161725
1.592,0.8252439927684624,5893.008393105378
1.596,0.867826028204585,5899.4311892570495
1.6,0.9406965993737225,5895.67000769232
1.604,1.0320424230508882,5894.251929593449
1.608,1.128104707065148,5905.334870768309
1.612,1.2153365168950885,5897.0428316611815
1.616,1.2819182117792063,5912.119764552167
1.62,1.318821918038421,5901.98822340553
1.624,1.3207008142857197,5895.962102086129
1.628,1.2866627129499215,5895.178964255926
1.632,1.220720933297763,5899.773216095785
1.636,1.1316082244813006,5902.506845315799
1.64,1.0317126566503205,5896.290302240245
1.644,0.9351011735636287,5893.375749165087
1.648,0.8549437867013294,5897.68182052144
1.652,0.801022309588016,5905.694622267705
1.656,0.7780724257355055,5895.716943388971
1.66,0.7853143408919362,5906.489155281372
1.664,0.817017434634782,5891.171583215374
1.668,0.8637732434785304,5905.570975912876
1.672,0.9143176539952934,5899.205492426288
1.676,0.9578510308856408,5893.052880219994
1.68,0.9865825699903716,5908.466831294209
1.684,0.9978208972897249,5899.920671570748
1.688,0.9947508562857532,5898.526883135032
1.692,0.9853686735326792,5900.305551182752
1.696,0.9798123958410685,5903.944789539086
1.7,0.9870623713667646,5900.883147180697
1.704,1.012202752791695,5908.0570410707705
1.708,1.0550513482242427,5892.0279083773885
1.712,1.1103446538513462,5897.826832896115
1.716,1.1692054979890119,5912.234750051893
1.72,1.221432552365918,5902.482921853939
1.724,1.2580580448958751,5906.320045567216
1.728,1.2734733947397365,5900.963137959006
1.732,1.2664185194643067,5898.636474725266
1.736,1.2395545445940226,5902.195472962507
1.74,1.1980078644848364,5907.209234444755
1.744,1.1476586567366802,5906.443418535724
1.748,1.0938397300318246,5900.166590398917
1.752,1.0407484026688596,5900.204987515029
1.756,0.9915006366308563,5903.615011956692
1.76,0.9484566958089113,5901.039192803572
1.764,0.9133404008356104,5905.698096501485
1.768,0.8869384982250682,5898.580379512195
1.772,0.8687083889250397,5895.947703830105
1.776,0.8568987728089554,5907.55873096467
1.78,0.8493853325079714,5898.890009862107
1.784,0.8447464057506129,5897.451708967715
1.788,0.8429187403472153,5899.843485912398
1.792,0.8451712021602155,5898.137301944536
1.796,0.8535589540389024,5896.838529240506
1.8,0.8701635305094279,5910.109945977657
1.804,0.8964325320543143,5903.144017622987
1.808,0.9328788508125496,5894.265562247813
1.812,0.9791826392955748,5894.70361371207
1.816,1.034447255010919,5896.749644992774
1.82,1.0972513772540398,5895.996902338854
1.824,1.1653182485569442,5900.8493006783165
1.828,1.2349646860872994,5905.452904159073
1.832,1.3007644464227321,5897.500482188186
1.836,1.3558563011889508,5900.857298696725
1.84,1.3930338405419356,5904.3106293397295
1.844,1.406376021411359,5901.732429832873
1.848,1.392918921905955,5905.139327210551
1.852,1.353799682609513,5900.105410918211
1.856,1.2944289748445066,5897.70607248858
