时间(s),电压(V),幅值(高频80K)
0.0,1.715451229885573,5908.245621682241
0.004,1.574669545250431,5897.832220042645
0.008,1.4446204288378879,5902.408160700484
0.012,1.3358417606282478,5904.314130444635
0.016,1.256750988152636,5902.8031868596745
0.02,1.212284867810328,5901.519065690891
0.024,1.2030015724241903,5892.660200490922
0.028,1.2250021931010886,5894.823891287226
0.032,1.270683836209955,5901.919893291531
0.036,1.3300627516913854,5902.975921484042
0.04,1.3923500053165452,5902.764392379732
0.044,1.4475003267459459,5891.267319311578
0.048,1.4874795622626706,5908.20041391924
0.052,1.5070831456585425,5904.429592929371
0.056,1.5043060959338637,5899.173304671079
0.06,1.4803550440163722,5901.776371486369
0.064,1.4393203485035602,5900.912663255813
0.068,1.3874399759494822,5898.287020353732
0.072,1.331963143151985,5893.423028150234
0.076,1.2798235493854286,5892.572427022439
0.08,1.236482631879266,5899.159186792651
0.084,1.2052976513070828,5892.797437452874
0.088,1.1875801546905473,5890.653464411613
0.092,1.18317961509297,5902.732315888346
0.096,1.1911790957239103,5906.550467554377
0.1,1.2103507489339507,5897.793962409308
0.104,1.2392667491307834,5905.345910242843
0.108,1.2761060020771533,5903.8808722027
0.112,1.3182496156471495,5897.244236849616
0.116,1.3619185293653802,5898.2113728895465
0.12,1.4022871821771221,5905.344816262743
0.124,1.4343792631749515,5891.878682768054
0.128,1.4545435413548478,5893.348697892788
0.132,1.4617944964963023,5898.626158250733
0.136,1.4582599451924896,5908.09835674951
0.14,1.4484672272841927,5896.599281175942
0.144,1.4377676417513268,5899.9423900227775
0.148,1.4304437853886733,5897.769494761805
0.152,1.4280823578885822,5908.762659901747
0.156,1.4288568905467594,5902.505596975397
0.16,1.4282535770625056,5898.969775797422
0.164,1.4211829385186099,5905.958994190074
0.168,1.404576688056251,5904.193110230412
0.172,1.3791579157429337,5900.130245712284
0.176,1.3495173956102346,5908.222771784024
0.18,1.3225900888959652,5895.85309853516
0.184,1.3053428537290612,5899.58096890762
0.188,1.3025803273635566,5901.312630713704
0.192,1.3154932514241795,5902.501243101798
0.196,1.3412548825499813,5901.5391739000925
0.2,1.373682630013857,5903.819117377173
0.204,1.4047089199861358,5910.284554706102
0.208,1.4262520684730204,5900.367704261226
0.212,1.432083678811683,5892.386574835935
0.216,1.4193153484952434,5907.017693317607
0.22,1.389134873924143,5895.770878071565
0.224,1.346565967421125,5908.603364429982
0.228,1.299314761325828,5904.980248718717
0.232,1.256004912717719,5901.294124925228
0.236,1.2242302341215694,5897.035793832504
0.24,1.2089314238069775,5900.826494290859
0.244,1.2115447888222661,5896.840238146081
0.248,1.2300770327129236,5907.4510078653575
0.252,1.2599080509982339,5897.939825300919
0.256,1.2949898500091523,5906.423887266822
0.26,1.3291765284952815,5903.4611816374445
0.264,1.3574405687585234,5899.527232456278
0.268,1.3766640260772804,5904.113889288133
0.272,1.3857604973850568,5891.735813789356
0.276,1.385176676581345,5899.837727083723
0.28,1.3761547074928466,5911.418007328832
0.284,1.3602609250854818,5899.694200825751
0.288,1.3394719402896316,5896.5607053758
0.292,1.316630516795185,5902.040899671651
0.296,1.2956690584021942,5894.293912494496
0.3,1.2810324209648118,5899.93192902035
0.304,1.2762739368198905,5902.042261244119
0.308,1.2824616658674777,5898.599716998471
0.312,1.297315672419882,5900.272071269968
0.316,1.3157200572830137,5896.380268992449
0.32,1.3316317919155083,5897.964904960812
0.324,1.3407586951912702,5900.93227189133
0.328,1.3428921359810724,5903.733631346406
0.332,1.342659042491996,5893.639584676133
0.336,1.3479791150891645,5897.2696377887205
0.34,1.3666303023598023,5906.65887886868
0.344,1.402403553340112,5900.308373264442
0.348,1.4526225312165022,5903.983485624473
0.352,1.5081639458750828,5902.970461108971
0.356,1.556023204028302,5896.408016897915
0.36,1.5834990024460978,5909.363129648163
0.364,1.5825054377717982,5898.328647704203
0.368,1.552453867809309,5905.226863232759
0.372,1.5006302413049428,5898.044298340981
0.376,1.439940753359505,5902.58712454241
0.38,1.3849402551350725,5898.330622093777
0.384,1.3476921076165764,5902.029449563132
0.388,1.3349528754860676,5893.479563598854
0.392,1.3474947861528204,5899.900844773207
0.396,1.3813856470744164,5892.248543492781
0.4,1.4302237082786575,5908.390181892053
0.404,1.4871235666450322,5898.881233033522
0.408,1.545726485273564,5899.647097915008
0.412,1.6002645154528767,5897.869762219055
0.416,1.6452374722558984,5900.59698066354
0.42,1.6753297618081056,5903.042492085008
0.424,1.6859097101600922,5907.513959106273
0.428,1.674061604284779,5905.421954175236
0.432,1.6397596233467315,5890.510940855404
0.436,1.5865930197708484,5903.517322958265
0.44,1.5215151163406717,5898.65061877505
0.444,1.4534820446750785,5899.852219283199
0.448,1.3914071797470584,5889.873584641128
0.452,1.3422186228936401,5907.981692620918
0.456,1.3097099624865658,5893.800458083632
0.46,1.2944377452773856,5913.240712687745
0.464,1.294472900183332,5910.774267405754
0.468,1.3065393701593064,5902.659528876609
0.472,1.3270095548905905,5896.992409929172
0.476,1.3524102088924765,5894.990387200239
0.48,1.3794424049649663,5900.281875955361
0.484,1.404788677796085,5902.083910688772
0.488,1.4250092481403251,5891.998559969522
0.492,1.4367067356236614,5900.039535460692
0.496,1.437025111494738,5893.439769112863
0.5,1.4244231930405176,5901.033410886566
0.504,1.399426297514362,5898.123470761313
0.508,1.3648547751620448,5901.463580294826
0.512,1.325170293740213,5900.860586961856
0.516,1.285107235910587,5901.184447652663
0.52,1.2482774904895926,5903.359651527594
0.524,1.216505406970121,5898.851393551002
0.528,1.1901931396312615,5892.453361598498
0.532,1.1693833667413405,5900.273266209564
0.536,1.1548122233108569,5893.94299930736
0.54,1.1483243875450793,5897.908882717551
0.544,1.1524418070960492,5903.897189702723
0.548,1.169342489777698,5907.212318757837
0.552,1.199764085775407,5903.875339361012
0.556,1.24234651337372,5904.738564921115
0.56,1.2937174515271685,5898.293788074773
0.5640000000000001,1.3492594068877164,5897.118964215235
0.5680000000000001,1.4041458422728792,5899.408057202558
0.5720000000000001,1.4541463603632756,5900.645833140778
0.5760000000000001,1.4959524631734042,5904.657505310229
0.58,1.5271471572730981,5904.554101122895
0.584,1.5461057172011843,5912.693965755597
0.588,1.5519751910276918,5893.300159808048
0.592,1.544688967620711,5897.487680603059
0.596,1.5249936629923095,5900.237634903648
0.6,1.4946058421015989,5901.6595158859855
0.604,1.456566867969806,5897.413616509724
0.608,1.4155661232751617,5897.49083354553
0.612,1.3777754744758055,5900.048119574908
0.616,1.3498830582671066,5895.258498969904
0.62,1.3374609152667194,5910.2710022066885
0.624,1.343228443528823,5896.005918316686
0.628,1.3659168040774567,5896.5876952192775
0.632,1.4002235383731003,5898.572425970609
0.636,1.4379134804470508,5897.530716408942
0.64,1.469735123779046,5897.328288560655
0.644,1.4876352189842237,5906.788302858673
0.648,1.4867365011120286,5899.821478326918
0.652,1.4666172393371664,5903.951765598678
0.656,1.431556499585712,5898.75399353698
0.66,1.3895939728551077,5902.043883733451
0.664,1.350560693962057,5898.31064124887
0.668,1.3236377916987039,5897.482391287036
0.672,1.315239032202685,5896.9916574030985
0.676,1.3278227128533764,5896.59540134201
0.68,1.359717544203787,5904.610035483956
0.684,1.4056569972053097,5892.24020706897
0.6880000000000001,1.4577714119909724,5894.886241303361
0.6920000000000001,1.5070326149089515,5899.071848132551
0.6960000000000001,1.545093985368169,5907.309859559648
0.7000000000000001,1.5661119624788051,5900.744583529649
0.704,1.5679510161475323,5900.880780867973
0.708,1.5524098898204992,5897.960315728861
0.712,1.5244986971294374,5896.66161538854
0.716,1.4910415347600354,5898.938129556072
0.72,1.4589624020504028,5894.800613004859
0.724,1.4336398067234946,5897.410169786357
0.728,1.4177269221659188,5896.851279339968
0.732,1.4107672968699516,5902.343685515057
0.736,1.409689737056816,5901.761806094819
0.74,1.4099082488792118,5907.566682217979
0.744,1.406572696669587,5902.400737184852
0.748,1.3956564152604618,5904.672116557042
0.752,1.374804732763469,5896.166469640818
0.756,1.3439560079182367,5904.260011967108
0.76,1.305705189137985,5897.61133419222
0.764,1.2653052084540128,5901.073693890395
0.768,1.2300969193345073,5904.052231695332
0.772,1.2081121109613882,5894.612210330389
0.776,1.2058593159285176,5905.261131509933
0.78,1.2259336738033444,5899.400273202559
0.784,1.2656034841435722,5908.19054802226
0.788,1.3172746799058912,5900.800477301634
0.792,1.370750982141735,5890.634248189744
0.796,1.4162760756918602,5901.81626097555
0.8,1.4471193353111702,5895.550548029936
0.804,1.4608893671618495,5898.546622527774
0.808,1.4594077748090377,5888.184922772046
0.812,1.447525829242035,5904.151090297216
0.8160000000000001,1.4315161285305686,5898.379987707376
0.8200000000000001,1.4175334949574085,5898.266646282688
0.8240000000000001,1.4103018433650656,5895.334319823294
0.8280000000000001,1.4120120513901941,5901.079955157544
0.8320000000000001,1.4215519687051275,5899.6478053106985
0.836,1.4344036111290999,5890.550380708593
0.84,1.443535136648938,5893.525828074626
0.844,1.4413060533213797,5896.917533017386
0.848,1.4219368955280123,5900.181412523918
0.852,1.3837384187951598,5899.750711079532
0.856,1.3302960524823226,5905.249043300508
0.86,1.2701740396063026,5906.907633704137
0.864,1.2151998208127688,5904.075190915149
0.868,1.1777828873296727,5899.216068879497
0.872,1.1679605241002975,5909.74686676398
0.876,1.190934598873138,5893.3308188525725
0.88,1.2456977764982744,5912.131684836539
0.884,1.324977649869739,5910.507438254653
0.888,1.4163836389965412,5888.242318518324
0.892,1.5045191200326564,5910.446096233656
0.896,1.5738406141931878,5897.704336927193
0.9,1.611927904330447,5903.430806792168
0.904,1.6124455920459528,5904.473981178301
0.908,1.5767471727172384,5897.659155140331
0.912,1.5133302049952564,5900.964515510573
0.916,1.435262321807048,5898.091012139224
0.92,1.3566229585668426,5901.2301820429
0.924,1.289265602048259,5899.072942646491
0.928,1.2408007367410254,5910.393736888017
0.932,1.2141040890827828,5903.644595212359
0.936,1.2081535720069627,5909.122227031687
0.94,1.2196236823290272,5900.085278864739
0.944,1.244525082914582,5899.892475150004
0.948,1.2793640021855928,5891.039166534897
0.952,1.3216296942155463,5901.518164870586
0.956,1.369635807393886,5900.082591524639
0.96,1.4218410263484622,5909.181678470258
0.964,1.4759201888700861,5904.103538284097
0.968,1.528041996603315,5898.896533671023
0.972,1.572821083479626,5903.5547648602615
0.976,1.6041399622166852,5904.590869900748
0.98,1.6166393783123274,5890.395671934131
0.984,1.607388626348335,5900.54606029127
0.988,1.5771544388275043,5904.308957945649
0.992,1.530746028852591,5910.536983365779
0.996,1.4761209904944053,5898.905623789034
1.0,1.4223505351539938,5902.711786136215
1.004,1.3770810090123866,5903.421018465429
1.008,1.34446520159665,5894.986494197084
1.012,1.3243698773195072,5895.011958579223
1.016,1.3130649992394867,5898.24631110551
1.02,1.3049698311918094,5898.558284761323
1.024,1.2947263279967318,5910.000252008925
1.028,1.2789314295843648,5914.115639455215
1.032,1.2571150800124002,5896.078886482229
1.036,1.2318277272661424,5903.707213866271
1.04,1.2078960431334789,5897.338303922754
1.044,1.1909998087296367,5898.849767117782
1.048,1.1858252938086595,5899.739124785384
1.052,1.1942762621061236,5894.748386580827
1.056,1.2144249734335564,5900.37918754473
1.06,1.2407378853391255,5901.670511390554
1.064,1.2655838682925122,5898.798990008017
1.068,1.2814726092874047,5902.854267827876
1.072,1.283186873444859,5891.913763027744
1.076,1.2690525919590172,5895.574095067368
1.08,1.2410081291199893,5902.253432525245
1.084,1.2037030683383838,5906.408132935053
1.088,1.163209768912435,5904.72492154022
1.092,1.1258372152947376,5891.267843782398
1.096,1.0971990594303702,5902.377846654263
1.1,1.081503611809037,5902.331923810475
1.104,1.0811000167304363,5910.485732560296
1.108,1.0963725329981735,5899.351297639481
1.112,1.1259372055782304,5904.313703219042
1.116,1.1669233690545882,5896.049182491138
1.12,1.215168502108361,5895.659767684547
1.124,1.2653916171939892,5899.266060478431
1.128,1.3115856755566604,5899.032938344525
1.132,1.3478222863392473,5901.853213436029
1.136,1.369424002413036,5894.215153602771
1.14,1.374153785312216,5915.943038446075
1.144,1.362876621561182,5907.174971079785
1.148,1.3392623481458121,5891.010515779241
1.152,1.308526289247741,5905.8831569149925
1.156,1.2756690458608972,5891.654173137447
1.16,1.2439195474318552,5892.202010483658
1.164,1.2140620699343783,5903.23196036338
1.168,1.1850092199884317,5897.2706726053
1.172,1.1553558650469982,5893.35925319138
1.176,1.1250349411110392,5898.18943588761
1.18,1.0961148653862376,5914.212956789769
1.184,1.0723378503010237,5904.890394945475
1.188,1.0577322938526794,5903.389207022197
1.192,1.0550401648011662,5892.902518600394
1.196,1.064680823179448,5901.788675357318
1.2,1.0846564324280783,5900.204661170268
1.204,1.1113285608148529,5900.782975487639
1.208,1.1405949319323776,5893.246938703497
1.212,1.1689256624148237,5901.348440951772
1.216,1.193950804101497,5907.097766100613
1.22,1.2145627669436407,5900.190217455256
1.224,1.2306584249505956,5896.589915187577
1.228,1.2427245281470387,5908.848160680776
1.232,1.2514796135274684,5902.953408975175
1.236,1.257684510782843,5898.617176218087
1.24,1.2620654117740824,5900.6090352513975
1.244,1.2652132004496723,5901.81913676142
1.248,1.2674207611345545,5904.402255528887
1.252,1.2685914289919569,5901.417796809663
1.256,1.268396344907148,5902.547468066981
1.26,1.2666823983229167,5891.797749466151
1.264,1.2638585368472928,5899.140295139575
1.268,1.2608967778249782,5905.630413426703
1.272,1.2588540366171992,5889.23727322348
1.276,1.2582560324397136,5898.550568087991
1.28,1.258833225140698,5886.068194540364
1.284,1.2597661849466462,5902.929287007502
1.288,1.2601268263557717,5902.681744538426
1.292,1.2590847063305461,5901.118334892038
1.296,1.255751908390802,5903.897848702033
1.3,1.2489155058219643,5893.791323439945
1.304,1.237030833419241,5896.01764453296
1.308,1.218656497253715,5906.157095378748
1.312,1.1931622778950963,5907.075210276716
1.316,1.1613125502236923,5907.132029888335
1.32,1.1253797179276264,5899.768080931845
1.324,1.0886805203811063,5900.750083394537
1.328,1.054702165412319,5903.046223339338
1.332,1.026206976770534,5905.881075142353
1.336,1.0047354329556633,5903.914178540593
1.34,0.9906782868005078,5909.093811608199
1.344,0.9837357806473583,5903.132582535672
1.348,0.9834044561575849,5904.485808239433
1.352,0.9891956522490122,5906.103609847108
1.356,1.0004909112728413,5899.792998166096
1.36,1.0161907188379677,5908.827099881002
1.364,1.0344994868494881,5905.056533187569
1.368,1.053141918028939,5907.7782501636775
1.372,1.0700104681661367,5911.941431099385
1.376,1.083928363310892,5908.995513935707
1.38,1.095110758957118,5902.537208905538
1.384,1.105046696011935,5906.763483620614
1.388,1.115781904372893,5909.700354891029
1.392,1.1288501483654436,5901.531440903807
1.396,1.1443134775329762,5899.38165050553
1.4,1.1603937226771912,5903.901629888904
1.404,1.1739006814320152,5903.810047483027
1.408,1.1812468795545146,5907.074692768028
1.412,1.1795945453840286,5911.19299528472
1.416,1.1677177688811706,5901.135958467284
1.42,1.14636563670295,5902.2351610856695
1.424,1.1181358655151878,5904.051766824073
1.428,1.086993429210326,5903.391045753206
1.432,1.0575292194387333,5903.316812636531
1.436,1.0339581229141823,5902.262497027874
1.44,1.0189362155780675,5891.4914528779245
1.444,1.0125830623930172,5896.492444650768
1.448,1.0123119009052912,5909.729326258158
1.452,1.0138190063054204,5898.795346879201
1.456,1.0129177937935323,5893.607792354265
1.46,1.0073260522053642,5908.1177946198
1.464,0.9974839314593739,5912.22107035698
1.468,0.9860250255432136,5905.233922836378
1.472,0.9762774962341706,5904.9301008473885
1.476,0.9706561876136461,5910.930161368967
1.48,0.9697536062941022,5901.072411012154
1.484,0.9724682089619279,5904.166594674395
1.488,0.9769700585800235,5897.721425090429
1.492,0.9819608838002337,5914.120801073675
1.496,0.9876089983444284,5904.378785401535
1.5,0.9956981485793666,5902.428658989244
1.504,1.0088601580905259,5907.666076202335
1.508,1.0291570774869305,5904.458333850725
1.512,1.056591765115487,5915.3753910361465
1.516,1.0882297629774476,5915.808082129074
1.52,1.118433726741521,5906.07975493659
1.524,1.1402409570293333,5904.959020063727
1.528,1.147347136176629,5904.234517182103
1.532,1.1358837830694282,5922.168405582427
1.536,1.1054147787485424,5900.468284536327
1.54,1.0590717849916387,5905.015575756941
1.544,1.0030385243820434,5908.704679241613
1.548,0.9455474108885119,5899.634338626365
1.552,0.8954335611379167,5896.442925533399
1.556,0.8603688210611757,5904.538948580838
1.56,0.8451494236115878,5909.689600773951
1.564,0.8505731457155963,5905.005800384259
1.568,0.8732933507442106,5904.071773724937
1.572,0.906666811026184,5910.744661896814
1.576,0.9423236927077948,5903.3730729512245
1.58,0.972092886573769,5909.385389638132
1.584,0.9898581642322224,5913.576363320143
1.588,0.9928529199643549,5906.985755618218
1.592,0.9820013358733686,5905.748470278096
1.596,0.9612484770517892,5909.5511986648335
1.6,0.9361930870860172,5905.869215549531
1.604,0.9125334847831781,5902.873792984194
1.608,0.8948194977270534,5907.14913248187
1.612,0.8858254951345335,5907.88379615518
1.616,0.88658023042502,5913.597361777894
1.62,0.8967976307246737,5905.315219286159
1.624,0.9153000457451108,5914.031231927587
1.628,0.9401374392213864,5918.085364905702
1.632,0.9684236475812164,5903.302415280702
1.636,0.9961848817964147,5902.964208096882
1.64,1.0185285318651258,5914.912546035207
1.644,1.0302346099082516,5901.357118690795
1.648,1.0266752080702415,5909.050642679826
1.652,1.004874789154165,5905.764771462566
1.656,0.964456954312286,5906.038530686754
1.66,0.9081855655796531,5906.102179417018
1.664,0.8418817838997797,5906.569796456515
1.668,0.7736511540138985,5903.037269299681
1.672,0.7125150913139491,5906.111603330822
1.676,0.6667028792572077,5905.264067558861
1.68,0.6419664258446556,5913.753548089228
1.684,0.6402483879544459,5898.999842589625
1.688,0.6589481309230527,5905.956583636969
1.692,0.6910305415490856,5916.5295964121615
1.696,0.7262225550503936,5905.815364920423
1.7,0.7533143046533848,5911.004336005205
1.704,0.7631139197439585,5913.547407073487
1.708,0.7511651248049381,5908.472638671758
1.712,0.7192246309387115,5911.483583710809
1.716,0.6748434059605639,5906.787864595789
1.72,0.6291090411284527,5912.499667128602
1.724,0.5933690651340736,5898.117385489055
1.728,0.5761461197680341,5910.956694847872
1.732,0.5812424604933699,5913.396319800973
1.736,0.6073926925905143,5910.057002549708
1.74,0.6491955687566691,5909.452540754277
1.744,0.6987483868913366,5913.90296118546
1.748,0.7474401868024594,5912.203568580062
1.752,0.7875721529481239,5909.023978629923
1.756,0.8136679313182429,5912.8979969140455
1.76,0.8233840971994779,5905.128022928304
1.764,0.8178631939512863,5913.965373029102
1.768,0.8013388979804333,5911.989695499249
1.772,0.7799101156600472,5911.274788607752
1.776,0.7596459793787091,5907.707958815223
1.78,0.7445016256000411,5906.825370105295
1.784,0.7347777018156254,5908.176558208934
1.788,0.7268448351986371,5913.25630845235
1.792,0.7144488464461008,5918.523110133036
1.796,0.6912173065576598,5912.332877074998
1.8,0.653367952807437,5922.909895641136
1.804,0.6014749679749185,5909.0325327033015
1.808,0.5405916589306488,5908.734403046061
1.812,0.47878843537286414,5913.291070278192
1.816,0.4247963825925422,5916.3873776819655
1.82,0.3856497652144266,5908.7922078512165
1.824,0.36503835366667153,5912.706983661018
1.828,0.36275039267437076,5909.022911585601
1.832,0.3752513792342654,5918.840949544549
1.836,0.39710495965800763,5907.28988379987
1.84,0.42265497332649893,5907.114015359196
1.844,0.4473381350496955,5905.378140542598
1.848,0.4682844835683343,5899.305225047036
1.852,0.48428917604602556,5917.0704799426485
1.856,0.4954772372859825,5911.452156285585
