时间(s),电压(V),幅值(高频80K)
0.0,0.6404687672636336,5900.497026233576
0.004,0.812143949887152,5899.035386578968
0.008,0.9661297073922305,5902.493518088357
0.012,1.0894506188654078,5902.407111979293
0.016,1.1752491251454564,5901.169425269069
0.02,1.2233890095121505,5905.766610002859
0.024,1.2394736263593729,5891.425163565442
0.028,1.2327789461365322,5901.928586209176
0.032,1.2136099932802549,5902.795659856456
0.036,1.1906763555858098,5906.909635328008
0.04,1.169228942670025,5892.505295507601
0.044,1.1505656106078745,5908.180368083824
0.048,1.1329447655979512,5904.220148624375
0.052,1.1133009241094043,5891.376751925366
0.056,1.0889582257911545,5903.299329640229
0.06,1.0588516226595701,5906.667848566006
0.064,1.0241470444598948,5902.406857616805
0.068,0.9882392085275915,5895.894494456326
0.072,0.9560418887910077,5898.44682582214
0.076,0.932632684743002,5894.542101596148
0.08,0.9216789956874067,5904.973710508862
0.084,0.9242731573071541,5893.833573581827
0.088,0.9386170759187039,5905.496191158869
0.092,0.9606186463319454,5894.574139637831
0.096,0.9851644221650058,5899.138591876256
0.1,1.0076414871510582,5906.202360469474
0.104,1.0251616054005555,5890.866393332374
0.108,1.0370169219392382,5908.962637735905
0.112,1.0442560346563032,5891.390182387928
0.116,1.0487303366301608,5900.062584895812
0.12,1.052204267659563,5897.717138854739
0.124,1.0559666146942253,5905.26320986567
0.128,1.0609384949271132,5905.570719030855
0.132,1.0679106192882906,5897.405122481136
0.136,1.0775438536014526,5898.602708637098
0.14,1.0900728812239189,5901.408431827187
0.144,1.1049685601114567,5898.657985065354
0.148,1.1208666754468986,5908.360844372875
0.152,1.13580969857893,5911.129401609445
0.156,1.1475618239314678,5906.178339760266
0.16,1.1537963140545504,5907.19271846919
0.164,1.1522418962264789,5898.423764242683
0.168,1.1409925954140374,5905.487145548574
0.172,1.1189891428118137,5891.6052315377
0.176,1.0864724110532658,5895.0365046759525
0.18,1.0452238722674558,5894.617115408588
0.184,0.9985072361576673,5890.702304819629
0.188,0.9506510619481461,5898.2856811118
0.192,0.9062706650927486,5903.510993611063
0.196,0.8693244693530647,5905.0865542517095
0.2,0.8423849238840773,5890.792647461907
0.204,0.826462419223229,5894.702228720474
0.208,0.8214334449034473,5896.234378693305
0.212,0.8267815047273273,5899.802262527051
0.216,0.8422039199300525,5893.560401391241
0.22,0.8677467568368403,5903.169625125161
0.224,0.903368634836773,5895.797742685714
0.228,0.9480831348245109,5905.021635840999
0.232,0.9990857649152514,5905.068850382424
0.236,1.051444817529973,5903.825567613991
0.24,1.0987900952511003,5898.407081593289
0.244,1.1348962461250345,5893.694068744072
0.248,1.1554666331590246,5902.063087477546
0.252,1.1592740593910678,5896.34749575282
0.256,1.1482356918238081,5894.262928202963
0.26,1.1266139925822392,5898.971942075386
0.264,1.099854496572557,5900.3502498259
0.268,1.073459727435431,5901.420134930599
0.272,1.0520339210893226,5898.5539169314925
0.276,1.038532582749414,5894.832398758844
0.28,1.033833340087274,5895.210214718452
0.284,1.0367983708359967,5904.806620430611
0.288,1.0448645475751779,5894.202395638599
0.292,1.054936679741355,5894.402548804868
0.296,1.0641940349731418,5907.958172614862
0.3,1.0705086669683248,5902.614676804624
0.304,1.0724567319306604,5907.9416865806825
0.308,1.0691721821549147,5890.121869003285
0.312,1.0603354524487747,5894.581433322547
0.316,1.0463489890423014,5906.1340188498525
0.32,1.028453251578977,5899.566641728882
0.324,1.008523866520119,5905.854177820933
0.328,0.9885954653038598,5901.332628287081
0.332,0.9704421242039485,5907.620391671444
0.336,0.955517337077065,5892.58871245352
0.34,0.9452614588563754,5891.307402922802
0.344,0.9414826264113746,5903.137059186892
0.348,0.9464345994984762,5901.210338563189
0.352,0.9623913596039988,5902.66753215399
0.356,0.9908109320760997,5899.953198835176
0.36,1.031395206094058,5894.637575939179
0.364,1.0813973228472413,5905.338643180983
0.368,1.1354535211663959,5904.105209048927
0.372,1.1860988214004802,5902.346704081022
0.376,1.224977689726606,5896.450028154883
0.38,1.2445816206265479,5894.767875685266
0.384,1.2401659523122037,5903.322011856676
0.388,1.2113450869511477,5908.52868470095
0.392,1.1627926296644824,5905.592659100834
0.396,1.1035948360273415,5897.731244208982
0.4,1.04518506038304,5910.435530433357
0.404,0.9983270431362019,5898.57164085144
0.408,0.97008969334886,5900.409673319851
0.412,0.9619035573677419,5899.918355249612
0.416,0.9694489392998517,5902.39547012849
0.42,0.9844001626423444,5899.108377143914
0.424,0.9973093165518508,5888.610228151978
0.428,1.0005373556945372,5898.800514435587
0.432,0.9902530422400998,5898.2103164135815
0.436,0.9669904942147253,5899.081772039801
0.44,0.9348472462451365,5896.89413341176
0.444,0.8998508541126902,5905.019061427835
0.448,0.8681645025391119,5898.808392885413
0.452,0.8446992154610553,5903.633883345965
0.456,0.8324719891918261,5892.354505867626
0.46,0.8327322493388535,5900.210795919906
0.464,0.845529258310328,5893.061388717992
0.468,0.8701842015985156,5908.73366670939
0.472,0.9052679099289798,5908.602703422327
0.476,0.9481574610808848,5888.011713484776
0.48,0.994685317377211,5898.222341756052
0.484,1.0394017805196092,5892.856153286614
0.488,1.0765581947062424,5897.794036887048
0.492,1.1014465030665246,5891.66769732698
0.496,1.1115087144131242,5899.476973763317
0.5,1.106744624713949,5897.679304411836
0.504,1.0893135270668293,5903.442608509081
0.508,1.0626128270212736,5890.660644948007
0.512,1.030274595756133,5899.135286385978
0.516,0.9954268818450928,5907.733211830287
0.52,0.9603865314276916,5907.024690179644
0.524,0.9267796421435505,5896.653361326081
0.528,0.8959334326493381,5905.741679961931
0.532,0.8693136285720271,5907.0985325447045
0.536,0.8488302631902808,5896.781384231321
0.54,0.8369020006658788,5895.137480115604
0.544,0.8361850070886945,5898.86656356352
0.548,0.8489286970309341,5900.980773605273
0.552,0.8760918336811112,5893.770655390498
0.556,0.9165384172784251,5897.904906212886
0.56,0.9666843261817624,5896.820366676658
0.5640000000000001,1.0208320921231142,5905.901729344809
0.5680000000000001,1.072163662428925,5903.14323021495
0.5720000000000001,1.1140904731811792,5902.632786545586
0.5760000000000001,1.1415281928405554,5901.131995513257
0.58,1.151719504785867,5903.285588826326
0.584,1.1444383796567428,5900.720665673206
0.588,1.1216867501572625,5898.541975633995
0.592,1.0871758164460825,5899.905109278443
0.596,1.0458314116583032,5900.752405653859
0.6,1.0033470646488687,5895.44398121512
0.604,0.965653060720424,5896.729679380649
0.608,0.938183429129431,5903.386954621524
0.612,0.9249299466124911,5914.895583107877
0.616,0.9274102494302076,5891.271167972219
0.62,0.9438583395425387,5898.961446012704
0.624,0.9690832155048614,5890.660988749704
0.628,0.995342724354185,5901.015122916557
0.632,1.0142032179445377,5892.802425336865
0.636,1.0188962807122688,5899.330810441284
0.64,1.006386793490787,5905.180335366011
0.644,0.9783822508405355,5899.526851722634
0.648,0.9408566013541166,5901.3196845169
0.652,0.9022082721709732,5901.990335875083
0.656,0.8707181316529135,5902.124539379213
0.66,0.852281119245679,5902.815852693653
0.664,0.8492342356407833,5897.640068971859
0.668,0.8605032480867855,5901.703207262328
0.672,0.8826296097267028,5904.61715260971
0.676,0.9109912412010555,5893.023157137551
0.68,0.940773638240572,5890.971982733753
0.684,0.9676378853333294,5902.621251841769
0.6880000000000001,0.98823554843118,5898.653524461767
0.6920000000000001,1.0006867088321836,5900.813288359974
0.6960000000000001,1.0049899618924205,5901.7573669068615
0.7000000000000001,1.0031896868819061,5901.344870815715
0.704,0.9990714299787481,5899.428925605873
0.708,0.9972750254017374,5905.514980405225
0.712,1.0020041574268923,5899.20458149647
0.716,1.015772106427584,5895.361592423461
0.72,1.0386275613380724,5906.255224709023
0.724,1.0680670711400124,5905.140646885065
0.728,1.0995627156772554,5903.4664973463205
0.732,1.1274666250859722,5896.038357815268
0.736,1.1460501436306791,5908.044440387297
0.74,1.150542145534689,5904.22345011566
0.744,1.1380817235500307,5900.624129675442
0.748,1.1084068812318808,5906.405203150783
0.752,1.0640181824110049,5904.142624609416
0.756,1.0096825806007834,5895.073865394643
0.76,0.9514390029897303,5891.0207640276685
0.764,0.8954951457906182,5898.186643417451
0.768,0.8473673339759882,5896.837658882694
0.772,0.8113592519223919,5890.724387426744
0.776,0.7902739409375787,5899.106420300264
0.78,0.78527865023195,5898.602096928361
0.784,0.7959468503391218,5901.177272851165
0.788,0.820487246315158,5902.957410991148
0.792,0.8560682310118843,5898.098625699899
0.796,0.899096360666402,5905.703506071079
0.8,0.9453724843195992,5899.1203227673095
0.804,0.9902122298490806,5906.879660956873
0.808,1.0287622249526767,5902.320971759723
0.812,1.0566811072098616,5902.488992647651
0.8160000000000001,1.071054510408523,5904.686134687991
0.8200000000000001,1.071142088764118,5900.771580856214
0.8240000000000001,1.0586056539557753,5892.871580748529
0.8280000000000001,1.0371888120753237,5898.04992301521
0.8320000000000001,1.0120676237933848,5892.494291150635
0.836,0.9890590476051428,5895.934677714252
0.84,0.9737072521720699,5899.790361429477
0.844,0.9702396685816189,5900.136855843995
0.848,0.9805562063659049,5903.942230049777
0.852,1.0035911616547226,5894.684572136583
0.856,1.0353428829350413,5901.727647835582
0.86,1.069600146103049,5894.241626361747
0.864,1.099145169139269,5909.4349472203785
0.868,1.117161462803371,5896.905879178137
0.872,1.1186192760852023,5907.847352316256
0.876,1.101393255422686,5897.752774122532
0.88,1.0668381254627866,5902.109006874057
0.884,1.0196146938370494,5900.462606699701
0.888,0.9667026636740493,5897.720148201685
0.892,0.915753511446844,5901.020770839772
0.896,0.8732371067574192,5906.94492369379
0.9,0.8430541550895989,5896.742221804047
0.904,0.8261749458480819,5896.316249314642
0.908,0.8213862912147143,5897.5863410900665
0.912,0.8266454929921034,5901.447395659797
0.916,0.8402564510657577,5889.189534427938
0.92,0.8613086299752142,5902.882826063555
0.924,0.8893372672045754,5894.172339557947
0.928,0.9235802036131472,5897.777941575727
0.932,0.9623476394234942,5904.09049382822
0.936,1.0029035480441735,5903.280748201335
0.94,1.0419423279817803,5901.869720564411
0.944,1.0764030310678903,5906.144099073335
0.948,1.1042238792557066,5900.404334042227
0.952,1.124728699514445,5895.985572698283
0.956,1.138492162407578,5895.6832681368805
0.96,1.1466947094051751,5902.016282960743
0.964,1.1502115419204033,5908.902081913825
0.968,1.1488777278281215,5902.972943096009
0.972,1.1413108771428384,5903.934018303233
0.976,1.1253919143549238,5905.508074485406
0.98,1.09928034170061,5899.64772395285
0.984,1.0627390804789276,5899.441175655779
0.988,1.0183607912033852,5891.5412278612175
0.992,0.9720462687694952,5889.976042335164
0.996,0.9321845626541756,5901.023554998622
1.0,0.9075980293597511,5905.964415208407
1.004,0.9050067889465588,5902.427298441831
1.008,0.9269837073690151,5898.467704644149
1.012,0.9710604320265008,5903.371532172585
1.016,1.0301615182970514,5903.217975620513
1.02,1.0941646522228248,5895.504947373973
1.024,1.1521282773829529,5902.032184447033
1.028,1.1945616254032387,5897.928907036186
1.032,1.2151371673661264,5896.762914668408
1.036,1.211521772411768,5896.513167638012
1.04,1.1853236178238207,5900.742263939687
1.044,1.1412960240842536,5892.051157459613
1.048,1.0860193205279147,5891.869275363223
1.052,1.02646260707736,5902.44044100916
1.056,0.9689145618253925,5897.635491553792
1.06,0.9185230981763142,5900.884072797088
1.064,0.8792874965845981,5896.127232399981
1.068,0.85417180402525,5905.769713030349
1.072,0.8451040202716624,5903.472767903497
1.076,0.8527992659815629,5898.941771864316
1.08,0.8764793673783016,5909.660650682993
1.084,0.9136432418123467,5899.20412501332
1.088,0.9600681677985613,5894.969459484006
1.092,1.0101815271055037,5904.452062024205
1.096,1.0578400789525624,5893.906745708253
1.1,1.0974115975673921,5901.907232798829
1.104,1.1249032501263558,5893.011247811686
1.108,1.1387844593545189,5884.944404249141
1.112,1.14020344794728,5895.445313508151
1.116,1.132517546879653,5908.042321493495
1.12,1.1203220270363388,5895.295113882129
1.124,1.1083135721644666,5906.287323321983
1.128,1.1003175365072306,5900.472246706524
1.132,1.0986892782075297,5897.145332864133
1.136,1.104138762820101,5892.168089306698
1.14,1.1158949932630142,5905.420262820677
1.144,1.1320532041495992,5897.831134953068
1.148,1.1499356246982637,5900.127529928326
1.152,1.1663684522931947,5908.304219519728
1.156,1.177908882878882,5893.439033346823
1.16,1.1811434133355667,5888.057885145296
1.164,1.1731608948818668,5899.531773046479
1.168,1.1522092788640235,5897.065884797206
1.172,1.118416028656221,5899.96282437903
1.176,1.0743205722772171,5897.425861089944
1.18,1.0248999622014132,5895.773380982663
1.184,0.9768631453923737,5892.871162052448
1.188,0.9372571141770516,5899.046667686724
1.192,0.9117396515522301,5896.96588874575
1.196,0.9030775219210124,5904.58273778264
1.2,0.9104330769409742,5907.496954563412
1.204,0.9297459186090525,5901.829600595817
1.208,0.9550578304986291,5895.824064448505
1.212,0.9802188672987484,5899.360741984283
1.216,1.000310309680462,5893.416425970671
1.22,1.0123597255858359,5890.655222499248
1.224,1.0153176905506285,5899.387242639501
1.228,1.0095996253838317,5904.209794039771
1.232,0.9966382149734724,5905.965074638233
1.236,0.9787715390703322,5901.4816170336
1.24,0.9594473527657191,5897.844612702868
1.244,0.9433810529759874,5893.644573472254
1.248,0.9362316523917549,5907.627130173687
1.252,0.9436037204111992,5902.18856653279
1.256,0.9695468127992921,5898.290654986772
1.26,1.0149964246519443,5901.410557514608
1.264,1.076714470314786,5909.878148259724
1.268,1.147240486347278,5896.6300332198425
1.272,1.2161278802663942,5903.78890513141
1.276,1.272313149099837,5897.809337465336
1.28,1.3069561036350792,5893.941256498431
1.284,1.3157424060480714,5901.487159896575
1.288,1.299767063171825,5894.65863102735
1.292,1.2647570337091405,5899.133181617007
1.296,1.2191074246356188,5901.840419174319
1.3,1.1715257377696071,5897.8175811465535
1.304,1.1289993619377037,5893.870555889711
1.308,1.0955888276022416,5900.4128836495565
1.312,1.0722806358772299,5907.404215918749
1.316,1.0577588926305157,5893.952095178923
1.32,1.0496070838734903,5890.891652928587
1.324,1.0453758678257368,5897.631202527376
1.328,1.0431817163697543,5903.71739681269
1.332,1.0418077802982877,5913.955919291875
1.336,1.0404518021704077,5898.257833160335
1.34,1.038299251893937,5906.610414503644
1.344,1.0341225370437162,5903.423291084519
1.348,1.026177197840528,5899.736577693983
1.352,1.0126427152325985,5888.667819358206
1.356,0.9925805086822421,5903.027621365731
1.36,0.9669636309276963,5900.94830059414
1.364,0.9390988437144205,5905.486492541689
1.368,0.9139513613887769,5897.385389146455
1.372,0.8964534811085613,5898.915591751318
1.376,0.8895085579187331,5893.168048033735
1.38,0.8926570005102235,5895.789356719308
1.384,0.9020424545454356,5898.0771450392585
1.388,0.9116386402293813,5906.472363880401
1.392,0.9151311773190335,5895.715551616384
1.396,0.9076934746125309,5911.75306892814
1.4,0.8871452160395885,5894.802434124055
1.404,0.8543875388650317,5895.395521694369
1.408,0.8132487729594123,5898.673205071056
1.412,0.7698346875205354,5899.390504198486
1.416,0.7313700530968522,5903.920482808726
1.42,0.7046142302934135,5900.324500020391
1.424,0.6942259365041841,5906.796237037357
1.428,0.7016550431465465,5905.486539831424
1.432,0.7249906814897037,5896.556469488097
1.436,0.7597588541774513,5902.55373377726
1.44,0.8002740821505686,5901.71120096818
1.444,0.8410364777377816,5896.026856136565
1.448,0.8777756331539309,5904.975129371986
1.452,0.9079516607060588,5892.552702952463
1.456,0.9307565151498379,5901.327117431199
1.46,0.9468022918496709,5904.93919690162
1.464,0.9576600413778039,5900.244431990221
1.468,0.9653165503473813,5895.261943347671
1.472,0.9715905201708211,5899.309846510527
1.476,0.9776195599549666,5903.10722664166
1.48,0.983605843944912,5895.051235190152
1.484,0.9889534051575277,5905.699336261266
1.488,0.9927145574875507,5908.779437001927
1.492,0.9940711769820066,5897.770654970417
1.496,0.992587107918833,5896.748515293485
1.5,0.9881356299507624,5900.311135641806
1.504,0.9805962605088866,5901.328226816385
1.508,0.9695416173179718,5894.965256934481
1.512,0.9541234785291873,5899.833098041091
1.516,0.9332239944271413,5904.78182314982
1.52,0.9057985433369388,5901.445563834409
1.524,0.871299750063634,5892.623712802595
1.528,0.8301093519955802,5899.7856261238285
1.532,0.783940130275759,5894.086622726964
1.536,0.736137644342336,5905.673079588823
1.54,0.6917221974695679,5894.136550633632
1.544,0.6569846910400381,5894.194958469793
1.548,0.6385639767309433,5893.180187658535
1.552,0.6421223434889284,5907.091503647569
1.556,0.6708991577204345,5906.328024325158
1.56,0.7245164738346848,5893.882762976929
1.564,0.7984149427347839,5897.376006859135
1.568,0.884183612204244,5909.196641953862
1.572,0.9708074122303881,5902.827624025281
1.576,1.0465771382903286,5900.08236595808
1.58,1.1012344683915218,5896.087615544574
1.584,1.1279135660823463,5903.105933072601
1.588,1.1245151745304158,5898.250933609565
1.592,1.0942427848477938,5893.632333339736
1.596,1.045138292394419,5898.30057263075
1.6,0.9885724572134738,5890.140954927433
1.604,0.9368309247047595,5895.047217856132
1.608,0.9002774829940046,5898.6662514054815
1.612,0.8849255794348363,5898.923501734765
1.616,0.8912647383068557,5901.607962641021
1.62,0.9147509519280894,5894.56527839906
1.624,0.9477090131682266,5897.833878531417
1.628,0.9818526043782594,5902.453534560731
1.632,1.0104719219844154,5896.051390434346
1.636,1.0296430932302674,5905.9514928373055
1.64,1.038371496332185,5899.777001041816
1.644,1.0380187914994008,5901.019407896955
1.648,1.0314536046847702,5907.0407890442975
1.652,1.02219413784308,5899.567392013397
1.656,1.0136103108919996,5892.561339106298
1.66,1.008184954966407,5901.440901533979
1.664,1.0069173019747204,5895.950932533859
1.668,1.0090605221535576,5905.035585832841
1.672,1.0123582041288741,5898.3324069404935
1.676,1.0137654775219798,5904.085435759179
1.68,1.0104340804747525,5896.499278555161
1.684,1.0006428124765077,5903.215426835202
1.688,0.9844078746019587,5895.137247744577
1.692,0.96362457723809,5898.104995034621
1.696,0.9416728775359969,5900.483763118858
1.7,0.922509654123044,5896.737990206358
1.704,0.9094809041602163,5897.3543091613465
1.708,0.9043539853735497,5898.568440942411
1.712,0.9071215077691935,5892.967377814122
1.716,0.9167626548117316,5898.126316937755
1.72,0.9325299553459914,5888.954652799532
1.724,0.9549149690833265,5905.515512470952
1.728,0.9855659338213789,5891.097378632957
1.732,1.026024636619234,5892.233582803599
1.736,1.0758753924959723,5897.803942661529
1.74,1.1313400388703,5902.828660469647
1.744,1.1852109774933401,5899.897120120845
1.748,1.2283599287628946,5897.356209322366
1.752,1.252339900248511,5898.060772954578
1.756,1.2521885113181814,5908.883054564439
1.76,1.2284549072964448,5896.974423054663
1.764,1.1876359042929499,5898.214863032339
1.768,1.1406743335965872,5897.914752932192
1.772,1.0998727542471605,5906.729532742831
1.776,1.0751994497561517,5898.917740204941
1.78,1.071249765975609,5902.238829506384
1.784,1.0859711338027696,5900.125020983171
1.788,1.111622795973253,5895.572532240578
1.792,1.137511010832695,5904.979630997429
1.796,1.1533483330141028,5900.10231006908
1.8,1.1520497837835304,5895.914727319822
1.804,1.1312593758404785,5904.73884150203
1.808,1.0934488935177311,5906.470009913843
1.812,1.0447921737578467,5906.626010695078
1.816,0.9932125128754732,5909.131972970799
1.82,0.9461209724144288,5896.779135647272
1.824,0.908450710756601,5900.69511827023
1.828,0.8815968213572148,5907.178159941173
1.832,0.863670919013749,5895.188914726748
1.836,0.8510202037875187,5896.553419701261
1.84,0.8403905796784717,5898.745038514088
1.844,0.8307460272336754,5901.290639243221
1.848,0.8238739487308795,5899.268939089139
1.852,0.8235187208079581,5903.515454660248
1.856,0.8335330139194099,5898.747637666593
1.86,0.8559497271593774,5905.027507969155
