序号,时间(s),电压,阻抗
1,0.022,1.267887,7339.408203
2,0.148,1.268212,7336.621094
3,0.274,1.268563,7340.778320
4,0.400,1.267637,7340.632813
5,0.526,1.268488,7342.968750
6,0.653,1.268287,7342.324707
7,0.778,1.268087,7339.226563
8,0.904,1.268438,7342.450195
9,1.030,1.268713,7341.223145
10,1.156,1.267937,7341.574707
11,1.282,1.268387,7342.615723
12,1.408,1.268237,7342.315918
13,1.534,1.268513,7341.244629
14,1.660,1.268012,7338.604492
15,1.786,1.268012,7339.933594
16,1.912,1.268362,7336.651855
17,2.039,1.267487,7341.140625
18,2.164,1.267962,7339.157715
19,2.290,1.268037,7344.897949
20,2.417,1.267637,7341.627441
21,2.542,1.267762,7341.407715
22,2.669,1.267962,7336.962402
23,2.794,1.268012,7339.026367
24,2.920,1.267737,7341.912598
25,3.046,1.268212,7340.833496
26,3.172,1.268713,7341.116211
27,3.298,1.268137,7339.518066
28,3.424,1.268412,7342.128418
29,3.550,1.268638,7340.571289
30,3.679,1.268287,7344.406738
31,3.802,1.268588,7340.320313
32,3.928,1.268312,7339.341797
33,4.054,1.268663,7339.543457
34,4.180,1.267937,7342.408691
35,4.306,1.268162,7339.917480
36,4.432,1.268588,7339.059082
37,4.558,1.268212,7342.270020
38,4.684,1.268312,7342.860352
39,4.810,1.268237,7341.756348
40,4.936,1.268438,7348.279297
41,5.062,1.267712,7339.962402
42,5.188,1.268162,7338.523438
43,5.314,1.268538,7340.725098
44,5.440,1.267937,7337.666992
45,5.566,1.268262,7340.799316
46,5.692,1.268463,7343.922852
47,5.818,1.268387,7337.993652
48,5.944,1.268287,7340.944336
49,6.070,1.268337,7339.333496
50,6.196,1.268763,7342.923828
51,6.322,1.268012,7338.422363
52,6.448,1.268112,7339.866699
53,6.574,1.268563,7342.044434
54,6.700,1.267812,7341.236816
55,6.826,1.268162,7342.512695
56,6.952,1.268362,7336.882324
57,7.078,1.268337,7340.092773
58,7.204,1.267837,7340.839844
59,7.330,1.267862,7339.851074
60,7.456,1.268538,7341.421387
61,7.582,1.267862,7342.165527
62,7.708,1.267812,7340.340332
63,7.834,1.268087,7344.861328
64,7.960,1.267937,7341.091797
65,8.086,1.267662,7339.062012
66,8.212,1.268362,7340.409668
67,8.338,1.268037,7341.547852
68,8.464,1.267712,7343.571289
69,8.590,1.268713,7341.410156
70,8.716,1.267937,7340.834473
71,8.842,1.268237,7340.674805
72,8.968,1.267912,7339.155273
73,9.094,1.268137,7343.579590
74,9.220,1.267862,7337.729492
75,9.346,1.267587,7340.940918
76,9.472,1.268187,7339.302246
77,9.598,1.268262,7342.124023
78,9.724,1.268062,7335.448242
79,9.850,1.267762,7338.337402
80,9.976,1.268513,7338.563477
81,10.102,1.268187,7339.422363
82,10.228,1.267712,7338.488281
83,10.354,1.268087,7339.142090
84,10.480,1.267862,7338.519043
85,10.606,1.267912,7339.287109
86,10.732,1.268162,7338.525391
87,10.858,1.268062,7337.339844
88,10.984,1.267862,7338.544434
89,11.110,1.268037,7339.674316
90,11.236,1.268212,7339.762695
91,11.361,1.267912,7338.556152
92,11.488,1.267687,7339.140137
93,11.614,1.268237,7339.227539
94,11.739,1.267837,7340.065430
95,11.866,1.267787,7336.036621
96,11.991,1.267762,7340.750000
97,12.118,1.268312,7337.787598
98,12.243,1.267987,7341.413086
99,12.370,1.268438,7335.864258
100,12.496,1.268763,7337.197754
101,12.621,1.267737,7340.815430
102,12.748,1.268262,7337.043945
103,12.873,1.267862,7340.629395
104,12.999,1.268412,7340.554688
105,13.126,1.267386,7339.280273
106,13.251,1.268387,7333.526855
107,13.377,1.268563,7338.373047
108,13.504,1.268312,7340.577637
109,13.630,1.268287,7339.178711
110,13.756,1.268187,7339.114746
111,13.881,1.268538,7337.139648
112,14.007,1.267637,7337.275391
113,14.133,1.268087,7338.599609
114,14.260,1.268287,7341.344238
115,14.385,1.268012,7336.101563
116,14.511,1.268387,7343.222656
117,14.638,1.268613,7339.601074
118,14.763,1.268262,7340.842773
119,14.889,1.268312,7341.116699
120,15.015,1.268763,7339.708984
121,15.141,1.268237,7342.211914
122,15.267,1.267612,7343.827637
123,15.393,1.268112,7338.248535
124,15.520,1.268788,7340.026855
125,15.646,1.268112,7340.334961
126,15.771,1.268112,7338.096191
127,15.897,1.268688,7336.266602
128,16.023,1.268362,7344.309570
129,16.149,1.267787,7339.072266
130,16.275,1.268087,7340.213867
131,16.401,1.268613,7341.712891
132,16.527,1.267987,7342.039551
133,16.653,1.268287,7335.439453
134,16.779,1.268337,7339.731445
135,16.905,1.268387,7339.835449
136,17.031,1.268137,7341.090332
137,17.158,1.268362,7339.986328
138,17.283,1.268863,7339.982910
139,17.409,1.267912,7339.485352
140,17.535,1.268337,7339.654785
141,17.661,1.268387,7341.147949
142,17.787,1.268062,7337.813477
143,17.913,1.267987,7342.315430
144,18.039,1.268738,7344.023926
145,18.165,1.268538,7337.361328
146,18.291,1.268412,7339.452148
147,18.417,1.268087,7338.326660
148,18.543,1.268087,7338.975098
149,18.669,1.267587,7337.628418
150,18.795,1.267937,7340.251465
151,18.921,1.268788,7342.609375
152,19.047,1.267937,7339.502441
153,19.173,1.268262,7335.772461
154,19.299,1.268162,7339.561523
155,19.425,1.268087,7340.320801
156,19.551,1.267712,7340.558594
157,19.677,1.267962,7340.413574
158,19.803,1.268237,7337.424316
159,19.929,1.267862,7337.857422
160,20.055,1.268137,7343.484375
161,20.181,1.267912,7336.987305
162,20.307,1.268012,7339.083984
163,20.433,1.267687,7338.040527
164,20.559,1.268187,7336.238770
165,20.685,1.268538,7338.109863
166,20.811,1.267812,7339.249512
167,20.937,1.268688,7337.353027
168,21.063,1.267837,7338.400391
169,21.189,1.268237,7337.868164
170,21.315,1.267837,7338.189453
171,21.441,1.268212,7339.965820
172,21.567,1.267812,7341.773438
173,21.693,1.267837,7337.988770
174,21.819,1.267887,7339.223145
175,21.945,1.267937,7342.955566
176,22.071,1.267912,7336.553711
177,22.197,1.267862,7343.428223
178,22.323,1.268337,7339.102051
179,22.449,1.267887,7340.966797
180,22.576,1.267637,7338.830566
181,22.701,1.268438,7338.918945
182,22.827,1.267937,7344.099121
183,22.953,1.267687,7336.377441
184,23.079,1.268187,7340.013672
185,23.205,1.268062,7338.497070
186,23.331,1.267762,7340.636719
187,23.457,1.267512,7340.779785
188,23.583,1.268062,7339.866699
189,23.709,1.268037,7339.616699
190,23.835,1.267687,7339.761230
191,23.961,1.268287,7339.313477
192,24.087,1.268387,7342.270996
193,24.213,1.268062,7341.956543
194,24.339,1.267837,7339.350098
195,24.465,1.268162,7339.019043
196,24.591,1.268312,7341.311523
197,24.717,1.267637,7338.332031
198,24.843,1.267812,7336.549805
199,24.969,1.268312,7336.580566
200,25.095,1.267662,7339.786621
201,25.221,1.268312,7339.192871
202,25.347,1.268287,7341.365723
203,25.473,1.267487,7341.462402
204,25.599,1.267762,7337.484863
205,25.725,1.267987,7335.893066
206,25.851,1.268212,7341.679688
207,25.977,1.268162,7338.247559
208,26.103,1.268112,7340.994141
209,26.229,1.268212,7338.410645
210,26.355,1.267887,7338.402832
211,26.480,1.268838,7338.401855
212,26.607,1.267787,7340.346680
213,26.733,1.267762,7336.723145
214,26.858,1.267787,7346.411621
215,26.985,1.268012,7337.355957
216,27.111,1.267712,7337.394043
217,27.237,1.267687,7336.604004
218,27.363,1.268012,7338.218262
219,27.489,1.267962,7338.705078
220,27.614,1.267812,7336.242188
221,27.741,1.267862,7338.990234
222,27.867,1.268012,7336.710938
223,27.993,1.267612,7336.124023
224,28.119,1.267812,7334.859375
225,28.245,1.267787,7338.461426
226,28.371,1.268237,7339.881348
227,28.496,1.267937,7338.631348
228,28.623,1.267587,7339.437500
229,28.748,1.267587,7343.665527
230,28.875,1.267612,7344.306641
231,29.001,1.267987,7335.827148
232,29.127,1.268112,7335.624023
233,29.252,1.267937,7337.472656
234,29.378,1.267662,7336.027832
235,29.504,1.268212,7335.312988
236,29.631,1.268387,7335.085938
237,29.757,1.267587,7337.786621
238,29.883,1.267812,7339.342773
239,30.009,1.268312,7335.794922
240,30.134,1.267937,7332.334961
241,30.261,1.267687,7336.751465
242,30.386,1.268012,7337.947754
243,30.513,1.267712,7337.729492
244,30.639,1.268112,7338.548340
245,30.764,1.267762,7336.340332
246,30.890,1.267737,7340.426270
247,31.016,1.267712,7334.365723
248,31.143,1.267862,7337.020508
249,31.269,1.268262,7338.847656
250,31.394,1.267712,7339.309570
251,31.520,1.268137,7339.677246
252,31.647,1.268087,7339.722656
253,31.772,1.267962,7336.346191
254,31.898,1.267662,7337.165039
255,32.024,1.267812,7336.428223
256,32.150,1.268212,7334.749023
257,32.276,1.267637,7341.633789
258,32.402,1.268012,7336.052246
259,32.528,1.267737,7337.368652
260,32.654,1.267762,7338.600586
261,32.780,1.267687,7335.145996
262,32.906,1.268563,7339.380371
263,33.032,1.268087,7337.172852
264,33.158,1.267361,7337.622559
265,33.284,1.268212,7339.650391
266,33.410,1.268037,7338.520996
267,33.536,1.267787,7339.775391
268,33.662,1.268187,7334.213379
269,33.789,1.268162,7337.677734
270,33.914,1.268237,7337.835449
271,34.040,1.267712,7337.838867
272,34.166,1.269013,7339.313965
273,34.293,1.268012,7336.995605
274,34.418,1.268137,7335.357422
275,34.544,1.267887,7338.574707
276,34.670,1.268212,7339.196289
277,34.796,1.267862,7335.885254
278,34.922,1.267787,7340.309082
279,35.048,1.268287,7342.437012
280,35.174,1.267612,7337.994629
281,35.301,1.268012,7339.223145
282,35.426,1.267687,7337.755859
283,35.552,1.268387,7336.972168
284,35.678,1.267862,7342.618652
285,35.804,1.267837,7337.410156
286,35.930,1.267912,7337.946289
287,36.056,1.267512,7339.464844
288,36.182,1.267487,7332.536133
289,36.309,1.267211,7338.834473
290,36.434,1.267912,7339.646973
291,36.560,1.267361,7340.915527
292,36.686,1.267962,7338.375488
293,36.812,1.267086,7341.691406
294,36.938,1.268037,7330.995117
295,37.064,1.267762,7338.651855
296,37.190,1.267612,7337.762695
297,37.316,1.267712,7336.294434
298,37.442,1.267737,7337.953125
299,37.568,1.268488,7336.661621
300,37.694,1.267837,7329.585938
301,37.820,1.267637,7335.757813
302,37.946,1.267687,7338.292480
303,38.072,1.267912,7336.214355
304,38.198,1.267737,7338.099121
305,38.324,1.267386,7339.076172
306,38.450,1.267687,7341.178711
307,38.576,1.267512,7336.165039
308,38.702,1.267937,7337.530762
309,38.828,1.267311,7335.916504
310,38.954,1.268062,7335.568359
311,39.080,1.268212,7338.412598
312,39.206,1.267887,7338.565430
313,39.332,1.268137,7335.781250
314,39.458,1.267712,7337.604492
315,39.584,1.267987,7339.280273
316,39.710,1.267987,7338.380371
317,39.836,1.268262,7340.165527
318,39.962,1.267787,7337.868652
319,40.088,1.268212,7336.129395
320,40.214,1.267887,7337.311523
321,40.340,1.267762,7340.243652
322,40.466,1.268012,7341.756348
323,40.592,1.267962,7340.222168
324,40.718,1.268112,7341.020996
325,40.844,1.267912,7336.045410
326,40.970,1.268137,7338.149902
327,41.096,1.268037,7341.225098
328,41.222,1.268062,7335.755859
329,41.348,1.267562,7338.029297
330,41.474,1.268187,7337.193848
331,41.600,1.267587,7336.575195
332,41.726,1.267962,7338.315430
333,41.852,1.268137,7336.516602
334,41.978,1.267912,7336.217773
335,42.104,1.267937,7336.371094
336,42.230,1.267662,7339.507324
337,42.356,1.267787,7336.939941
338,42.482,1.267662,7341.678223
339,42.608,1.267737,7336.902344
340,42.734,1.267862,7337.553711
341,42.860,1.267637,7337.473145
342,42.986,1.267612,7337.607422
343,43.112,1.267587,7340.000488
344,43.238,1.267862,7345.284180
345,43.363,1.267612,7335.941895
346,43.489,1.268087,7336.145996
347,43.616,1.267637,7336.655273
348,43.741,1.267937,7338.327637
349,43.868,1.267712,7333.434570
350,43.994,1.267687,7336.895508
351,44.120,1.267787,7337.583496
352,44.245,1.267787,7335.812988
353,44.372,1.267837,7335.281738
354,44.498,1.267261,7337.384277
355,44.623,1.267562,7335.210938
356,44.749,1.267361,7334.656738
357,44.876,1.267862,7336.855469
358,45.001,1.267036,7335.947266
359,45.128,1.267437,7336.015625
360,45.254,1.267111,7330.859375
361,45.380,1.267336,7334.853516
362,45.505,1.267887,7336.627441
363,45.632,1.267912,7337.811035
364,45.758,1.268087,7339.246582
365,45.883,1.267737,7335.647949
366,46.010,1.268488,7333.415527
367,46.135,1.267462,7335.596191
368,46.261,1.267937,7335.556641
369,46.387,1.268513,7335.305176
370,46.514,1.267787,7338.760254
371,46.639,1.267837,7335.717285
372,46.765,1.268112,7334.805664
373,46.892,1.267937,7336.092285
374,47.017,1.268062,7336.439941
375,47.143,1.267987,7336.667480
376,47.269,1.267787,7339.333008
377,47.395,1.268012,7339.443848
378,47.521,1.267437,7336.605469
379,47.647,1.268362,7338.298828
380,47.773,1.267562,7338.780273
381,47.899,1.268287,7338.946777
382,48.025,1.267937,7337.565918
383,48.151,1.267662,7335.856934
384,48.277,1.267587,7336.830566
385,48.403,1.267937,7335.395020
386,48.530,1.267487,7334.698242
387,48.655,1.267662,7332.393066
388,48.781,1.268012,7334.120605
389,48.907,1.267562,7334.404785
390,49.033,1.267787,7333.956055
391,49.159,1.267386,7338.576172
392,49.285,1.267787,7337.530273
393,49.411,1.267361,7337.713867
394,49.538,1.268137,7331.082520
395,49.663,1.267637,7337.218750
396,49.789,1.267962,7337.607910
397,49.915,1.267862,7336.822266
398,50.041,1.267537,7335.753418
399,50.167,1.267386,7334.458496
400,50.293,1.267812,7337.247559
401,50.419,1.268187,7335.272949
402,50.545,1.267286,7331.492188
403,50.671,1.267712,7333.458496
404,50.797,1.267962,7334.114258
405,50.923,1.268212,7335.989746
406,51.049,1.267637,7336.010254
407,51.175,1.268162,7335.914063
408,51.301,1.267937,7338.776855
409,51.427,1.267812,7339.789551
410,51.553,1.267812,7339.192871
411,51.679,1.268062,7337.356445
412,51.805,1.267937,7334.744629
413,51.931,1.267787,7336.905762
414,52.057,1.268137,7337.753418
415,52.183,1.267937,7334.844238
416,52.309,1.267937,7336.544922
417,52.435,1.268112,7337.138672
418,52.561,1.267937,7338.822266
419,52.687,1.267687,7338.927246
420,52.813,1.267987,7332.814941
421,52.939,1.267737,7338.927246
422,53.065,1.267887,7338.910156
423,53.191,1.268362,7338.596680
424,53.317,1.267687,7334.188477
425,53.443,1.267862,7333.279785
426,53.569,1.267462,7336.448242
427,53.695,1.267712,7338.658691
428,53.821,1.267587,7335.852051
429,53.947,1.267712,7335.987793
430,54.073,1.267386,7339.458008
431,54.199,1.267487,7337.967773
432,54.325,1.267637,7336.479492
433,54.451,1.267637,7338.662109
434,54.577,1.267687,7337.093750
435,54.703,1.267787,7335.383789
436,54.829,1.267962,7341.287109
437,54.955,1.267912,7336.643066
438,55.081,1.267612,7338.603027
439,55.207,1.267862,7335.700195
440,55.333,1.267812,7337.247070
441,55.459,1.267787,7337.379883
442,55.585,1.267812,7335.346191
443,55.711,1.267687,7334.469727
444,55.837,1.268062,7335.397949
445,55.963,1.268012,7335.658203
446,56.089,1.267762,7335.504395
447,56.215,1.267787,7332.848633
448,56.341,1.268438,7336.095215
449,56.467,1.267336,7336.628418
450,56.593,1.267837,7336.160645
451,56.719,1.268062,7336.145508
452,56.845,1.268162,7328.173828
453,56.971,1.267912,7335.512207
454,57.097,1.267962,7335.448242
455,57.223,1.267562,7334.575195
456,57.349,1.267762,7334.985840
457,57.475,1.268412,7339.649414
458,57.602,1.267912,7335.592285
459,57.727,1.268262,7336.855957
460,57.852,1.268187,7334.784180
461,57.979,1.267837,7338.497559
462,58.105,1.267587,7338.806641
463,58.230,1.267612,7333.524902
464,58.357,1.267762,7336.686035
465,58.483,1.268387,7338.539063
466,58.609,1.267787,7337.864258
467,58.735,1.267311,7335.443848
468,58.861,1.267612,7334.633301
469,58.986,1.267537,7334.045410
470,59.113,1.267512,7335.729004
471,59.238,1.267236,7332.376953
472,59.364,1.267962,7333.059570
473,59.491,1.267937,7337.742676
474,59.616,1.267862,7332.681152
475,59.743,1.267487,7334.910645
476,59.869,1.267411,7339.711426
477,59.995,1.267512,7335.476074
478,60.121,1.267637,7330.643066
479,60.247,1.267662,7336.994141
480,60.373,1.267587,7333.593750
481,60.498,1.268162,7335.741211
482,60.625,1.267937,7335.620605
483,60.751,1.267887,7333.200684
484,60.876,1.267812,7337.086426
485,61.002,1.268187,7334.724609
486,61.129,1.267937,7336.089844
487,61.254,1.267912,7335.598633
488,61.380,1.268037,7341.144043
489,61.506,1.268037,7335.492676
490,61.632,1.268037,7333.801270
491,61.759,1.268087,7336.855469
492,61.884,1.268488,7334.079590
493,62.010,1.267812,7340.409180
494,62.137,1.267887,7333.396484
495,62.262,1.268237,7335.648438
496,62.388,1.268162,7334.372070
497,62.514,1.268312,7337.554688
498,62.640,1.267862,7332.989746
499,62.766,1.267987,7335.400879
500,62.892,1.267487,7335.784180
501,63.018,1.267587,7334.146484
502,63.144,1.268863,7335.753906
503,63.270,1.267487,7335.684082
504,63.396,1.267812,7338.145020
505,63.522,1.268137,7335.779785
506,63.648,1.267386,7336.604004
507,63.774,1.268112,7334.817383
508,63.900,1.267637,7332.070801
509,64.026,1.267762,7333.071777
510,64.152,1.267612,7335.003418
511,64.278,1.267612,7334.118164
512,64.404,1.267386,7334.954590
513,64.530,1.267812,7336.270020
514,64.656,1.267637,7338.822266
515,64.782,1.267787,7336.010742
516,64.909,1.268037,7335.220703
517,65.034,1.267411,7336.295410
518,65.160,1.267862,7336.240234
519,65.286,1.267912,7333.985352
520,65.412,1.267812,7334.483887
521,65.539,1.267737,7336.521973
522,65.664,1.268738,7332.738770
523,65.790,1.267712,7330.252930
524,65.916,1.267812,7327.116211
525,66.042,1.268087,7334.629395
526,66.168,1.268312,7334.063965
527,66.294,1.267637,7334.108887
528,66.420,1.268112,7336.359375
529,66.546,1.267962,7333.456055
530,66.672,1.267887,7335.890625
531,66.798,1.267587,7334.213379
532,66.924,1.268012,7330.279297
533,67.050,1.267862,7334.840820
534,67.176,1.267612,7336.182129
535,67.302,1.267937,7333.650879
536,67.428,1.267637,7333.532227
537,67.554,1.267937,7333.585449
538,67.680,1.267562,7334.703613
539,67.806,1.267512,7335.092285
540,67.932,1.267837,7335.192871
541,68.058,1.267612,7335.825195
542,68.184,1.267286,7334.155762
543,68.310,1.267762,7330.755371
544,68.436,1.267487,7332.914063
545,68.562,1.267912,7334.829102
546,68.688,1.267612,7332.375000
547,68.814,1.267061,7332.184082
548,68.940,1.267987,7334.233887
549,69.066,1.267987,7332.356934
550,69.192,1.267887,7335.000977
551,69.318,1.267962,7335.165527
552,69.444,1.268538,7330.567871
553,69.570,1.267837,7333.714355
554,69.696,1.268513,7331.346191
555,69.822,1.267837,7335.447754
556,69.948,1.268237,7334.603027
557,70.074,1.267937,7337.242676
558,70.200,1.267887,7334.753418
559,70.326,1.267862,7333.286621
560,70.452,1.267787,7335.014648
561,70.578,1.267787,7333.799805
562,70.704,1.267687,7335.050293
563,70.830,1.267962,7337.910645
564,70.956,1.267311,7335.423828
565,71.082,1.267812,7335.606445
566,71.208,1.267411,7337.153809
567,71.334,1.267762,7335.187988
568,71.460,1.267712,7336.908203
569,71.586,1.267837,7336.910645
570,71.712,1.267537,7339.739258
571,71.838,1.267261,7339.907715
572,71.964,1.267937,7337.047852
573,72.090,1.267512,7335.165527
574,72.216,1.267762,7335.195313
575,72.342,1.267537,7337.813477
576,72.468,1.267311,7333.798828
577,72.594,1.267537,7336.527832
578,72.720,1.268162,7338.601074
579,72.846,1.267487,7336.680664
580,72.972,1.267687,7338.233398
581,73.098,1.268312,7339.400391
582,73.224,1.267962,7336.714844
583,73.350,1.267587,7337.811035
584,73.476,1.268012,7338.096191
585,73.601,1.267662,7333.855469
586,73.728,1.267937,7337.053223
587,73.854,1.268037,7337.501953
588,73.980,1.267612,7335.985840
589,74.106,1.268262,7337.396484
590,74.231,1.268037,7335.558594
591,74.358,1.267937,7337.542480
592,74.484,1.267762,7336.832520
593,74.610,1.268412,7336.653809
594,74.736,1.267687,7338.039063
595,74.862,1.268187,7337.816895
596,74.988,1.267537,7338.939453
597,75.113,1.268337,7339.500488
598,75.239,1.268062,7338.126953
599,75.366,1.267587,7335.985840
600,75.492,1.267386,7335.100586
601,75.617,1.268237,7337.934570
602,75.744,1.267537,7337.530273
603,75.870,1.267612,7337.852051
604,75.996,1.267637,7335.614258
605,76.121,1.267336,7344.155273
606,76.247,1.267336,7339.141113
607,76.373,1.267336,7337.886230
608,76.499,1.267687,7340.148926
609,76.626,1.267762,7335.507324
610,76.751,1.267962,7337.418945
611,76.877,1.267562,7340.270508
